id,attr_time,attr_x,attr_y,attr_z
1,1436622551004,-0.99538934,10.100538,0.9103952
2,1436622551005,-0.95349085,10.129868,0.89603
3,1436622551006,-1.0013748,10.159196,0.9127894
4,1436622551016,-1.0618285,10.181343,0.92895025
5,1436622551041,-1.0576386,10.147225,0.92416185
6,1436622551061,-1.0354922,10.110714,0.9367314
7,1436622551076,-1.0642227,10.114903,0.9127894
8,1436622551098,-1.0749966,10.08318,0.9068039
9,1436622551117,-1.0283096,10.083779,0.93134445
10,1436622551142,-1.0127473,10.096349,0.9127894
11,1436622551161,-1.0474633,10.135254,0.91697925
12,1436622551178,-1.0965444,10.147225,0.931943
13,1436622551196,-1.0654198,10.138845,0.93014735
14,1436622551218,-1.0313023,10.09994,0.95109665
15,1436622551240,-1.0480618,10.104729,0.93852705
16,1436622551260,-1.0941502,10.123283,0.95109665
17,1436622551280,-1.0965444,10.126276,0.9343372
18,1436622551300,-1.1210849,10.121488,0.9355343
19,1436622551321,-1.1246762,10.097546,0.9163807
20,1436622551340,-1.127669,10.081385,0.92655605
21,1436622551360,-1.122282,10.109517,0.9391256
22,1436622551382,-1.1288661,10.113707,0.9528923
23,1436622551398,-1.1300632,10.114903,0.94092125
24,1436622551420,-1.110311,10.125079,0.95229375
25,1436622551440,-1.0953473,10.110115,0.92895025
26,1436622551460,-1.0929531,10.104729,0.94331545
27,1436622551480,-1.1216835,10.133459,0.94092125
28,1436622551501,-1.0642227,10.125677,0.94930094
29,1436622551520,-1.0342951,10.133459,0.92775315
30,1436622551540,-1.0995371,10.155605,0.92535895
31,1436622551560,-1.0845734,10.050261,0.99538934
32,1436622551580,-1.027711,10.070611,0.96426475
33,1436622551601,-1.0630256,10.070611,0.88046765
34,1436622551621,-1.1001357,10.060435,0.9187749
35,1436622551640,-1.0576386,10.086173,0.94211835
36,1436622551665,-0.97623575,10.100538,0.90500826
37,1436622551730,-0.985214,10.17416,0.9187749
38,1436622551731,-1.0259154,10.207081,0.9475053
39,1436622551732,-0.99898064,10.228029,0.9504981
40,1436622551740,-0.9816227,10.171167,0.95708215
41,1436622551759,-1.0809821,10.1621895,0.9696517
42,1436622551780,-1.1522095,10.137649,0.9367314
43,1436622551797,-1.1563994,10.127473,0.95109665
44,1436622551817,-1.0702082,10.125079,0.9391256
45,1436622551839,-1.0737995,10.144831,0.96306765
46,1436622551864,-1.0702082,10.199299,0.9876082
47,1436622551881,-1.0235212,10.202292,0.973243
48,1436622551897,-0.997185,10.168773,0.96426475
49,1436622551917,-1.0097545,10.153211,0.95827925
50,1436622551940,-1.0289081,10.133459,0.96426475
51,1436622551961,-1.050456,10.098145,0.97025025
52,1436622551981,-1.033098,10.117896,0.95109665
53,1436622552001,-1.043872,10.1065235,0.95229375
54,1436622552021,-1.0348936,10.093954,0.94810385
55,1436622552041,-1.0199299,10.096947,0.9660604
56,1436622552061,-1.0348936,10.093954,0.9516952
57,1436622552081,-1.0163386,10.088568,0.95827925
58,1436622552102,-1.0223241,10.097546,0.95349085
59,1436622552118,-1.0115502,10.078392,0.95947635
60,1436622552141,-0.97982705,10.053851,0.9708488
61,1436622552161,-0.9804256,10.077195,0.9828198
62,1436622552181,-0.9876082,10.072407,0.9295488
63,1436622552200,-0.96187055,10.096947,0.93014735
64,1436622552221,-0.9900024,10.178948,0.9211691
65,1436622552240,-1.0384849,10.117298,0.98940384
66,1436622552261,-0.9888053,10.071808,1.0223241
67,1436622552281,-1.0253168,10.088568,0.9463082
68,1436622552301,-1.0947487,10.083779,0.9487024
69,1436622552321,-1.0971429,10.068815,0.973243
70,1436622552341,-1.0372878,10.0825815,0.92775315
71,1436622552361,-1.0085574,10.150817,0.93852705
72,1436622552381,-1.0121487,10.172963,0.98461545
73,1436622552452,-0.99060094,10.201095,1.0175357
74,1436622552453,-0.94690675,10.16578,1.0151415
75,1436622552454,-0.97384155,10.144233,0.997185
76,1436622552462,-1.043872,10.134656,0.9804256
77,1436622552478,-1.055843,10.065224,0.98700964
78,1436622552511,-1.0456676,10.081984,0.97503865
79,1436622552535,-1.021127,10.116699,0.9564836
80,1436622552550,-1.0354922,10.125079,0.97384155
81,1436622552560,-1.0019734,10.08318,1.0079589
82,1436622552579,-0.97025025,10.089765,0.9840169
83,1436622552600,-0.9696517,10.086772,0.9504981
84,1436622552621,-0.9744401,10.084976,0.9624691
85,1436622552644,-0.9648633,10.108918,0.98461545
86,1436622552660,-0.9528923,10.13286,0.96546185
87,1436622552681,-0.94690675,10.114903,0.9768343
88,1436622552701,-0.9504981,10.111911,0.99658644
89,1436622552721,-0.97025025,10.105926,1.0043676
90,1436622552741,-0.99060094,10.081385,0.997185
91,1436622552761,-1.0510546,10.072407,0.94930094
92,1436622552781,-1.0648212,10.1161,0.9451111
93,1436622552801,-1.0582372,10.129868,0.9528923
94,1436622552820,-1.0384849,10.1226845,0.9744401
95,1436622552841,-1.0348936,10.167576,0.9672575
96,1436622552861,-0.9828198,10.139444,0.985214
97,1436622552881,-0.96187055,10.13286,0.9900024
98,1436622552900,-1.0265139,10.195708,0.95229375
99,1436622552920,-1.0827777,10.144233,1.0007763
100,1436622552942,-1.0690111,10.096947,0.99778354
101,1436622552962,-1.0408791,10.069414,0.9068039
102,1436622552982,-1.0241197,10.040085,0.92775315
103,1436622553002,-0.95588505,10.068815,0.9391256
104,1436622553021,-0.83258367,10.13286,0.9044097
105,1436622553040,-0.75956047,10.184934,0.9163807
106,1436622553060,-0.8002619,10.245986,0.9576807
107,1436622553082,-0.8678981,10.26933,0.97384155
108,1436622553099,-0.88405895,10.21127,0.9588778
109,1436622553173,-0.9379285,10.183737,0.95229375
110,1436622553174,-1.0055647,10.198102,0.92416185
111,1436622553175,-0.9923966,10.160394,0.9475053
112,1436622553180,-0.9259575,10.16578,0.95947635
113,1436622553202,-0.8858546,10.148422,0.93972415
114,1436622553222,-0.90021986,10.180744,0.97264445
115,1436622553238,-0.9151836,10.175956,0.95229375
116,1436622553264,-0.8774749,10.1544075,0.94331545
117,1436622553291,-0.91578215,10.149619,0.92655605
118,1436622553299,-0.93134445,10.127473,0.92775315
119,1436622553323,-0.9648633,10.107122,0.93613285
120,1436622553341,-0.95468795,10.111911,0.9415198
121,1436622553363,-0.98461545,10.102933,0.91937345
122,1436622553382,-0.98700964,10.147225,0.92296475
123,1436622553402,-0.9888053,10.131064,0.9223662
124,1436622553422,-0.9475053,10.138845,0.94211835
125,1436622553442,-0.90620536,10.12448,0.9636662
126,1436622553462,-0.91338795,10.1304655,0.95349085
127,1436622553482,-0.8984242,10.107122,0.9660604
128,1436622553502,-0.8846575,10.121488,0.99179804
129,1436622553522,-0.89064306,10.143036,0.98581254
130,1436622553543,-0.88765025,10.119692,0.96306765
131,1436622553560,-0.83497787,10.126276,0.98461545
132,1436622553582,-0.8714894,10.241198,0.94810385
133,1436622553602,-0.89423436,10.186729,1.0414777
134,1436622553621,-0.8535329,10.09994,1.0474633
135,1436622553641,-0.842759,10.055647,0.9923966
136,1436622553662,-0.9540894,10.057443,0.93373865
137,1436622553682,-1.0522517,10.084976,0.93493575
138,1436622553702,-0.9959879,10.13705,0.919972
139,1436622553722,-0.90021986,10.160394,0.97862995
140,1436622553744,-0.88944596,10.19092,1.0253168
141,1436622553762,-0.91937345,10.21546,1.0432734
142,1436622553782,-0.878672,10.157401,1.0121487
143,1436622553802,-0.89423436,10.143036,0.9911995
144,1436622553821,-0.9780314,10.115502,0.98222125
145,1436622553874,-1.0199299,10.077195,0.96785605
146,1436622553877,-1.01574,10.097546,0.98820674
147,1436622553912,-0.9923966,10.110115,0.997185
148,1436622553913,-0.9672575,10.156203,1.002572
149,1436622553919,-0.95827925,10.1621895,1.0420763
150,1436622553940,-0.9271546,10.166379,1.0307038
151,1436622553959,-0.89902276,10.125079,1.0313023
152,1436622554007,-0.9151836,10.100538,1.0319009
153,1436622554008,-0.9636662,10.111312,0.97264445
154,1436622554026,-0.9900024,10.153211,0.9552865
155,1436622554040,-0.9768343,10.148422,0.9540894
156,1436622554060,-0.931943,10.122087,1.0205284
157,1436622554080,-0.90381116,10.134057,1.055843
158,1436622554103,-0.9091981,10.149021,1.0540473
159,1436622554123,-0.91817635,10.160992,1.0229226
160,1436622554143,-0.9552865,10.129269,1.01574
161,1436622554163,-0.97862995,10.09994,1.0115502
162,1436622554183,-1.0163386,10.038289,1.021127
163,1436622554203,-1.0714053,10.0664215,1.0151415
164,1436622554223,-1.0995371,10.068216,1.002572
165,1436622554243,-1.0714053,10.06283,0.9780314
166,1436622554263,-1.0660183,10.10413,0.9900024
167,1436622554281,-1.1174936,10.134656,0.997185
168,1436622554303,-1.073201,10.081385,1.0342951
169,1436622554323,-0.98820674,10.126276,1.0019734
170,1436622554343,-0.9792285,10.050261,0.99179804
171,1436622554363,-0.99538934,10.055647,1.0055647
172,1436622554383,-0.97503865,10.118495,0.9379285
173,1436622554403,-0.97144735,10.163984,0.90381116
174,1436622554423,-0.9828198,10.213664,0.95109665
175,1436622554443,-0.98700964,10.218452,1.0145429
176,1436622554464,-0.95947635,10.161591,1.067814
177,1436622554484,-0.9720459,10.108918,1.0432734
178,1436622554504,-1.0672154,10.152014,0.99419224
179,1436622554522,-1.0887632,10.159795,0.9696517
180,1436622554549,-1.0342951,10.114903,0.9947908
181,1436622554622,-0.98222125,10.123882,1.0348936
182,1436622554623,-1.0115502,10.140042,1.0175357
183,1436622554624,-1.0809821,10.110714,1.0235212
184,1436622554625,-1.1073183,10.113707,0.9540894
185,1436622554642,-1.1318588,10.108918,0.97384155
186,1436622554662,-1.1348516,10.098145,0.9708488
187,1436622554681,-1.1204864,10.101137,1.002572
188,1436622554701,-1.1067197,10.126875,0.9995792
189,1436622554722,-1.0498575,10.139444,0.99299514
190,1436622554742,-1.027711,10.177752,0.9900024
191,1436622554762,-1.0079589,10.183737,0.985214
192,1436622554781,-0.9888053,10.140641,1.0109516
193,1436622554804,-0.99299514,10.102334,0.96905315
194,1436622554831,-1.0462662,10.075399,0.9828198
195,1436622554843,-1.1139023,10.061034,0.97503865
196,1436622554863,-1.1414356,10.056845,0.99179804
197,1436622554883,-1.1558008,10.079589,0.99778354
198,1436622554903,-1.1270704,10.079589,1.0031705
199,1436622554923,-1.1031284,10.09575,1.0085574
200,1436622554943,-1.0672154,10.14543,0.9696517
201,1436622554963,-1.1145009,10.163386,0.9660604
202,1436622554983,-1.0833763,10.093356,1.0390835
203,1436622555004,-1.0414777,10.075399,1.0702082
204,1436622555022,-1.0899603,10.044274,1.0097545
205,1436622555044,-1.1719618,10.064027,1.050456
206,1436622555062,-1.1426327,10.061633,1.0366893
207,1436622555082,-1.0726024,10.119692,0.96785605
208,1436622555101,-1.1013328,10.140042,0.99419224
209,1436622555124,-1.1246762,10.15381,1.0283096
210,1436622555144,-1.1025299,10.171167,1.0498575
211,1436622555164,-1.0839748,10.12448,1.0582372
212,1436622555184,-1.13964,10.101735,1.0199299
213,1436622555202,-1.2258313,10.099341,1.0127473
214,1436622555222,-1.2066777,10.096947,1.0043676
215,1436622555242,-1.1025299,10.110714,1.0013748
216,1436622555263,-1.033098,10.156802,1.0193313
217,1436622555286,-1.0247183,10.164583,1.0594343
218,1436622555404,-0.9959879,10.150817,1.0977415
219,1436622555405,-0.96067345,10.084377,1.0749966
220,1436622555406,-0.99538934,10.0508585,1.0618285
221,1436622555407,-1.0636241,10.059238,1.027711
222,1436622555408,-1.0708067,10.103531,1.0049661
223,1436622555409,-1.0414777,10.122087,0.99778354
224,1436622555426,-0.9876082,10.128671,1.0462662
225,1436622555460,-0.99299514,10.078991,1.0648212
226,1436622555461,-1.0313023,10.043077,1.0636241
227,1436622555481,-1.0672154,10.045472,1.0073603
228,1436622555505,-1.086369,10.073604,0.97503865
229,1436622555522,-1.0702082,10.117896,0.97982705
230,1436622555542,-1.0199299,10.129269,1.0175357
231,1436622555563,-1.0145429,10.143634,1.0552444
232,1436622555582,-1.0510546,10.120889,1.0618285
233,1436622555604,-1.0420763,10.081385,1.0546459
234,1436622555624,-1.0414777,10.123882,1.0336965
235,1436622555644,-1.115698,10.188525,0.9804256
236,1436622555664,-1.1180922,10.104729,1.0654198
237,1436622555684,-1.0103531,10.075399,1.0749966
238,1436622555704,-1.0061632,10.053851,1.0205284
239,1436622555724,-1.0588357,10.05864,1.021127
240,1436622555746,-1.0193313,10.102933,1.0301052
241,1436622555765,-0.90500826,10.133459,0.9959879
242,1436622555784,-0.87567925,10.152613,0.9840169
243,1436622555802,-0.92895025,10.181343,1.0109516
244,1436622555823,-0.9708488,10.156802,0.96785605
245,1436622555845,-0.98222125,10.095152,0.9959879
246,1436622555861,-1.0426749,10.115502,0.98581254
247,1436622555882,-1.0869676,10.115502,0.99179804
248,1436622555903,-1.0444705,10.077195,1.0109516
249,1436622555926,-0.98461545,10.077195,1.0444705
250,1436622555946,-0.9995792,10.055049,1.0217255
251,1436622555966,-1.0510546,10.116699,0.9959879
252,1436622555984,-1.0905589,10.16578,0.96546185
253,1436622556001,-1.0235212,10.166978,0.9708488
254,1436622556021,-0.96426475,10.190321,0.99898064
255,1436622556042,-0.9475053,10.168175,1.0468647
256,1436622556064,-0.91099375,10.126276,1.0576386
257,1436622556081,-0.93972415,10.098145,1.0175357
258,1436622556135,-0.92176765,10.094553,0.9720459
259,1436622556136,-0.9343372,10.149021,0.9391256
260,1436622556142,-0.8810662,10.221446,0.94211835
261,1436622556161,-0.8475474,10.2178545,1.0079589
262,1436622556183,-0.81343,10.191518,1.0420763
263,1436622556201,-0.8391677,10.123283,1.0372878
264,1436622556222,-0.90021986,10.09156,1.0109516
265,1436622556246,-0.9959879,10.070012,0.96306765
266,1436622556262,-1.0648212,10.103531,0.9331401
267,1436622556282,-1.009156,10.099341,0.94810385
268,1436622556303,-0.91697925,10.143036,0.9840169
269,1436622556322,-0.90500826,10.230424,0.9816227
270,1436622556345,-0.88765025,10.201694,1.0528502
271,1436622556365,-0.8242039,10.131663,1.0827777
272,1436622556385,-0.79607207,10.098145,1.0043676
273,1436622556405,-0.8643068,10.068815,0.92895025
274,1436622556425,-0.93972415,10.075998,0.9540894
275,1436622556445,-0.87328506,10.114903,0.94092125
276,1436622556465,-0.8146271,10.184336,0.9540894
277,1436622556485,-0.82599956,10.216658,1.0301052
278,1436622556505,-0.86610246,10.2178545,1.0546459
279,1436622556524,-0.8750807,10.143036,1.0408791
280,1436622556544,-0.90620536,10.1143055,0.9959879
281,1436622556565,-0.9600749,10.164583,0.96306765
282,1436622556585,-0.9636662,10.136452,0.95468795
283,1436622556605,-0.85293436,10.105327,0.9516952
284,1436622556625,-0.74878657,10.13286,1.002572
285,1436622556644,-0.7505822,10.171167,0.9828198
286,1436622556665,-0.7757214,10.202292,0.9792285
287,1436622556685,-0.748188,10.205883,0.9660604
288,1436622556705,-0.7380127,10.192716,0.9672575
289,1436622556725,-0.7781156,10.158598,0.9816227
290,1436622556745,-0.8535329,10.157401,0.97982705
291,1436622556763,-0.92655605,10.136452,0.9708488
292,1436622556784,-0.97144735,10.123283,0.9624691
293,1436622556803,-0.96187055,10.096947,0.9696517
294,1436622556822,-0.9576807,10.129269,0.98222125
295,1436622556878,-0.9516952,10.157999,0.9780314
296,1436622556891,-0.92655605,10.1382475,1.0079589
297,1436622556892,-0.92535895,10.111312,0.98820674
298,1436622556931,-0.94690675,10.093954,0.9983821
299,1436622556932,-1.003769,10.072407,0.97264445
300,1436622556943,-1.0606314,10.101137,0.99898064
301,1436622556979,-1.0737995,10.120889,1.0163386
302,1436622556994,-1.0145429,10.114903,1.0079589
303,1436622557003,-0.97025025,10.147824,0.98820674
304,1436622557023,-0.98461545,10.147824,0.99898064
305,1436622557044,-0.9564836,10.122087,1.0552444
306,1436622557066,-0.88765025,10.085575,1.0414777
307,1436622557085,-0.90141696,10.09994,0.96187055
308,1436622557105,-0.97862995,10.079589,0.96905315
309,1436622557126,-0.96067345,10.081385,0.9744401
310,1436622557146,-0.90500826,10.077195,0.9391256
311,1436622557166,-0.89543146,10.137649,0.96426475
312,1436622557186,-0.94092125,10.156203,0.9935937
313,1436622557206,-0.95229375,10.170568,0.98581254
314,1436622557225,-0.9008184,10.089765,0.99538934
315,1436622557245,-0.92535895,10.064027,1.0103531
316,1436622557264,-0.9923966,10.061633,0.9828198
317,1436622557286,-1.0259154,10.060435,0.99060094
318,1436622557307,-0.9720459,10.08318,0.95229375
319,1436622557322,-0.90620536,10.105327,0.95588505
320,1436622557343,-0.90979666,10.14543,0.98341835
321,1436622557364,-0.92057055,10.169372,0.9900024
322,1436622557457,-0.9068039,10.157401,0.99658644
323,1436622557458,-0.8900445,10.142437,1.0139444
324,1436622557459,-0.90261406,10.12448,1.0121487
325,1436622557469,-0.96187055,10.163386,0.97623575
326,1436622557470,-0.98222125,10.173561,0.9588778
327,1436622557483,-0.9564836,10.189124,0.9792285
328,1436622557503,-0.90381116,10.183737,1.0007763
329,1436622557523,-0.86490536,10.164583,1.033098
330,1436622557543,-0.84575176,10.117298,1.0133458
331,1436622557576,-0.8834604,10.081385,0.99419224
332,1436622557586,-0.9600749,10.126875,0.91937345
333,1436622557603,-1.0301052,10.19451,0.8738836
334,1436622557623,-1.0289081,10.198701,0.92775315
335,1436622557644,-0.95349085,10.188525,1.0360907
336,1436622557663,-0.9103952,10.125677,1.0570401
337,1436622557683,-0.86969376,10.080787,1.0061632
338,1436622557703,-0.8900445,10.135254,0.97862995
339,1436622557726,-0.97862995,10.129269,0.98461545
340,1436622557743,-0.9696517,10.095152,0.9792285
341,1436622557763,-0.9379285,10.16578,0.973243
342,1436622557783,-0.94092125,10.162787,0.9923966
343,1436622557804,-0.91219085,10.101137,1.074398
344,1436622557824,-0.8738836,10.067618,1.0313023
345,1436622557843,-0.8499416,10.032902,0.9343372
346,1436622557863,-0.9175778,10.086173,0.9020155
347,1436622557883,-0.9792285,10.119094,0.9103952
348,1436622557903,-0.97623575,10.171167,0.9487024
349,1436622557923,-0.88525605,10.128671,1.0097545
350,1436622557943,-0.8631097,10.151415,1.0265139
351,1436622557963,-0.91099375,10.12448,1.0073603
352,1436622557985,-0.94930094,10.101735,0.97144735
353,1436622558003,-0.9175778,10.122087,0.91578215
354,1436622558025,-0.91937345,10.111911,0.89184016
355,1436622558043,-0.94211835,10.132261,0.92176765
356,1436622558063,-0.91697925,10.171167,0.92655605
357,1436622558083,-0.87687635,10.141838,0.9295488
358,1436622558104,-0.82240826,10.123283,0.96785605
359,1436622558124,-0.82899237,10.080188,0.9708488
360,1436622558144,-0.82719666,10.096947,0.9487024
361,1436622558163,-0.8738836,10.104729,0.90500826
362,1436622558182,-0.8900445,10.159196,0.8774749
363,1436622558203,-0.89184016,10.227431,0.8655039
364,1436622558224,-0.8571242,10.237008,0.9295488
365,1436622558243,-0.8074445,10.217256,0.9804256
366,1436622558262,-0.7787141,10.199898,1.003769
367,1436622558282,-0.81522566,10.146626,0.98700964
368,1436622558339,-0.89662856,10.098145,0.92416185
369,1436622558340,-0.92416185,10.05445,0.8912416
370,1436622558342,-0.93852705,10.068216,0.87807345
371,1436622558362,-0.9828198,10.149619,0.88405895
372,1436622558382,-0.9343372,10.16578,0.8822633
373,1436622558404,-0.8822633,10.25257,0.9127894
374,1436622558422,-0.90859956,10.247782,0.9720459
375,1436622558442,-0.88765025,10.131663,1.0354922
376,1436622558462,-0.8888474,10.119094,0.94451255
377,1436622558482,-0.95947635,10.121488,0.8343793
378,1436622558502,-0.9959879,10.086772,0.8678981
379,1436622558522,-0.9756372,10.111312,0.89064306
380,1436622558542,-0.8571242,10.156203,0.92296475
381,1436622558562,-0.81043726,10.196905,0.9498995
382,1436622558582,-0.82779527,10.228029,0.9995792
383,1436622558602,-0.8882488,10.226832,1.0007763
384,1436622558622,-0.92655605,10.189124,0.9576807
385,1436622558642,-0.96665895,10.171167,0.9451111
386,1436622558663,-1.039682,10.168175,0.95947635
387,1436622558686,-1.043872,10.160394,0.9672575
388,1436622558704,-0.98940384,10.19092,0.96665895
389,1436622558724,-0.91817635,10.185533,0.9888053
390,1436622558743,-0.8882488,10.200497,1.0031705
391,1436622558764,-0.88286185,10.17835,1.0043676
392,1436622558784,-0.88944596,10.149021,0.9923966
393,1436622558806,-0.91219085,10.131064,0.96546185
394,1436622558824,-0.90979666,10.149021,0.97623575
395,1436622558844,-0.8996213,10.13286,0.98222125
396,1436622558864,-0.90740246,10.134057,1.0061632
397,1436622558884,-0.91219085,10.127473,0.98341835
398,1436622558909,-0.9487024,10.131064,1.003769
399,1436622559031,-0.9636662,10.117896,0.9720459
400,1436622559032,-0.95229375,10.128072,0.98581254
401,1436622559033,-0.9247604,10.105926,1.0085574
402,1436622559034,-0.8996213,10.073005,1.0133458
403,1436622559035,-0.9271546,10.055049,0.9983821
404,1436622559036,-0.95468795,10.05445,0.98102415
405,1436622559045,-0.9995792,10.085575,0.99299514
