id,attr_time,attr_x,attr_y,attr_z
1,1436986568514,-5.282806,7.9822683,-0.039504327
2,1436986568536,-5.329493,7.9930425,-0.01436521
3,1436986568556,-5.3743844,7.943961,-0.050876785
4,1436986568576,-5.3863554,7.929596,-0.017956512
5,1436986568596,-5.3737855,7.9331875,-0.04070143
6,1436986568615,-5.374983,7.941567,-0.03172317
7,1436986568637,-5.3899465,7.9475527,-0.054468088
8,1436986568655,-5.41748,7.9511437,-0.061650693
9,1436986568676,-5.381567,7.955932,-0.05925649
10,1436986568694,-5.361216,7.961918,-0.0712275
11,1436986568716,-5.369596,7.9475527,-0.075417355
12,1436986568739,-5.3887496,7.94037,-0.05686229
13,1436986568759,-5.425261,7.8966756,-0.05686229
14,1436986568779,-5.418677,7.892486,-0.035314474
15,1436986568796,-5.4138885,7.9212165,-0.0688333
16,1436986568813,-5.394735,7.955932,-0.076614454
17,1436986568834,-5.358822,7.9445596,-0.08738836
18,1436986568854,-5.363012,7.9511437,-0.06464344
19,1436986568875,-5.3941364,7.953538,-0.073023155
20,1436986568897,-5.403713,7.9451585,-0.11671733
21,1436986568963,-5.363012,7.941567,-0.074220255
22,1436986568964,-5.337274,7.9074497,-0.10354923
23,1436986568965,-5.3725886,7.9367785,-0.08319851
24,1436986568974,-5.373187,7.9732904,-0.0796072
25,1436986568997,-5.325303,7.9565306,-0.090381116
26,1436986569014,-5.3516393,7.9433627,-0.089184016
27,1436986569034,-5.425261,7.989451,-0.074220255
28,1436986569056,-5.4324436,7.939771,-0.10594343
29,1436986569075,-5.3540335,7.9553337,-0.09756372
30,1436986569096,-5.3223104,7.9673047,-0.089782566
31,1436986569114,-5.3540335,8.006809,-0.107140526
32,1436986569135,-5.337274,7.9691005,-0.11252748
33,1436986569155,-5.3384714,7.925406,-0.10235212
34,1436986569177,-5.342661,7.926005,-0.079008654
35,1436986569197,-5.361216,7.979874,-0.08080431
36,1436986569217,-5.282806,8.00621,-0.1400608
37,1436986569235,-5.276222,8.005612,-0.11911154
38,1436986569256,-5.3007627,7.9870567,-0.09995792
39,1436986569277,-5.358822,7.958925,-0.11432313
40,1436986569297,-5.3725886,7.94037,-0.13227965
41,1436986569317,-5.365406,7.8847046,-0.10115502
42,1436986569336,-5.3857565,7.9301944,-0.093972415
43,1436986569355,-5.407903,7.923012,-0.12569559
44,1436986569377,-5.4264584,7.9409685,-0.130484
45,1436986569395,-5.4102974,7.9313917,-0.142455
46,1436986569415,-5.4049106,7.908048,-0.15981296
47,1436986569436,-5.391144,7.905654,-0.16819267
48,1436986569456,-5.4144874,7.9194207,-0.16998832
49,1436986569477,-5.4025164,7.9505453,-0.19692309
50,1436986569496,-5.3642087,7.9445596,-0.21068975
51,1436986569517,-5.324106,7.949348,-0.2184709
52,1436986569537,-5.358822,7.9631147,-0.20410569
53,1436986569556,-5.3821654,7.9529395,-0.21428105
54,1436986569576,-5.365406,7.965509,-0.2160767
55,1436986569597,-5.337274,7.949947,-0.24720132
56,1436986569627,-5.3061495,7.94037,-0.2220622
57,1436986569743,-5.3594203,7.964312,-0.17836803
58,1436986569744,-5.3803697,7.9786773,-0.23642741
59,1436986569745,-5.370793,7.98586,-0.26515785
60,1436986569746,-5.336077,7.933786,-0.2220622
61,1436986569747,-5.41329,7.878121,-0.22804771
62,1436986569763,-5.4743423,7.878121,-0.25378537
63,1436986569764,-5.479729,7.8930845,-0.24540567
64,1436986569776,-5.4114943,7.9355817,-0.2765303
65,1436986569820,-5.351041,7.9756846,-0.25617957
66,1436986569821,-5.341464,7.994838,-0.28431144
67,1436986569988,-5.3540335,7.946954,-0.27114335
68,1436986569989,-5.327099,7.9278,-0.2861071
69,1436986569990,-5.382764,7.921815,-0.31184477
70,1436986569991,-5.3881507,7.9451585,-0.3609259
71,1436986569992,-5.3324857,7.9427643,-0.36272156
72,1436986569993,-5.3660045,7.988254,-0.39205053
73,1436986569994,-5.370793,7.9852614,-0.3788824
74,1436986569995,-5.4138885,7.9786773,-0.34596214
75,1436986569998,-5.4085016,7.9541364,-0.3633201
76,1436986570015,-5.4085016,7.9385743,-0.3854665
77,1436986570036,-5.4701524,7.9248075,-0.374094
78,1436986570059,-5.3701944,7.958925,-0.44891283
79,1436986570076,-5.3857565,7.9475527,-0.41958386
80,1436986570097,-5.4162827,7.9463553,-0.43394905
81,1436986570118,-5.3881507,7.968502,-0.45010993
82,1436986570136,-5.3318872,7.9691005,-0.4213795
83,1436986570155,-5.319318,7.9990277,-0.4429273
84,1436986570175,-5.34326,8.002619,-0.44472298
85,1436986570195,-5.329493,7.9846625,-0.45130703
86,1436986570215,-5.3540335,7.9661074,-0.4794389
87,1436986570235,-5.391742,7.98586,-0.46686932
88,1436986570255,-5.385158,7.9726915,-0.48123455
89,1436986570275,-5.358822,7.997831,-0.48961425
90,1436986570296,-5.3444567,8.033145,-0.43993455
91,1436986570315,-5.3300915,8.010401,-0.46208093
92,1436986570335,-5.3522377,8.001422,-0.46028528
93,1436986570357,-5.4102974,8.000824,-0.45908818
94,1436986570377,-5.429451,7.9074497,-0.4261679
95,1436986570399,-5.4258595,7.8853035,-0.3866636
96,1436986570465,-5.4462104,7.924209,-0.39504328
97,1436986570466,-5.480926,7.9206176,-0.40043023
98,1436986570467,-5.5204306,7.8757267,-0.30107087
99,1436986570475,-5.579687,7.939771,-0.29508537
100,1436986570504,-5.542577,7.860164,-0.4141969
101,1436986570516,-5.601235,7.653664,-0.32680854
102,1436986570536,-5.7484784,7.6309195,-0.17956513
103,1436986570556,-5.8346696,7.703344,-0.24241292
104,1436986570576,-5.746084,7.7207017,-0.29568392
105,1436986570597,-5.6030307,7.7614036,-0.30166942
106,1436986570617,-5.590461,7.839813,-0.30286652
107,1436986570638,-5.5862713,7.7919292,-0.2633622
108,1436986570656,-5.6497173,7.756615,-0.24241292
109,1436986570692,-5.7149596,7.7374616,-0.22505496
110,1436986570695,-5.655703,7.7332716,-0.23044191
111,1436986570716,-5.6407394,7.815273,-0.27353755
112,1436986570764,-5.5880666,7.8009076,-0.2837129
113,1436986570765,-5.6018333,7.7889366,-0.22445641
114,1436986570775,-5.675455,7.7727757,-0.22385786
115,1436986570795,-5.677251,7.771579,-0.22445641
116,1436986570816,-5.6335564,7.7703815,-0.24181437
117,1436986570839,-5.583877,7.7733746,-0.24540567
118,1436986570856,-5.616797,7.796119,-0.21188685
119,1436986570878,-5.6443305,7.8146744,-0.19153613
120,1436986570901,-5.6138043,7.828441,-0.25737667
121,1436986570918,-5.581483,7.8170686,-0.2633622
122,1436986570936,-5.6000376,7.811083,-0.22146365
123,1436986570958,-5.5743003,7.7847466,-0.19572599
124,1436986570978,-5.553351,7.8356237,-0.24061728
125,1436986571002,-5.5270147,7.824251,-0.2717419
126,1436986571018,-5.581483,7.8236527,-0.17537527
127,1436986571038,-5.609016,7.8086886,-0.21428105
128,1436986571056,-5.557541,7.8116817,-0.23523031
129,1436986571077,-5.5563436,7.828441,-0.21787235
130,1436986571109,-5.5659204,7.821857,-0.2100912
131,1436986571167,-5.5886655,7.792528,-0.2088941
132,1436986571168,-5.6281695,7.788338,-0.18076223
133,1436986571196,-5.649119,7.8266454,-0.18315643
134,1436986571197,-5.5587378,7.819463,-0.2100912
135,1436986571198,-5.519832,7.7811556,-0.2136825
136,1436986571217,-5.5725045,7.7949224,-0.18076223
137,1436986571237,-5.6227827,7.817667,-0.17118542
138,1436986571256,-5.6221843,7.8092875,-0.18016368
139,1436986571282,-5.5946507,7.7733746,-0.16699557
140,1436986571296,-5.6120086,7.762002,-0.1328782
141,1436986571317,-5.6724625,7.7626004,-0.16699557
142,1436986571337,-5.66528,7.748235,-0.16759412
143,1436986571357,-5.616797,7.81647,-0.18914193
144,1436986571377,-5.5629277,7.81647,-0.1921347
145,1436986571398,-5.54138,7.8452005,-0.17298107
146,1436986571418,-5.517438,7.8571715,-0.18076223
147,1436986571439,-5.5168395,7.828441,-0.16759412
148,1436986571459,-5.5060654,7.8793178,-0.19931729
149,1436986571479,-5.513248,7.849989,-0.20709845
150,1436986571499,-5.4791307,7.8529816,-0.22924481
151,1436986571517,-5.466561,7.8547773,-0.22744916
152,1436986571537,-5.486912,7.8517847,-0.21068975
153,1436986571559,-5.501277,7.827842,-0.22984336
154,1436986571577,-5.5288105,7.8326306,-0.18435353
155,1436986571597,-5.5587378,7.849989,-0.21308395
156,1436986571617,-5.547964,7.8116817,-0.23582886
157,1436986571637,-5.5748987,7.838018,-0.23104046
158,1436986571660,-5.567716,7.8308353,-0.2208651
159,1436986571679,-5.559336,7.8344264,-0.21787235
160,1436986571697,-5.531803,7.865551,-0.24121583
161,1436986571720,-5.4881086,7.8595657,-0.27593175
162,1436986571737,-5.475539,7.865551,-0.22565351
163,1436986571757,-5.507262,7.880515,-0.260968
164,1436986571792,-5.5102553,7.876325,-0.260968
165,1436986571796,-5.5246205,7.875128,-0.272939
166,1436986571817,-5.506664,7.845799,-0.29628247
167,1436986571837,-5.547964,7.813477,-0.29927522
168,1436986571856,-5.585074,7.845799,-0.2669535
169,1436986571876,-5.5629277,7.8170686,-0.24241292
170,1436986571929,-5.543774,7.841609,-0.2908955
171,1436986571930,-5.525219,7.8757267,-0.3226187
172,1436986571942,-5.457583,7.8517847,-0.30645782
173,1436986571958,-5.486912,7.8446016,-0.29927522
174,1436986571977,-5.544971,7.848193,-0.29149407
175,1436986571997,-5.555745,7.884106,-0.28670564
176,1436986572018,-5.4940944,7.891887,-0.3250129
177,1436986572038,-5.473145,7.8368206,-0.29747957
178,1436986572062,-5.5377884,7.8092875,-0.29388827
179,1436986572077,-5.6179943,7.8326306,-0.2717419
180,1436986572100,-5.5826797,7.832032,-0.26276365
181,1436986572119,-5.4527946,7.9104424,-0.33159694
182,1436986572138,-5.433042,7.928399,-0.3453636
183,1436986572159,-5.5138464,7.920019,-0.2837129
184,1436986572179,-5.4922986,7.860164,-0.27473465
185,1436986572199,-5.539584,7.85358,-0.29029694
186,1436986572219,-5.5300074,7.8691425,-0.35434186
187,1436986572238,-5.483919,7.8188643,-0.33758244
188,1436986572260,-5.5138464,7.854179,-0.29149407
189,1436986572280,-5.561132,7.8865004,-0.31543607
190,1436986572301,-5.557541,7.8493905,-0.30346507
191,1436986572318,-5.5497594,7.820061,-0.3274071
192,1436986572340,-5.547365,7.821857,-0.29508537
193,1436986572358,-5.595249,7.81228,-0.30286652
194,1436986572378,-5.579687,7.829638,-0.30885202
195,1436986572396,-5.554548,7.803302,-0.31184477
196,1436986572417,-5.592855,7.8356237,-0.29867667
197,1436986572436,-5.604826,7.852383,-0.27832595
198,1436986572458,-5.5102553,7.839215,-0.3393781
199,1436986572480,-5.54138,7.8715367,-0.30346507
200,1436986572498,-5.513248,7.85777,-0.30585927
201,1436986572520,-5.5180364,7.855974,-0.27712885
202,1436986572539,-5.5264163,7.879916,-0.30825347
203,1436986572557,-5.535394,7.8589673,-0.2705448
204,1436986572577,-5.5102553,7.8787193,-0.25318682
205,1436986572597,-5.511452,7.831434,-0.28491
206,1436986572620,-5.5485625,7.876325,-0.27353755
207,1436986572637,-5.519832,7.8493905,-0.2777274
208,1436986572670,-5.524022,7.838018,-0.29029694
209,1436986572681,-5.5000796,7.81647,-0.25857377
210,1436986572699,-5.5461683,7.8027034,-0.25498247
211,1436986572716,-5.5707088,7.8649526,-0.21667525
212,1436986572738,-5.565322,7.8691425,-0.29328972
213,1436986572757,-5.48332,7.8326306,-0.24420857
214,1436986572778,-5.5204306,7.8158712,-0.22026655
215,1436986572797,-5.5760956,7.86196,-0.25139117
216,1436986572818,-5.5521536,7.8649526,-0.27234045
217,1436986572841,-5.5467668,7.81228,-0.23702596
218,1436986572860,-5.5910597,7.7727757,-0.24899697
219,1436986572880,-5.6724625,7.7626004,-0.2148796
220,1436986572900,-5.6790466,7.7799582,-0.21068975
221,1436986572920,-5.6700683,7.7703815,-0.2136825
222,1436986572942,-5.619191,7.8116817,-0.25258827
223,1436986572960,-5.573103,7.804499,-0.29867667
224,1436986572981,-5.5737014,7.7787614,-0.2896984
225,1436986573002,-5.6096144,7.7727757,-0.19812019
226,1436986573022,-5.6569,7.780557,-0.23343466
227,1436986573040,-5.626374,7.789535,-0.26276365
228,1436986573061,-5.559935,7.8290396,-0.23702596
229,1436986573082,-5.504868,7.876325,-0.27234045
230,1436986573103,-5.554548,7.8733325,-0.27952304
231,1436986573122,-5.609016,7.804499,-0.26396075
232,1436986573141,-5.6305637,7.7865424,-0.2645593
233,1436986573158,-5.604826,7.785944,-0.23343466
234,1436986573180,-5.575497,7.828441,-0.29328972
235,1436986573199,-5.5282116,7.835025,-0.24779987
236,1436986573223,-5.571906,7.827842,-0.2741361
237,1436986573243,-5.61979,7.7949224,-0.24899697
238,1436986573261,-5.631761,7.80809,-0.26874915
239,1436986573281,-5.6084175,7.797915,-0.28909984
240,1436986573303,-5.547964,7.828441,-0.26515785
241,1436986573362,-5.579687,7.8446016,-0.25617957
242,1436986573386,-5.6120086,7.8128786,-0.28191724
243,1436986573387,-5.583278,7.7757688,-0.26994625
244,1436986573388,-5.6150017,7.755418,-0.30346507
245,1436986573398,-5.631162,7.7799582,-0.26156655
246,1436986573421,-5.66109,7.8050976,-0.29807812
247,1436986573441,-5.6736593,7.801506,-0.29508537
248,1436986573458,-5.6323595,7.7877398,-0.31423897
249,1436986573478,-5.585074,7.780557,-0.34715924
250,1436986573500,-5.6006365,7.7464395,-0.29209262
251,1436986573521,-5.645528,7.805696,-0.31603462
252,1436986573540,-5.617396,7.8086886,-0.34715924
253,1436986573559,-5.635352,7.7847466,-0.3393781
254,1436986573581,-5.6886234,7.767389,-0.29149407
255,1436986573601,-5.7227407,7.727286,-0.32800564
256,1436986573622,-5.7107697,7.741651,-0.34237084
257,1436986573641,-5.7424927,7.731476,-0.37948096
258,1436986573661,-5.7125654,7.6907744,-0.29149407
259,1436986573681,-5.801749,7.7230964,-0.3345897
260,1436986573702,-5.7879825,7.7823524,-0.40462008
261,1436986573722,-5.689222,7.6841903,-0.3752911
262,1436986573742,-5.6982,7.6853876,-0.3752911
263,1436986573762,-5.798158,7.633912,-0.38067806
264,1436986573781,-5.8119245,7.615956,-0.30047232
265,1436986573802,-5.8185086,7.719505,-0.3196259
266,1436986573822,-5.752668,7.77936,-0.30286652
267,1436986573841,-5.7377043,7.627927,-0.3184288
268,1436986573859,-5.7879825,7.6440873,-0.39025488
269,1436986573881,-5.8107276,7.699154,-0.30166942
270,1436986573902,-5.889736,7.575254,-0.22266077
271,1436986573922,-5.955577,7.551312,-0.28311434
272,1436986573943,-6.075287,7.5950065,-0.28550854
273,1436986573961,-6.0477533,7.5800424,-0.2789245
274,1436986573979,-5.920861,7.557896,-0.3321955
275,1436986573998,-5.8681884,7.5830355,-0.23523031
276,1436986574020,-5.7658362,7.654263,-0.28909984
277,1436986574042,-5.713164,7.7039423,-0.17357962
278,1436986574059,-5.707777,7.8487916,-0.005985504
279,1436986574116,-5.761048,7.900267,0.06284779
280,1436986574118,-5.7442884,7.8248496,-0.12030864
281,1436986574119,-5.717354,7.643489,-0.12629414
282,1436986574139,-5.7664347,7.551312,-0.09995792
283,1436986574165,-5.832874,7.4561424,0.006584055
284,1436986574181,-5.893926,7.465121,-0.15741876
285,1436986574199,-5.8484364,7.6249337,-0.2861071
286,1436986574221,-5.8280854,7.5866265,-0.4249708
287,1436986574239,-5.8945246,7.475895,-0.545878
288,1436986574261,-6.2129536,7.3226657,-0.4914099
289,1436986574282,-6.2847795,7.2753806,-0.45429978
290,1436986574299,-6.256049,7.157466,-0.7032967
291,1436986574319,-6.2769985,7.117363,-0.8242039
292,1436986574342,-6.297349,7.2550297,-0.7338228
293,1436986574362,-6.0585275,7.2885485,-0.89184016
294,1436986574383,-5.907094,7.3950906,-1.0827777
295,1436986574402,-5.847239,7.347805,-0.8062474
296,1436986574422,-5.333683,7.2909427,-0.30107087
297,1436986574442,-4.871003,7.586028,0.074220255
298,1436986574462,-4.5645456,8.502409,0.59017074
299,1436986574482,-4.4777555,8.896255,0.8948329
300,1436986574503,-4.395156,8.605958,1.2252327
301,1436986574520,-4.421492,9.008782,2.1410148
302,1436986574542,-5.003283,9.523536,2.260725
303,1436986574563,-5.543774,9.413403,2.2840683
304,1436986574582,-5.903503,8.959103,2.695871
305,1436986574602,-5.961562,8.962095,3.0777464
306,1436986574622,-6.3338604,8.857349,2.6677392
307,1436986574643,-6.4631476,8.066066,1.7794905
308,1436986574662,-6.5140243,7.4148426,1.7501614
309,1436986574683,-5.731719,7.503428,1.2976574
310,1436986574702,-4.8297033,7.341221,0.9648633
311,1436986574723,-4.5232453,6.905476,1.1432313
312,1436986574743,-4.817134,6.8222775,1.4083891
313,1436986574762,-4.968567,7.1688385,1.7657237
314,1436986574782,-4.9536033,7.41185,1.7603368
315,1436986574859,-4.9182887,7.3579803,0.75357497
316,1436986574860,-4.9057193,6.867768,0.12988544
317,1436986574861,-5.0308166,6.2225304,0.3693056
318,1436986574862,-5.1942205,5.9160724,1.0390835
319,1436986574883,-5.770026,6.1195793,1.7723078
320,1436986574907,-6.4840965,6.8043213,2.119467
321,1436986574922,-7.0066314,7.1006036,1.7435774
322,1436986574942,-6.075287,7.2221093,0.7194576
323,1436986574962,-6.3165026,6.9587474,1.3138182
324,1436986574980,-6.651691,7.0012445,1.7130513
325,1436986575003,-6.9743094,6.8103065,1.2755109
326,1436986575020,-6.7468605,6.582259,1.0151415
327,1436986575044,-6.915053,6.2674217,1.0749966
328,1436986575063,-6.8504095,6.000468,1.3563153
329,1436986575083,-6.6684504,5.798158,1.6238673
330,1436986575101,-6.7480574,5.990891,1.8004397
331,1436986575123,-7.056311,6.2584434,1.5915456
332,1436986575143,-6.917447,6.4709287,0.66498953
333,1436986575163,-6.872556,6.3769565,0.44711718
334,1436986575183,-7.1706343,6.1686606,1.1133038
335,1436986575203,-7.855376,7.145495,1.3066356
336,1436986575222,-8.322245,8.752005,1.5616181
337,1436986575244,-7.113772,10.1065235,2.5971103
338,1436986575259,-6.187216,11.821371,1.1815386
339,1436986575283,-4.619612,12.307992,-0.9415198
340,1436986575304,-3.767875,9.648034,-1.0486604
341,1436986575323,-3.1411927,7.1245456,-0.9020155
342,1436986575343,-3.7672763,5.752668,-0.7673417
343,1436986575363,-5.6904187,7.3340383,-0.08678981
344,1436986575380,-6.4086795,10.004171,-0.700304
345,1436986575415,-5.603629,10.940904,-0.18734628
346,1436986575420,-5.1259856,7.6770077,1.5292963
347,1436986575452,-6.4805055,5.7945666,2.111686
348,1436986575464,-6.0291986,7.581838,-2.529474
349,1436986575480,-5.2235494,8.631696,-2.5276785
350,1436986575501,-4.7907977,8.53892,-0.35434186
351,1436986575521,-4.497508,7.8410106,1.0690111
352,1436986575578,-4.778228,7.3723454,0.92655605
353,1436986575583,-5.0960584,6.991069,0.004189853
354,1436986575584,-5.403713,7.330447,0.866701
355,1436986575600,-5.6886234,7.1861963,0.96306765
356,1436986575622,-5.4521956,6.8988924,0.009576807
357,1436986575647,-5.317522,6.6427126,-0.3728969
358,1436986575662,-5.4976854,6.721721,-0.24301147
359,1436986575683,-5.5521536,6.645107,-0.35673606
360,1436986575701,-5.910087,6.0543375,0.18914193
361,1436986575721,-6.39192,6.0411696,0.86131406
362,1436986575742,-6.4547677,7.225701,0.30466217
363,1436986575766,-6.265626,8.293514,-0.55246204
364,1436986575780,-5.080496,8.499416,-0.54049104
365,1436986575799,-3.6445735,7.2233067,0.26994625
366,1436986575819,-3.0609868,7.2831616,1.3126211
367,1436986575839,-4.19105,8.038532,1.9231426
368,1436986575859,-6.9198413,7.7847466,1.9674352
369,1436986575879,-7.1766195,5.255273,3.1465795
370,1436986575899,-9.759963,5.0236335,1.0283096
371,1436986575920,-9.649231,7.7386584,-1.472434
372,1436986575943,-8.160637,9.004593,1.0510546
373,1436986575963,-9.395446,8.418014,4.034828
374,1436986575983,-10.028113,5.5647235,1.5263035
375,1436986576003,-8.567052,4.8159366,0.98700964
376,1436986576021,-7.173627,3.3512838,1.0630256
377,1436986576040,-5.583877,1.4718355,1.1797429
378,1436986576062,-4.5358152,0.94810385,1.3634979
379,1436986576082,-5.0601454,2.3840263,0.55365914
380,1436986576103,-5.2409077,5.0080714,1.2419921
381,1436986576123,-6.0878563,6.285378,2.3732524
382,1436986576143,-5.765238,7.0688806,3.4326868
383,1436986576163,-4.095282,8.303091,1.8285716
384,1436986576183,-3.0131028,7.2191167,-0.76315176
385,1436986576202,-3.904943,5.6221843,1.0085574
386,1436986576221,-7.462128,4.8141413,3.9019501
387,1436986576242,-7.9092455,6.307524,3.1507695
388,1436986576262,-6.5122285,7.5734587,1.13964
389,1436986576309,-5.329493,7.4112515,1.9273324
390,1436986576310,-5.2085857,6.9677253,2.9299042
391,1436986576325,-5.391742,6.953959,2.9269116
392,1436986576342,-5.321113,7.0102224,3.235165
393,1436986576362,-5.2899885,7.967903,3.6290112
394,1436986576382,-6.0280013,10.053253,2.011728
395,1436986576400,-5.7023897,10.159196,0.12210429
396,1436986576425,-8.285135,7.948151,0.6386533
397,1436986576441,-6.9246297,10.833763,0.18555063
398,1436986576461,-7.771579,13.3147545,-2.1811178
399,1436986576485,-7.383718,11.545439,-2.4833858
400,1436986576505,-6.459556,6.384139,-1.5622166
401,1436986576521,-4.6016555,4.2700586,1.6729485
402,1436986576542,-6.932411,7.3226657,2.3175871
403,1436986576565,-8.554482,11.494562,-1.0618285
404,1436986576585,-6.903082,10.832565,-1.2330139
405,1436986576607,-7.1502833,6.7504516,0.22804771
406,1436986576621,-5.717354,5.843049,0.61650693
