id,attr_time,attr_x,attr_y,attr_z
1,1436375913601,0.59855044,9.576208,1.3162124
2,1436375913622,0.58298814,9.581595,1.3239936
3,1436375913641,0.58538234,9.567828,1.2922704
4,1436375913668,0.56563014,9.572617,1.3281834
5,1436375913681,0.56982,9.592968,1.3581109
6,1436375913702,0.5710171,9.594165,1.3395559
7,1436375913721,0.5847838,9.566033,1.3138182
8,1436375913743,0.59735334,9.552266,1.3192052
9,1436375913763,0.55964464,9.549872,1.2976574
10,1436375913782,0.58119243,9.528923,1.3078327
11,1436375913801,0.5770026,9.502586,1.3257892
12,1436375913821,0.57520694,9.529521,1.3060371
13,1436375913841,0.59615624,9.542689,1.2653356
14,1436375913862,0.6087258,9.516952,1.2084733
15,1436375913883,0.6368576,9.478644,1.1647792
16,1436375913903,0.6476316,9.515755,1.2360066
17,1436375913923,0.6428431,9.612122,1.2120646
18,1436375913943,0.65541273,9.632472,1.1845313
19,1436375913964,0.6434417,9.610924,1.1881226
20,1436375913981,0.6512229,9.60015,1.228824
21,1436375914001,0.6619968,9.598354,1.2078748
22,1436375914022,0.6715736,9.567828,1.1659763
23,1436375914042,0.6835446,9.540894,1.18094
24,1436375914063,0.7015011,9.5732155,1.192911
25,1436375914084,0.7326257,9.566033,1.1492168
26,1436375914101,0.7721301,9.570223,1.1001357
27,1436375914124,0.7589619,9.547478,1.146224
28,1436375914142,0.7703344,9.5732155,1.1354501
29,1436375914164,0.7745243,9.613318,1.1145009
30,1436375914182,0.7835025,9.598953,1.0941502
31,1436375914203,0.78649527,9.603143,1.1073183
32,1436375914222,0.7787141,9.6049385,1.0809821
33,1436375914242,0.76315176,9.586982,1.1168951
34,1436375914262,0.7493851,9.579201,1.1881226
35,1436375914285,0.6775591,9.623494,1.1971009
36,1436375914303,0.712275,9.68275,0.78769237
37,1436375914323,0.79966336,9.715671,1.027711
38,1436375914343,0.62847793,9.455301,1.2114661
39,1436375914363,0.57281274,9.631873,1.1510124
40,1436375914383,0.694917,9.655815,1.0115502
41,1436375914495,0.76315176,9.706693,0.9995792
42,1436375914496,0.700304,9.653421,0.9888053
43,1436375914505,0.6793547,9.613318,1.050456
44,1436375914506,0.7224504,9.588778,1.0971429
45,1436375914507,0.7781156,9.569026,1.062427
46,1436375914508,0.80564886,9.639056,0.98581254
47,1436375914617,0.78170687,9.715671,0.9163807
48,1436375914618,0.7410054,9.719262,0.93732995
49,1436375914619,0.80325466,9.647436,0.9911995
50,1436375914620,0.8050503,9.497798,1.0289081
51,1436375914621,0.6799533,9.560047,1.0761937
52,1436375914671,0.6793547,9.630077,1.0576386
53,1436375914674,0.7182605,9.660604,1.0498575
54,1436375914675,0.7092823,9.674969,0.98341835
55,1436375914683,0.7134721,9.64564,0.9768343
56,1436375914709,0.741604,9.605537,0.96187055
57,1436375914730,0.7386112,9.586982,1.0043676
58,1436375914744,0.7703344,9.600749,0.98820674
59,1436375914775,0.7727286,9.618706,1.0181342
60,1436375914799,0.724246,9.652225,1.0690111
61,1436375914803,0.7673417,9.669582,0.90261406
62,1436375914823,0.7966706,9.570822,0.98940384
63,1436375914842,0.7308301,9.615712,1.0079589
64,1436375914862,0.7410054,9.609727,0.9744401
65,1436375914882,0.75357497,9.672575,0.9475053
66,1436375914902,0.748188,9.627684,0.9504981
67,1436375914922,0.7410054,9.622296,1.0007763
68,1436375914942,0.7745243,9.601347,0.98700964
69,1436375914962,0.7823054,9.63726,0.93373865
70,1436375914982,0.76315176,9.628283,0.9211691
71,1436375915002,0.7493851,9.652225,0.94690675
72,1436375915022,0.75237787,9.645041,0.94211835
73,1436375915042,0.8050503,9.61272,0.8834604
74,1436375915062,0.74399817,9.668983,1.0079589
75,1436375915082,0.7966706,9.693524,0.9056068
76,1436375915102,0.8218097,9.578603,0.95468795
77,1436375915122,0.78649527,9.612122,0.94570965
78,1436375915143,0.8242039,9.586982,0.9187749
79,1436375915162,0.830788,9.610924,0.9660604
80,1436375915182,0.81522566,9.646837,0.95708215
81,1436375915202,0.80804306,9.651027,0.9175778
82,1436375915222,0.842759,9.64564,0.9056068
83,1436375915242,0.8182184,9.601946,0.9175778
84,1436375915262,0.8242039,9.598953,0.93254155
85,1436375915282,0.82360536,9.646238,0.9044097
86,1436375915302,0.82480246,9.643845,0.9151836
87,1436375915322,0.81402856,9.648633,0.9415198
88,1436375915342,0.7978677,9.657611,0.93493575
89,1436375915362,0.80564886,9.650429,0.9020155
90,1436375915384,0.78050977,9.609727,0.93852705
91,1436375915402,0.7697359,9.600749,0.9379285
92,1436375915422,0.75956047,9.598953,0.9331401
93,1436375915442,0.760159,9.625289,0.94211835
94,1436375915462,0.7906851,9.640253,0.9624691
95,1436375915482,0.80086046,9.64564,0.97144735
96,1436375915502,0.7930793,9.660006,0.99778354
97,1436375915522,0.78649527,9.651626,1.0007763
98,1436375915542,0.7505822,9.649231,1.021127
99,1436375915562,0.7104794,9.636662,1.0749966
100,1436375915582,0.7266402,9.634268,1.0887632
101,1436375915602,0.7469909,9.638457,1.0666169
102,1436375915622,0.7194576,9.630077,1.0749966
103,1436375915642,0.7062895,9.619304,1.0606314
104,1436375915662,0.6967127,9.60015,1.043872
105,1436375915690,0.717662,9.612122,1.0498575
106,1436375915703,0.74758947,9.646837,1.0570401
107,1436375915723,0.7398083,9.594764,1.1127052
108,1436375915742,0.7457938,9.625888,1.1450269
109,1436375915762,0.7152678,9.689933,0.8714894
110,1436375915782,0.8146271,9.644443,0.8822633
111,1436375915802,0.8062474,9.628283,1.2533646
112,1436375915822,0.700304,9.5253315,1.1875241
113,1436375915843,0.59735334,9.616311,1.210269
114,1436375915863,0.66259533,9.688137,1.2575544
115,1436375915883,0.7721301,9.775525,1.0755951
116,1436375915903,0.7679402,9.661202,0.9804256
117,1436375915923,0.7410054,9.448118,1.2497733
118,1436375915943,0.79248077,9.44333,1.2952632
119,1436375915963,0.801459,9.6049385,1.2132617
120,1436375915983,0.7679402,9.713875,1.151611
121,1436375916003,0.76434886,9.704897,1.0965444
122,1436375916023,0.700304,9.606734,1.0905589
123,1436375916043,0.7062895,9.492412,1.1264719
124,1436375916063,0.6775591,9.375694,1.3551182
125,1436375916083,0.65780693,9.4972,1.3575124
126,1436375916103,0.66738373,9.627085,1.3395559
127,1436375916123,0.7146692,9.657611,1.2737153
128,1436375916143,0.7338228,9.586982,1.2360066
129,1436375916163,0.6967127,9.555858,1.2785037
130,1436375916183,0.7134721,9.597756,1.2449849
131,1436375916203,0.7386112,9.591172,1.2306197
132,1436375916223,0.7260417,9.616311,1.2707225
133,1436375916243,0.712275,9.626487,1.2856863
134,1436375916263,0.7278373,9.5971575,1.1569979
135,1436375916283,0.78529817,9.583989,1.1875241
136,1436375916303,0.7553706,9.561843,1.1677719
137,1436375916323,0.7020996,9.595961,1.2108675
138,1436375916343,0.7074866,9.595961,1.1797429
139,1436375916364,0.7386112,9.545682,1.174356
140,1436375916383,0.7769185,9.61691,1.2084733
141,1436375916403,0.7846996,9.642648,1.158195
142,1436375916423,0.80325466,9.633669,1.1803415
143,1436375916443,0.79248077,9.585785,1.216853
144,1436375916463,0.79966336,9.584588,1.2138603
145,1436375916483,0.79966336,9.566631,1.2054806
146,1436375916503,0.8230068,9.579201,1.2024878
147,1436375916524,0.8110358,9.585187,1.2689269
148,1436375916543,0.8391677,9.568427,1.1881226
149,1436375916564,0.83497787,9.560646,1.1725603
150,1436375916584,0.81402856,9.501988,1.2419921
151,1436375916604,0.7781156,9.51336,1.1803415
152,1436375916623,0.789488,9.49301,1.1504139
153,1436375916643,0.78888947,9.490616,1.1240777
154,1436375916663,0.7721301,9.528324,1.1558008
155,1436375916683,0.7757214,9.578603,1.1899183
156,1436375916704,0.7918822,9.615712,1.1605892
157,1436375916724,0.80564886,9.585785,1.1653777
158,1436375916743,0.7787141,9.583989,1.1737574
159,1436375916764,0.8062474,9.59177,1.2006922
160,1436375916784,0.80684596,9.607333,1.1767502
161,1436375916803,0.7978677,9.600749,1.1294646
162,1436375916823,0.78290397,9.574412,1.1216835
163,1436375916843,0.8110358,9.55885,1.1055226
164,1436375916863,0.8158242,9.54209,1.1378443
165,1436375916883,0.830788,9.592369,1.1432313
166,1436375916903,0.84216046,9.598354,1.1145009
167,1436375916923,0.8367735,9.602545,1.0947487
168,1436375916943,0.82899237,9.618706,1.0672154
169,1436375916963,0.85652566,9.60015,1.0767922
170,1436375916983,0.85532856,9.600749,1.1007342
171,1436375917004,0.8415619,9.629479,1.0839748
172,1436375917024,0.84455466,9.618107,1.091756
173,1436375917051,0.86490536,9.6288805,1.0444705
174,1436375917083,0.8265981,9.610326,1.0576386
175,1436375917113,0.825401,9.604341,1.062427
176,1436375917114,0.81761986,9.624092,1.0737995
177,1436375917124,0.8242039,9.646238,1.0289081
178,1436375917149,0.82240826,9.643246,1.039682
179,1436375917164,0.8110358,9.619903,1.0690111
180,1436375917184,0.80804306,9.610326,1.0785879
181,1436375917204,0.8098387,9.560047,1.1438298
182,1436375917224,0.7787141,9.625888,1.1162965
183,1436375917244,0.79008657,9.635465,0.7505822
184,1436375917264,0.87089086,9.617508,1.2024878
185,1436375917284,0.87208796,9.526528,1.0271125
186,1436375917304,0.78769237,9.591172,1.1055226
187,1436375917324,0.80325466,9.7324295,0.93972415
188,1436375917344,0.8714894,9.750985,0.9600749
189,1436375917364,0.86131406,9.64983,0.95827925
190,1436375917384,0.777517,9.565434,1.0241197
191,1436375917404,0.74998367,9.589376,1.055843
192,1436375917424,0.7799112,9.643845,1.0791864
193,1436375917451,0.78529817,9.661801,1.0845734
194,1436375917475,0.75836337,9.665392,1.0893618
195,1436375917487,0.78050977,9.665991,1.0103531
196,1436375917505,0.7918822,9.647436,1.027711
197,1436375917528,0.7906851,9.613917,1.0324994
198,1436375917547,0.81343,9.578603,1.0199299
199,1436375917565,0.84096336,9.573814,1.0498575
200,1436375917586,0.83138657,9.590573,1.0444705
201,1436375917608,0.80684596,9.598953,1.050456
202,1436375917628,0.7918822,9.624092,1.0217255
203,1436375917649,0.79248077,9.634268,1.0151415
204,1436375917666,0.78769237,9.649231,1.0564415
205,1436375917685,0.78290397,9.6288805,1.0654198
206,1436375917707,0.7469909,9.60015,1.0654198
207,1436375917728,0.75237787,9.621099,1.0480618
208,1436375917748,0.7134721,9.586982,1.0702082
209,1436375917768,0.7224504,9.579201,1.0666169
210,1436375917789,0.729633,9.610326,1.039682
211,1436375917807,0.729633,9.598953,1.0444705
212,1436375917825,0.7320272,9.626487,1.0348936
213,1436375917874,0.7254431,9.627684,1.0319009
214,1436375917875,0.7230489,9.623494,1.0378864
215,1436375917896,0.7320272,9.616311,1.0127473
216,1436375917907,0.729633,9.629479,1.0372878
217,1436375917926,0.729633,9.640253,1.0684125
218,1436375917946,0.7248446,9.647436,1.0875661
219,1436375917967,0.7344214,9.665991,1.0528502
220,1436375917986,0.7368156,9.648034,1.0450691
221,1436375918006,0.7344214,9.634866,1.0336965
222,1436375918030,0.7110779,9.632472,1.0366893
223,1436375918047,0.7254431,9.621099,1.0414777
224,1436375918066,0.7356185,9.622895,1.0319009
225,1436375918089,0.7188591,9.637859,1.0223241
226,1436375918108,0.7410054,9.653421,1.0289081
227,1436375918129,0.7422025,9.657013,0.99658644
228,1436375918149,0.75118077,9.629479,1.0426749
229,1436375918170,0.760159,9.63726,1.0055647
230,1436375918188,0.7577648,9.648034,1.0133458
231,1436375918206,0.7787141,9.675568,1.0187328
232,1436375918227,0.8038532,9.655815,1.039682
233,1436375918247,0.82480246,9.617508,1.0348936
234,1436375918270,0.82240826,9.610326,1.0540473
235,1436375918290,0.7906851,9.613318,1.0821792
236,1436375918318,0.82779527,9.640253,1.0372878
237,1436375918326,0.8110358,9.626487,1.0354922
238,1436375918349,0.8026561,9.60853,1.0815806
239,1436375918367,0.7918822,9.60015,1.0666169
240,1436375918386,0.7858967,9.552865,1.1587936
241,1436375918410,0.7493851,9.595961,1.2785037
242,1436375918429,0.8655039,9.698313,0.60573304
243,1436375918449,0.94211835,9.521142,1.0432734
244,1436375918469,0.7966706,9.650429,1.2330139
245,1436375918487,0.7284359,9.673173,0.9379285
246,1436375918507,0.8218097,9.506777,1.1552023
247,1436375918528,0.82480246,9.611523,1.2868834
248,1436375918549,0.78529817,9.715072,1.1121067
249,1436375918570,0.8182184,9.642049,1.0061632
250,1436375918589,0.84216046,9.58818,1.0941502
251,1436375918608,0.8355764,9.514558,1.1498153
252,1436375918627,0.83497787,9.605537,1.1653777
253,1436375918647,0.82599956,9.665392,1.1869255
254,1436375918670,0.8900445,9.65821,1.1468226
255,1436375918777,0.86370826,9.630676,1.1145009
256,1436375918778,0.8511387,9.5809965,1.1186907
257,1436375918779,0.8511387,9.536105,1.1833342
258,1436375918780,0.84096336,9.565434,1.1300632
259,1436375918781,0.8463503,9.613917,1.1438298
260,1436375918792,0.8367735,9.601347,1.1348516
261,1436375918812,0.84096336,9.627085,1.1546037
262,1436375918860,0.8523358,9.5809965,1.1312603
263,1436375918861,0.8559271,9.564238,1.1653777
264,1436375918876,0.801459,9.575011,1.1887212
265,1436375918903,0.82360536,9.5798,1.158195
266,1436375918907,0.84096336,9.606734,1.1575965
267,1436375918971,0.8355764,9.587581,1.2060791
268,1436375918972,0.8218097,9.610326,1.1923125
269,1436375918973,0.83258367,9.575011,1.2384008
270,1436375918987,0.83497787,9.584588,1.2132617
271,1436375919012,0.82480246,9.583391,1.1749545
272,1436375919029,0.8170213,9.585187,1.2246342
273,1436375919067,0.8319851,9.574412,1.2120646
274,1436375919070,0.85293436,9.56304,1.2228385
275,1436375919091,0.84096336,9.566631,1.2042835
276,1436375919109,0.83138657,9.583391,1.22224
277,1436375919130,0.8379706,9.587581,1.2030864
278,1436375919147,0.8110358,9.563639,1.2120646
279,1436375919171,0.80684596,9.546281,1.2126632
280,1436375919191,0.82360536,9.535507,1.2366052
281,1436375919213,0.8487445,9.532514,1.1851299
282,1436375919228,0.8403648,9.516952,1.1839328
283,1436375919249,0.8319851,9.53012,1.1797429
284,1436375919269,0.825401,9.536105,1.1294646
285,1436375919292,0.84216046,9.540296,1.0929531
286,1436375919309,0.8355764,9.528324,1.0977415
287,1436375919331,0.8283938,9.578603,1.1258733
288,1436375919367,0.84216046,9.621099,1.1127052
289,1436375919368,0.83976626,9.624691,1.0869676
290,1436375919389,0.85532856,9.611523,1.1294646
291,1436375919408,0.85173726,9.594764,1.1384429
292,1436375919428,0.8726865,9.583989,1.122282
293,1436375919447,0.8451532,9.579201,1.1079168
294,1436375919467,0.85413146,9.57142,1.1043255
295,1436375919490,0.8774749,9.579201,1.110311
296,1436375919508,0.87687635,9.569026,1.1001357
297,1436375919527,0.87208796,9.578004,1.1007342
298,1436375919549,0.8487445,9.558251,1.0959458
299,1436375919571,0.83378077,9.570223,1.1815386
300,1436375919588,0.84096336,9.607931,0.83138657
301,1436375919609,0.91338795,9.569026,1.0139444
302,1436375919628,0.9576807,9.555259,1.0929531
303,1436375919647,0.7870938,9.474455,1.1953052
304,1436375919667,0.7392098,9.611523,1.1534066
305,1436375919687,0.8475474,9.643246,1.0414777
306,1436375919707,0.8798691,9.657611,1.0474633
307,1436375919727,0.80924016,9.654019,1.0229226
308,1436375919747,0.76075757,9.636064,1.0606314
309,1436375919769,0.7954735,9.622895,1.0749966
310,1436375919789,0.8355764,9.57142,1.0935516
311,1436375919807,0.8206126,9.597756,1.1270704
312,1436375919827,0.8218097,9.683349,1.0773908
313,1436375919849,0.8738836,9.68275,0.99778354
314,1436375919867,0.8367735,9.770737,0.9175778
315,1436375919887,0.8475474,9.642049,0.83976626
316,1436375919908,0.8499416,9.484032,1.1168951
317,1436375919927,0.8343793,9.554062,1.1528081
318,1436375919947,0.8265981,9.647436,1.1306617
319,1436375919967,0.81522566,9.712079,1.0570401
320,1436375919987,0.8331822,9.681553,0.99898064
321,1436375920007,0.82779527,9.616311,0.9959879
322,1436375920027,0.825401,9.561244,1.0319009
323,1436375920047,0.79248077,9.564238,1.0923545
324,1436375920067,0.7733272,9.6288805,1.1336545
325,1436375920087,0.79008657,9.64983,0.9804256
326,1436375920107,0.7954735,9.623494,1.0881647
327,1436375920127,0.78170687,9.662998,1.09834
328,1436375920147,0.7505822,9.628283,1.086369
329,1436375920172,0.7224504,9.634866,1.0205284
330,1436375920187,0.7733272,9.630676,1.0229226
331,1436375920207,0.7505822,9.583989,1.0857705
332,1436375920227,0.7577648,9.534309,1.1282675
333,1436375920247,0.75118077,9.586384,1.0803835
334,1436375920267,0.717662,9.605537,1.0773908
335,1436375920287,0.724246,9.634866,1.1067197
336,1436375920308,0.7110779,9.657013,1.0785879
337,1436375920328,0.6943185,9.626487,1.0779893
338,1436375920348,0.7134721,9.609129,0.997185
339,1436375920367,0.717662,9.629479,1.0923545
340,1436375920387,0.7158663,9.719262,1.0702082
341,1436375920407,0.74878657,9.64564,0.99419224
342,1436375920427,0.736217,9.558251,1.074398
343,1436375920447,0.7110779,9.599552,1.0247183
344,1436375920467,0.76554596,9.569026,1.0145429
345,1436375920487,0.7697359,9.619903,1.0552444
346,1436375920507,0.76075757,9.64564,1.0181342
347,1436375920527,0.79846627,9.627085,0.9911995
348,1436375920547,0.7954735,9.615712,1.0187328
349,1436375920567,0.78769237,9.609727,0.9911995
350,1436375920587,0.78290397,9.627684,0.95947635
351,1436375920607,0.79607207,9.609129,0.9780314
352,1436375920627,0.79966336,9.613917,0.99658644
353,1436375920647,0.79966336,9.629479,1.0139444
354,1436375920667,0.78529817,9.649231,0.9780314
355,1436375920687,0.78888947,9.6845455,1.0289081
356,1436375920707,0.8146271,9.674371,0.9911995
357,1436375920727,0.8242039,9.673173,1.0235212
358,1436375920747,0.82240826,9.655815,0.98461545
359,1436375920767,0.82779527,9.629479,0.99538934
360,1436375920787,0.8319851,9.664195,1.0259154
361,1436375920807,0.82001406,9.6767645,1.0121487
362,1436375920827,0.830788,9.639056,1.0223241
363,1436375920847,0.82360536,9.646837,1.0450691
364,1436375920867,0.82360536,9.643845,1.0175357
365,1436375920887,0.83737206,9.630676,1.0366893
366,1436375920908,0.8295909,9.614515,1.0301052
367,1436375920927,0.84814596,9.582193,1.0205284
368,1436375920947,0.82360536,9.6049385,1.0528502
369,1436375920968,0.8379706,9.615114,1.0462662
370,1436375920988,0.8499416,9.609129,1.0606314
371,1436375921008,0.85413146,9.634866,1.0600328
372,1436375921028,0.84814596,9.615114,1.1228806
373,1436375921048,0.8463503,9.566631,1.1474211
374,1436375921068,0.8098387,9.634268,1.1133038
375,1436375921088,0.85772276,9.639056,0.7858967
376,1436375921108,0.91817635,9.631873,1.0528502
377,1436375921128,0.9163807,9.509769,1.2174516
378,1436375921148,0.7505822,9.524733,1.1079168
379,1436375921168,0.7769185,9.634866,1.1504139
380,1436375921188,0.8690952,9.711481,1.0450691
381,1436375921208,0.8206126,9.627684,1.0031705
382,1436375921228,0.7799112,9.545682,1.13964
383,1436375921248,0.81522566,9.509769,1.2054806
384,1436375921268,0.7930793,9.532514,1.2575544
385,1436375921288,0.76315176,9.656414,1.246182
386,1436375921308,0.7918822,9.723452,1.1803415
387,1436375921328,0.7990648,9.73662,1.0845734
388,1436375921348,0.75836337,9.615712,1.0115502
389,1436375921368,0.7625532,9.486425,1.1671734
390,1436375921388,0.76315176,9.459491,1.3144168
391,1436375921408,0.7457938,9.640852,1.287482
392,1436375921428,0.76315176,9.674969,1.2018893
393,1436375921448,0.7858967,9.627684,1.1941081
394,1436375921468,0.7793127,9.551667,1.1994951
395,1436375921488,0.7811083,9.555259,1.2593501
396,1436375921508,0.79367787,9.576807,1.1917139
397,1436375921528,0.770933,9.61272,1.3012487
398,1436375921548,0.7224504,9.598354,1.2904748
399,1436375921568,0.78050977,9.628283,1.2958617
400,1436375921588,0.75477207,9.553463,1.1546037
401,1436375921609,0.7733272,9.496601,1.3084313
402,1436375921628,0.7068881,9.519944,1.3036429
403,1436375921648,0.7206547,9.522339,1.2174516
404,1436375921668,0.7751228,9.461287,1.1953052
405,1436375921688,0.7625532,9.486425,1.234211
406,1436375921708,0.7577648,9.527725,1.2108675
407,1436375921728,0.7613561,9.536704,1.2138603
408,1436375921748,0.7230489,9.5570545,1.2689269
409,1436375921768,0.7170634,9.593566,1.2336124
410,1436375921788,0.7086837,9.578603,1.2587515
411,1436375921808,0.705691,9.591172,1.2539631
412,1436375921828,0.7493851,9.570822,1.2024878
413,1436375921848,0.7428011,9.539697,1.2042835
414,1436375921876,0.748188,9.533113,1.2228385
415,1436375921889,0.7350199,9.595362,1.1845313
416,1436375921909,0.7206547,9.560646,1.216853
417,1436375921928,0.7128736,9.631275,1.168969
418,1436375921949,0.7254431,9.6049385,1.1109096
419,1436375921968,0.7326257,9.594165,1.168969
420,1436375921989,0.7380127,9.606135,1.1456255
421,1436375922009,0.7422025,9.657013,1.1390414
422,1436375922029,0.7272388,9.638457,1.13964
423,1436375922049,0.705691,9.630676,1.1240777
424,1436375922069,0.7314286,9.601946,1.1031284
425,1436375922089,0.7182605,9.599552,1.0803835
