id,attr_time,attr_x,attr_y,attr_z
1,1436375913607,9.844957,0.020350715,1.7896658
2,1436375913628,9.835381,0.008978256,1.7830818
3,1436375913647,9.822212,-0.020350715,1.7651252
4,1436375913668,9.809643,-0.019752163,1.780089
5,1436375913689,9.813234,-0.040102877,1.7489643
6,1436375913707,9.817424,-0.04189853,1.7615339
7,1436375913728,9.81084,-0.05865794,1.7687165
8,1436375913748,9.826403,-0.055066638,1.7705121
9,1436375913767,9.849746,-0.06584055,1.7968484
10,1436375913787,9.828198,-0.090979666,1.8136078
11,1436375913805,9.800066,-0.08499416,1.8004397
12,1436375913830,9.784504,-0.062249243,1.8004397
13,1436375913850,9.807847,-0.047884032,1.7794905
14,1436375913871,9.853935,-0.074220255,1.8148049
15,1436375913888,9.8677025,-0.078410104,1.7866731
16,1436375913906,9.846154,-0.06284779,1.8064252
17,1436375913927,9.813833,-0.05865794,1.8088194
18,1436375913947,9.807249,-0.04249708,1.804031
19,1436375913968,9.830592,-0.0664391,1.821389
20,1436375913986,9.858126,-0.077811554,1.8285716
21,1436375914059,9.888652,-0.06344634,1.7998412
22,1436375914060,9.871294,-0.08559271,1.7525556
23,1436375914061,9.765948,-0.06284779,1.7890673
24,1436375914069,9.753379,0.05566519,1.7262194
25,1436375914089,9.783307,0.009576807,1.7076644
26,1436375914111,9.921572,-0.10115502,1.8243817
27,1436375914125,9.944916,-0.08678981,1.7818847
28,1436375914146,9.849746,-0.08738836,1.751957
29,1436375914168,9.791686,-0.08559271,1.7411832
30,1436375914187,9.846154,-0.05746084,1.6651673
31,1436375914207,9.825804,-0.022146367,1.6747441
32,1436375914227,9.84795,-0.055066638,1.751957
33,1436375914250,9.872491,-0.10115502,1.8285716
34,1436375914269,9.87668,-0.0700304,1.7753005
35,1436375914289,9.783307,0.0017956513,1.6567876
36,1436375914310,9.7479925,-0.011971008,1.6304513
37,1436375914329,9.8198185,-0.061650693,1.6567876
38,1436375914349,9.895236,-0.050876785,1.7202339
39,1436375914369,9.867104,-0.030526072,1.751957
40,1436375914389,9.809045,-0.032920275,1.7591397
41,1436375914409,9.779716,-0.011372458,1.738789
42,1436375914429,9.797672,-0.036511578,1.697489
43,1436375914447,9.81922,-0.03172317,1.7178397
44,1436375914469,9.813833,-0.034715924,1.7304093
45,1436375914489,9.818622,-0.008978256,1.7585411
46,1436375914509,9.835979,0.02932897,1.7717092
47,1436375914529,9.824607,-0.02813187,1.721431
48,1436375914549,9.750386,-0.035314474,1.6861166
49,1436375914569,9.817424,-0.017956512,1.7369933
50,1436375914589,9.812635,-0.03232172,1.75076
51,1436375914609,9.805453,-0.02873042,1.7537527
52,1436375914629,9.818023,-0.010175358,1.7447745
53,1436375914647,9.863512,-0.0053869537,1.7717092
54,1436375914668,9.879075,-0.021547815,1.7262194
55,1436375914688,9.81922,0.010175358,1.7393875
56,1436375914706,9.818622,-0.0017956513,1.7375919
57,1436375914788,9.828796,0.04189853,1.7609353
58,1436375914789,9.816227,-0.037110128,1.7459716
59,1436375914790,9.840169,-0.06344634,1.7381904
60,1436375914791,9.840768,-0.036511578,1.6777369
61,1436375914808,9.809643,-0.050876785,1.6831238
62,1436375914831,9.822212,-0.047285482,1.7076644
63,1436375914849,9.826403,-0.049081136,1.7160441
64,1436375914868,9.8042555,-0.05327099,1.7375919
65,1436375914888,9.803059,-0.032920275,1.7064673
66,1436375914907,9.828198,-0.04249708,1.6597804
67,1436375914928,9.82341,-0.045489833,1.6681601
68,1436375914947,9.816227,-0.0724246,1.6711528
69,1436375914971,9.8515415,-0.060453594,1.666963
70,1436375914990,9.8276,-0.05267244,1.6627731
71,1436375915010,9.826403,-0.007182605,1.6675615
72,1436375915030,9.812037,-0.023343466,1.6340426
73,1436375915049,9.853337,-0.019153614,1.5795746
74,1436375915070,9.841366,-0.047884032,1.6106992
75,1436375915090,9.828796,-0.05865794,1.6112977
76,1436375915110,9.847352,-0.05207389,1.6304513
77,1436375915131,9.856929,-0.051475335,1.6561891
78,1436375915149,9.82341,-0.061650693,1.6747441
79,1436375915171,9.832388,-0.04129998,1.6579847
80,1436375915188,9.8198185,-0.06404489,1.6166847
81,1436375915209,9.825205,-0.06943185,1.5933412
82,1436375915230,9.833585,-0.07182605,1.5957354
83,1436375915250,9.814431,-0.089184016,1.5975311
84,1436375915270,9.820416,-0.094570965,1.6292542
85,1436375915290,9.846154,-0.10414778,1.6208745
86,1436375915310,9.812635,-0.12868834,1.6555905
87,1436375915330,9.824008,-0.12569559,1.6633717
88,1436375915348,9.830592,-0.11671733,1.62686
89,1436375915370,9.850345,-0.11971009,1.6591818
90,1436375915391,9.860519,-0.109534726,1.6573862
91,1436375915410,9.835979,-0.093972415,1.6645688
92,1436375915429,9.841366,-0.0688333,1.6813282
93,1436375915449,9.803658,-0.073621705,1.6867151
94,1436375915522,9.7563715,-0.017956512,1.6753427
95,1436375915523,9.828796,-0.03172317,1.6927006
96,1436375915527,9.946711,-0.036511578,1.7022774
97,1436375915528,9.968858,-0.04369418,1.6717514
98,1436375915551,9.879673,-0.12449849,1.5915456
99,1436375915572,9.7803135,-0.01616086,1.6460136
100,1436375915589,9.752182,0.049679685,1.6418238
101,1436375915609,9.88925,-0.05686229,1.7022774
102,1436375915629,9.974244,-0.065242,1.7818847
103,1436375915648,9.916783,-0.06284779,1.6783354
104,1436375915671,9.834782,-0.11133038,1.6591818
105,1436375915691,9.841366,-0.11731588,1.6915035
106,1436375915711,9.856929,-0.065242,1.6430209
107,1436375915730,9.831191,0.0035913025,1.685518
108,1436375915749,9.827001,-0.032920275,1.774702
109,1436375915771,9.882068,-0.076015905,1.8148049
110,1436375915790,9.880272,-0.05267244,1.7226281
111,1436375915810,9.779716,-0.040102877,1.6089035
112,1436375915831,9.7719345,-0.035314474,1.5951369
113,1436375915847,9.828198,-0.051475335,1.6657659
114,1436375915871,9.874287,-0.038905777,1.7166426
115,1436375915890,9.843162,-0.04129998,1.7118542
116,1436375915912,9.808446,-0.03172317,1.7184383
117,1436375915927,9.829395,-0.039504327,1.7082629
118,1436375915949,9.818622,-0.05626374,1.7256209
119,1436375915971,9.829395,-0.044891283,1.6992847
120,1436375915990,9.812635,-0.055066638,1.6962919
121,1436375916011,9.860519,0.012569559,1.75076
122,1436375916031,9.870695,0.023942016,1.6980876
123,1436375916050,9.812037,0.025139118,1.6962919
124,1436375916071,9.791686,0.007182605,1.7178397
125,1436375916091,9.822811,-0.06464344,1.7160441
126,1436375916111,9.857527,-0.05207389,1.7399861
127,1436375916132,9.836577,0.021547815,1.7232267
128,1436375916153,9.824607,0.029927522,1.6950948
129,1436375916170,9.837176,0.010175358,1.6992847
130,1436375916194,9.882068,0.0005985504,1.7154455
131,1436375916267,9.88506,-0.047285482,1.7226281
132,1436375916268,9.858126,-0.05686229,1.7322049
133,1436375916269,9.828796,-0.034715924,1.7244238
134,1436375916270,9.803658,-0.03172317,1.6897079
135,1436375916289,9.809643,-0.053869538,1.7142484
136,1436375916312,9.849746,-0.06703765,1.7052702
137,1436375916328,9.816826,-0.044891283,1.7016789
138,1436375916348,9.797672,-0.0676362,1.6777369
139,1436375916368,9.81503,-0.09696517,1.7244238
140,1436375916388,9.848549,-0.09816227,1.757344
141,1436375916413,9.855133,-0.09935937,1.7465701
142,1436375916501,9.8677025,-0.091578215,1.7160441
143,1436375916502,9.865907,-0.073621705,1.7280151
144,1436375916503,9.841965,-0.092176765,1.7262194
145,1436375916504,9.809643,-0.08678981,1.7417817
146,1436375916508,9.818622,-0.06823475,1.7717092
147,1436375916531,9.83957,-0.023343466,1.7818847
148,1436375916551,9.840169,-0.023343466,1.7699136
149,1436375916571,9.849746,-0.010773907,1.7405846
150,1436375916591,9.854534,-0.031124622,1.7226281
151,1436375916610,9.859921,-0.065242,1.7423803
152,1436375916631,9.856929,-0.07182605,1.7567455
153,1436375916650,9.831191,-0.07062895,1.7585411
154,1436375916671,9.829993,-0.076614454,1.7914615
155,1436375916691,9.818023,-0.05686229,1.8189948
156,1436375916710,9.808446,-0.06404489,1.8016368
157,1436375916728,9.822212,-0.04129998,1.8273745
158,1436375916751,9.812635,-0.049081136,1.8100165
159,1436375916768,9.771336,-0.027533319,1.79206
160,1436375916788,9.74859,0.019752163,1.7950528
161,1436375916809,9.7803135,0.04070143,1.7675194
162,1436375916833,9.829395,0.011971008,1.7609353
163,1436375916858,9.849147,0.025139118,1.7884687
164,1436375916868,9.861717,0.031124622,1.7842789
165,1436375916888,9.882068,0.02813187,1.7770962
166,1436375916909,9.8916445,0.011372458,1.7968484
167,1436375916928,9.860519,-0.014963761,1.7447745
168,1436375916949,9.816227,-0.015562311,1.7884687
169,1436375916970,9.868899,-0.0011971008,1.8393455
170,1436375917039,9.892841,-0.009576807,1.8435353
171,1436375917040,9.886257,0.013766659,1.8100165
172,1436375917041,9.824607,-0.05746084,1.7681179
173,1436375917059,9.757569,0.14185645,1.6950948
174,1436375917068,9.740809,0.1340753,1.6101006
175,1436375917088,9.931149,-0.035913024,1.769315
176,1436375917109,10.008362,-0.017357962,1.7741034
177,1436375917128,9.853337,-0.061052144,1.7328035
178,1436375917151,9.717466,-0.0796072,1.6873137
179,1436375917168,9.745,-0.06464344,1.6897079
180,1436375917189,9.807847,-0.051475335,1.6903064
181,1436375917210,9.830592,-0.03172317,1.7340006
182,1436375917230,9.82341,-0.08439561,1.7806876
183,1436375917252,9.829395,-0.073621705,1.7741034
184,1436375917272,9.727641,-0.03232172,1.6424223
185,1436375917292,9.6923275,-0.060453594,1.638831
186,1436375917312,9.712079,-0.077213004,1.6867151
187,1436375917330,9.791686,-0.05805939,1.763928
188,1436375917352,9.850345,-0.05865794,1.8177977
189,1436375917372,9.822811,-0.022146367,1.7836803
190,1436375917392,9.800066,0.013766659,1.7477672
191,1436375917412,9.818023,0.004189853,1.7465701
192,1436375917430,9.861118,-0.02873042,1.7328035
193,1436375917449,9.865308,-0.02873042,1.6980876
194,1436375917472,9.849746,0.002992752,1.7118542
195,1436375917492,9.880272,-0.008379706,1.7082629
196,1436375917512,9.846154,-0.07062895,1.6484078
197,1436375917530,9.857527,-0.077213004,1.6274586
198,1436375917551,9.856929,-0.077811554,1.6400281
199,1436375917571,9.81922,-0.12569559,1.6436194
200,1436375917592,9.834782,-0.14664486,1.6867151
201,1436375917612,9.85633,-0.1604115,1.6807296
202,1436375917630,9.874885,-0.16101007,1.673547
203,1436375917650,9.847352,-0.14784196,1.650802
204,1436375917671,9.8437605,-0.15622166,1.6699557
205,1436375917690,9.856929,-0.15741876,1.666963
206,1436375917709,9.8276,-0.14963761,1.6130934
207,1436375917780,9.825804,-0.16460137,1.5867572
208,1436375917781,9.876082,-0.1376666,1.5969325
209,1436375917782,9.844358,-0.11552023,1.5532384
210,1436375917800,9.807249,-0.12449849,1.5490485
211,1436375917809,9.800665,-0.10534488,1.5652094
212,1436375917829,9.836577,-0.12270284,1.6244658
213,1436375917852,9.836577,-0.12689269,1.6436194
214,1436375917869,9.853935,-0.11611878,1.6041151
215,1436375917889,9.842564,-0.11432313,1.6065093
216,1436375917911,9.843162,-0.09935937,1.6017209
217,1436375917931,9.837775,-0.08259996,1.6484078
218,1436375917950,9.844957,-0.0724246,1.6531962
219,1436375917971,9.846753,-0.0035913025,1.6502035
220,1436375917992,9.837176,-0.009576807,1.6292542
221,1436375918011,9.847352,-0.055066638,1.6178818
222,1436375918032,9.844358,-0.091578215,1.6053122
223,1436375918050,9.837775,-0.08798691,1.6112977
224,1436375918072,9.818622,-0.09696517,1.6478093
225,1436375918092,9.814431,-0.092176765,1.6699557
226,1436375918112,9.829395,-0.094570965,1.6262615
227,1436375918132,9.831789,-0.09756372,1.6124948
228,1436375918150,9.848549,-0.10654198,1.6537948
229,1436375918172,9.861717,-0.12808979,1.6968905
230,1436375918190,9.848549,-0.090381116,1.6861166
231,1436375918213,9.840169,-0.078410104,1.654992
232,1436375918233,9.846154,-0.08319851,1.6609775
233,1436375918250,9.879673,-0.062249243,1.6705543
234,1436375918271,9.870695,-0.08379706,1.7106571
235,1436375918293,9.848549,-0.094570965,1.6825253
236,1436375918313,9.855731,-0.074220255,1.6573862
237,1436375918333,9.872491,-0.0724246,1.6490064
238,1436375918353,9.8683,-0.088585466,1.6525977
239,1436375918372,9.872491,-0.08499416,1.6687586
240,1436375918393,9.828796,-0.090381116,1.6813282
241,1436375918410,9.7958765,-0.054468088,1.6633717
242,1436375918431,9.81084,-0.08140286,1.6795325
243,1436375918451,9.880871,-0.108337626,1.7543513
244,1436375918473,9.838972,-0.15203181,1.726818
245,1436375918517,9.829993,-0.15741876,1.7681179
246,1436375918518,9.8276,-0.05327099,1.7375919
247,1436375918542,9.723452,0.12090719,1.6460136
248,1436375918550,9.81084,0.044292733,1.774702
249,1436375918570,9.969456,-0.065242,1.8752584
250,1436375918590,9.931747,-0.055066638,1.7998412
251,1436375918610,9.840169,-0.06584055,1.7106571
252,1436375918631,9.7803135,-0.05686229,1.685518
253,1436375918650,9.807249,-0.07182605,1.7501614
254,1436375918671,9.818023,-0.05207389,1.7537527
255,1436375918695,9.845556,-0.023343466,1.7585411
256,1436375918710,9.865308,-0.036511578,1.7980455
257,1436375918755,9.821015,-0.10175357,1.7944542
258,1436375918756,9.801862,-0.095169514,1.7872716
259,1436375918770,9.781511,-0.090979666,1.7280151
260,1436375918790,9.770139,-0.05865794,1.7525556
261,1436375918810,9.7803135,-0.022744916,1.762731
262,1436375918830,9.790489,-0.01316811,1.8297687
263,1436375918850,9.828198,-0.023942016,1.839944
264,1436375918870,9.822212,-0.04070143,1.8303672
265,1436375918890,9.804854,-0.031124622,1.8513165
266,1436375918910,9.805453,0.010773907,1.8124107
267,1436375918931,9.8198185,-0.01616086,1.8183962
268,1436375918950,9.822212,0.025737667,1.8237832
269,1436375918970,9.799467,0.030526072,1.8028339
270,1436375918990,9.801263,0.025139118,1.8387469
271,1436375919010,9.813833,0.022146367,1.8363527
272,1436375919031,9.829395,0.020350715,1.839944
273,1436375919050,9.815628,0.022146367,1.8602947
274,1436375919070,9.80665,0.007182605,1.8680758
275,1436375919090,9.80665,0.008978256,1.869273
276,1436375919110,9.807847,-0.0077811554,1.881244
277,1436375919135,9.818023,-0.023942016,1.8836381
278,1436375919151,9.805453,-0.012569559,1.8866309
279,1436375919170,9.800066,0.013766659,1.882441
280,1436375919192,9.812635,0.019153614,1.887828
281,1436375919248,9.829395,0.017357962,1.8602947
282,1436375919249,9.843162,0.0077811554,1.8118122
283,1436375919250,9.828796,0.004189853,1.8471266
284,1436375919271,9.822212,-0.029927522,1.83336
285,1436375919291,9.837176,-0.017956512,1.8381484
286,1436375919311,9.835979,-0.0005985504,1.8309658
287,1436375919331,9.840768,0.014963761,1.8447324
288,1436375919351,9.8276,-0.046686932,1.8028339
289,1436375919370,9.847352,-0.076614454,1.8231846
290,1436375919392,9.841366,-0.075417355,1.8183962
291,1436375919411,9.816826,-0.076614454,1.8608932
292,1436375919431,9.767146,-0.053869538,1.8531121
293,1436375919450,9.76116,-0.025139118,1.887828
294,1436375919470,9.791088,-0.04070143,1.8602947
295,1436375919492,9.780912,-0.05566519,1.8183962
296,1436375919514,9.80665,-0.0724246,1.8058267
297,1436375919532,9.845556,-0.06823475,1.8148049
298,1436375919552,9.81922,-0.079008654,1.8201919
299,1436375919570,9.822212,-0.08080431,1.8082209
300,1436375919592,9.779117,-0.0676362,1.7723078
301,1436375919614,9.755774,-0.08200141,1.7489643
302,1436375919631,9.91798,-0.10474633,1.8195933
303,1436375919651,9.96766,-0.089184016,1.757344
304,1436375919671,9.725846,-0.11971009,1.7735049
305,1436375919692,9.717466,-0.08379706,1.839944
306,1436375919713,9.837176,-0.0011971008,1.8405426
307,1436375919732,9.809643,-0.08619126,1.7250223
308,1436375919752,9.854534,-0.12569559,1.7585411
309,1436375919772,9.904214,-0.08678981,1.7950528
310,1436375919792,9.894637,-0.10295067,1.8267759
311,1436375919812,9.825205,-0.16101007,1.79206
312,1436375919833,9.776723,-0.142455,1.7513585
313,1436375919905,9.759963,-0.11671733,1.7369933
314,1436375919906,9.8437605,-0.15322891,1.7681179
315,1436375919907,9.841965,-0.14604631,1.7938557
316,1436375919918,9.832987,-0.17776948,1.780089
317,1436375919931,9.792884,-0.1340753,1.7411832
318,1436375919956,9.797073,-0.11252748,1.7232267
319,1436375919971,9.845556,-0.12509704,1.7393875
320,1436375919993,9.849147,-0.1352724,1.7298107
321,1436375920012,9.846154,-0.10534488,1.6950948
322,1436375920032,9.826403,-0.11851298,1.7202339
323,1436375920054,9.798869,-0.09696517,1.7322049
324,1436375920073,9.827001,-0.074818805,1.6921021
325,1436375920092,9.835979,-0.09816227,1.6795325
326,1436375920112,9.834782,-0.1376666,1.7118542
327,1436375920134,9.837775,-0.14604631,1.7238252
328,1436375920154,9.836577,-0.11671733,1.7328035
329,1436375920176,9.81503,-0.08798691,1.6897079
330,1436375920192,9.82341,-0.10414778,1.6950948
331,1436375920214,9.826403,-0.109534726,1.678934
332,1436375920234,9.834782,-0.11971009,1.6765398
333,1436375920251,9.841366,-0.1328782,1.644218
334,1436375920272,9.827001,-0.1352724,1.6609775
335,1436375920292,9.831191,-0.15382746,1.6807296
336,1436375920313,9.834184,-0.15682021,1.6813282
337,1436375920332,9.863512,-0.15083471,1.6496049
338,1436375920354,9.83957,-0.14963761,1.650802
339,1436375920372,9.844358,-0.17776948,1.6160861
340,1436375920394,9.841965,-0.17717093,1.6112977
341,1436375920413,9.824607,-0.16639702,1.6106992
342,1436375920435,9.840768,-0.15801731,1.5945383
343,1436375920455,9.842564,-0.13826515,1.602918
344,1436375920477,9.864111,-0.15322891,1.5993267
345,1436375920492,9.863512,-0.14963761,1.608305
346,1436375920512,9.870096,-0.1388637,1.6077064
347,1436375920531,9.877279,-0.12808979,1.6472107
348,1436375920551,9.861118,-0.12808979,1.6154876
349,1436375920573,9.850943,-0.1364695,1.6448165
350,1436375920645,9.846753,-0.15263036,1.6454151
351,1436375920646,9.830592,-0.1436521,1.6208745
352,1436375920658,9.8276,-0.12509704,1.5927427
353,1436375920659,9.838373,-0.1316811,1.6035166
354,1436375920672,9.824607,-0.15682021,1.6101006
355,1436375920696,9.849147,-0.16280572,1.6118963
356,1436375920712,9.832388,-0.15083471,1.6095021
357,1436375920732,9.818023,-0.11851298,1.6035166
358,1436375920754,9.818023,-0.10414778,1.6154876
359,1436375920773,9.80665,-0.1328782,1.590947
360,1436375920794,9.83957,-0.142455,1.6765398
361,1436375920813,9.844957,-0.14784196,1.6747441
362,1436375920835,9.840768,-0.15861586,1.6077064
363,1436375920855,9.715072,-0.16699557,1.6184803
364,1436375920875,9.727641,-0.109534726,1.6687586
365,1436375920894,9.816826,-0.01316811,1.6633717
366,1436375920912,9.864111,-0.035913024,1.6436194
367,1436375920935,9.952697,-0.10055647,1.7004818
368,1436375920955,9.922769,-0.107739076,1.6897079
369,1436375920975,9.837176,-0.13227965,1.6956934
370,1436375920995,9.853337,-0.15801731,1.7136499
371,1436375921013,9.858724,-0.13826515,1.7070658
372,1436375921033,9.85214,-0.10235212,1.7034745
373,1436375921055,9.880272,-0.0796072,1.7034745
374,1436375921075,9.859323,-0.091578215,1.8064252
375,1436375921097,9.901819,-0.11791443,1.8938135
376,1436375921114,9.848549,-0.09935937,1.8010383
377,1436375921133,9.801862,-0.065242,1.7322049
378,1436375921155,9.768942,-0.06464344,1.7016789
379,1436375921175,9.812635,-0.05865794,1.7088615
380,1436375921197,9.897031,-0.040102877,1.7477672
381,1436375921212,9.834782,-0.05267244,1.8088194
382,1436375921235,9.810242,-0.061650693,1.8004397
383,1436375921253,9.776124,-0.035913024,1.785476
384,1436375921275,9.759963,-0.049679685,1.6968905
385,1436375921415,9.813234,-0.060453594,1.7615339
386,1436375921416,9.811439,-0.022146367,1.8267759
387,1436375921417,9.836577,0.02633622,1.816002
388,1436375921418,9.779117,0.0676362,1.8142064
389,1436375921419,9.825804,0.03172317,1.8555063
390,1436375921420,9.829993,-0.01436521,1.8130093
391,1436375921421,9.818023,-0.04369418,1.8195933
392,1436375921434,9.763555,0.019752163,1.7687165
393,1436375921452,9.771336,0.0676362,1.797447
394,1436375921472,9.779716,0.06284779,1.7860745
395,1436375921492,9.802461,0.089782566,1.8076223
396,1436375921553,9.811439,0.08140286,1.8525136
397,1436375921554,9.846753,0.07182605,1.8327614
398,1436375921555,9.805453,0.034117375,1.8537107
399,1436375921598,9.849147,0.06464344,1.8219875
400,1436375921599,9.828198,0.077811554,1.8154035
401,1436375921613,9.8677025,0.026934769,1.8166006
402,1436375921633,9.824607,0.026934769,1.7968484
403,1436375921653,9.77792,0.05805939,1.7375919
404,1436375921674,9.816227,0.020350715,1.7986441
405,1436375921695,9.814431,0.032920275,1.8034325
406,1436375921715,9.813234,0.010773907,1.8052281
407,1436375921735,9.822212,0.03232172,1.8195933
408,1436375921754,9.821614,0.023343466,1.8537107
409,1436375921776,9.824008,0.020350715,1.8495208
