id,attr_time,attr_x,attr_y,attr_z
1,1436988059006,0.004189853,10.250176,-0.6991069
2,1436988059024,0.04189853,10.287885,-0.7266402
3,1436988059045,0.08619126,10.293272,-0.6410475
4,1436988059063,0.12270284,10.26514,-0.599149
5,1436988059084,0.09636662,10.279505,-0.5895722
6,1436988059105,-0.05267244,10.253169,-0.6356605
7,1436988059124,-0.29448682,10.192716,-0.7422025
8,1436988059146,-0.56443304,10.152613,-0.86490536
9,1436988059166,-0.78769237,10.1304655,-0.9403227
10,1436988059184,-0.8714894,10.068815,-0.9307459
11,1436988059205,-0.7206547,10.00477,-0.86729956
12,1436988059223,-0.44651863,10.009559,-0.8074445
13,1436988059246,-0.17298107,10.070611,-0.7858967
14,1436988059267,-0.023343466,10.08737,-0.7457938
15,1436988059286,0.059855044,10.089765,-0.63206923
16,1436988059306,0.077811554,10.081385,-0.635062
17,1436988059324,0.090381116,10.1304655,-0.65780693
18,1436988059343,0.035314474,10.155605,-0.682946
19,1436988059363,-0.08080431,10.16578,-0.7164649
20,1436988059386,-0.19393034,10.125677,-0.7266402
21,1436988059404,-0.24121583,10.165182,-0.7266402
22,1436988059458,-0.30526072,10.108319,-0.7392098
23,1436988059476,-0.32920274,10.156802,-0.8355764
24,1436988059477,-0.41299978,10.163386,-0.866701
25,1436988059486,-0.45310268,10.0508585,-0.81522566
26,1436988059506,-0.38367084,9.9951935,-0.79128367
27,1436988059527,-0.3238158,9.97604,-0.801459
28,1436988059542,-0.23463176,10.016143,-0.8074445
29,1436988059571,-0.10534488,10.075399,-0.7691373
30,1436988059586,0.0047884034,10.165182,-0.6985083
31,1436988059604,-0.023343466,10.2406,-0.7134721
32,1436988059624,-0.109534726,10.25257,-0.7182605
33,1436988059644,-0.22625206,10.175357,-0.79846627
34,1436988059663,-0.33279404,10.174759,-0.85293436
35,1436988059686,-0.39683893,10.105327,-0.82599956
36,1436988059706,-0.40102878,10.065224,-0.8206126
37,1436988059727,-0.338181,10.077195,-0.86131406
38,1436988059746,-0.29927522,10.086173,-0.89782566
39,1436988059766,-0.2633622,10.096349,-0.8882488
40,1436988059786,-0.2100912,10.117298,-0.83138657
41,1436988059806,-0.17238252,10.13705,-0.80445176
42,1436988059827,-0.16579847,10.150817,-0.8038532
43,1436988059846,-0.14903906,10.148422,-0.82779527
44,1436988059864,-0.1412579,10.178948,-0.8391677
45,1436988059884,-0.13467385,10.175357,-0.82719666
46,1436988059906,-0.14963761,10.147225,-0.8343793
47,1436988059926,-0.14724341,10.143036,-0.86011696
48,1436988059945,-0.16519992,10.14543,-0.89423436
49,1436988059963,-0.20470424,10.170568,-0.9247604
50,1436988059986,-0.33039984,10.281899,-0.9792285
51,1436988060047,-0.5009867,10.274716,-0.9528923
52,1436988060048,-0.5781997,10.185533,-0.9343372
53,1436988060049,-0.44592008,10.139444,-0.97144735
54,1436988060231,-0.30585927,10.1143055,-0.96785605
55,1436988060232,-0.13946225,10.075399,-0.9355343
56,1436988060233,-0.076614454,10.074203,-0.9068039
57,1436988060234,-0.095768064,9.998186,-0.82779527
58,1436988060235,-0.090979666,10.081385,-0.8439561
59,1436988060236,-0.22026655,10.190321,-0.90021986
60,1436988060237,-0.35913026,10.0987425,-0.90141696
61,1436988060238,-0.3172317,10.070611,-0.89543146
62,1436988060239,-0.25498247,10.10413,-0.93613285
63,1436988060250,-0.2088941,10.1460285,-0.94930094
64,1436988060264,-0.16699557,10.144233,-0.94451255
65,1436988060283,-0.15382746,10.131064,-0.9056068
66,1436988060316,-0.22325931,10.157401,-0.9379285
67,1436988060323,-0.350152,10.181343,-0.96426475
68,1436988060344,-0.41718966,10.1304655,-0.9708488
69,1436988060371,-0.4177882,10.10413,-1.0049661
70,1436988060384,-0.41718966,10.153211,-1.0127473
71,1436988060403,-0.38965634,10.103531,-0.9600749
72,1436988060426,-0.29927522,10.073005,-0.931943
73,1436988060444,-0.24480712,10.086173,-0.95588505
74,1436988060464,-0.23702596,10.094553,-0.95109665
75,1436988060486,-0.21667525,10.133459,-0.9487024
76,1436988060507,-0.23702596,10.163386,-0.96905315
77,1436988060526,-0.25558102,10.157401,-0.92655605
78,1436988060546,-0.24480712,10.137649,-0.91338795
79,1436988060565,-0.24600422,10.139444,-0.9504981
80,1436988060583,-0.25139117,10.142437,-0.96785605
81,1436988060603,-0.25917232,10.11251,-0.97264445
82,1436988060626,-0.24959552,10.119692,-0.95947635
83,1436988060646,-0.25498247,10.114903,-0.96665895
84,1436988060665,-0.25917232,10.143634,-0.9876082
85,1436988060686,-0.25737667,10.143634,-0.9720459
86,1436988060707,-0.28790274,10.138845,-0.96546185
87,1436988060726,-0.30945057,10.1304655,-0.9816227
88,1436988060747,-0.30286652,10.111312,-0.9648633
89,1436988060767,-0.28909984,10.0987425,-0.9516952
90,1436988060787,-0.2621651,10.113108,-0.98940384
91,1436988060807,-0.25378537,10.13705,-0.9672575
92,1436988060826,-0.27593175,10.180744,-0.98222125
93,1436988060847,-0.3309984,10.100538,-0.9283517
94,1436988060864,-0.3405752,10.108319,-0.96067345
95,1436988060892,-0.3788824,10.133459,-0.99538934
96,1436988060909,-0.38486794,10.034698,-0.89423436
97,1436988060926,-0.22924481,10.001179,-0.9139865
98,1436988060943,-0.12449849,10.064626,-0.985214
99,1436988060964,-0.15801731,10.114903,-1.0181342
100,1436988060984,-0.18195933,10.144233,-0.9487024
101,1436988061008,-0.20231004,10.166978,-0.93852705
102,1436988061025,-0.30406362,10.172963,-0.91458505
103,1436988061050,-0.3890578,10.171766,-0.94810385
104,1436988061065,-0.44891283,10.100538,-0.9696517
105,1436988061086,-0.46746787,10.049063,-1.003769
106,1436988061104,-0.45190558,10.052654,-1.0630256
107,1436988061125,-0.50038815,10.077793,-0.9900024
108,1436988061147,-0.44771573,10.0341,-0.9498995
109,1436988061167,-0.3657143,10.057443,-0.97623575
110,1436988061187,-0.33877954,10.086173,-1.0133458
111,1436988061207,-0.30226797,10.117896,-1.0133458
112,1436988061227,-0.30406362,10.129269,-0.99778354
113,1436988061248,-0.28909984,10.137649,-0.9876082
114,1436988061266,-0.29328972,10.144233,-0.9648633
115,1436988061286,-0.28491,10.128072,-0.9708488
116,1436988061305,-0.2621651,10.136452,-0.9947908
117,1436988061327,-0.25917232,10.105327,-1.0097545
118,1436988061346,-0.25378537,10.110115,-0.9923966
119,1436988061368,-0.25917232,10.102933,-1.0151415
120,1436988061389,-0.30945057,10.101735,-1.0043676
121,1436988061409,-0.36391866,10.101137,-1.0205284
122,1436988061430,-0.3764882,10.070611,-1.0295067
123,1436988061447,-0.44113165,10.073604,-1.0348936
124,1436988061465,-0.50876784,10.100538,-1.0618285
125,1436988061484,-0.5470751,10.086173,-1.0600328
126,1436988061507,-0.52732295,10.068815,-1.0283096
127,1436988061527,-0.48123455,10.071808,-1.0486604
128,1436988061545,-0.48961425,10.07121,-1.039682
129,1436988061616,-0.5638345,10.071808,-1.0540473
130,1436988061617,-0.65780693,10.065224,-1.0115502
131,1436988061618,-0.7074866,9.998785,-0.9983821
132,1436988061628,-0.7703344,10.028113,-1.0462662
133,1436988061647,-0.8122329,9.874885,-0.9331401
134,1436988061666,-0.7906851,9.81503,-0.90261406
135,1436988061685,-0.7020996,9.836577,-0.99898064
136,1436988061709,-0.7248446,10.01315,-1.1414356
137,1436988061726,-0.7493851,10.12448,-1.1767502
138,1436988061746,-0.7799112,10.235811,-1.1420342
139,1436988061765,-0.7781156,10.282497,-1.0666169
140,1436988061786,-0.7326257,10.259154,-1.0127473
141,1436988061808,-0.6374562,10.240001,-0.95109665
142,1436988061828,-0.40342298,10.126276,-0.93972415
143,1436988061848,-0.110133275,10.103531,-1.0181342
144,1436988061868,0.13347675,10.03769,-0.9403227
145,1436988061888,0.22864626,9.931149,-0.82121116
146,1436988061908,0.16639702,10.024523,-0.87448215
147,1436988061928,-0.090979666,10.238804,-1.039682
148,1436988061948,-0.39564183,10.430939,-1.2000936
149,1436988061968,-0.6027403,10.542269,-1.2204443
150,1436988061988,-0.7009025,10.725425,-1.3096284
151,1436988062008,-0.7128736,10.791864,-1.3563153
152,1436988062025,-0.64463884,10.776301,-1.3329718
153,1436988062053,-0.49679685,10.629657,-1.2180501
154,1436988062070,-0.260968,10.424355,-1.1797429
155,1436988062089,0.02932897,10.201095,-1.2234371
156,1436988062106,0.3405752,9.959879,-1.2479776
157,1436988062128,0.6715736,9.853935,-1.1498153
158,1436988062148,0.9588778,9.807249,-0.9498995
159,1436988062168,1.1641805,9.770737,-0.80445176
160,1436988062188,1.2126632,9.77373,-0.54887074
161,1436988062208,1.0761937,9.773131,-0.37948096
162,1436988062231,0.97264445,9.916184,-0.46567222
163,1436988062246,0.66139823,9.990405,-0.5686229
164,1436988062265,0.26874915,10.064626,-0.66618663
165,1436988062361,-0.09696517,10.1460285,-0.7062895
166,1436988062373,-0.23762453,10.127473,-0.7505822
167,1436988062374,-0.40521863,10.05445,-0.6302736
168,1436988062375,-0.4189853,10.0269165,-0.6218939
169,1436988062376,-0.31184477,9.976639,-0.6667852
170,1436988062402,-0.088585466,9.911396,-0.6823475
171,1436988062429,0.22804771,9.904214,-0.62847793
172,1436988062430,0.46507367,9.7479925,-0.5081693
173,1436988062446,0.6619968,9.695918,-0.44831428
174,1436988062478,0.7541735,9.813833,-0.39923313
175,1436988062496,0.7422025,9.96347,-0.49320555
176,1436988062506,0.6727707,10.148422,-0.6967127
177,1436988062526,0.557849,10.263943,-0.8098387
178,1436988062546,0.47764325,10.247782,-0.82240826
179,1436988062566,0.4770447,10.266336,-0.8774749
180,1436988062587,0.4285621,10.290278,-0.83378077
181,1436988062609,0.38726214,10.379463,-0.83737206
182,1436988062629,0.39384618,10.559028,-0.87687635
183,1436988062649,0.42437226,10.56681,-0.7422025
184,1436988062669,0.5009867,10.590752,-0.5907693
185,1436988062689,0.60094464,10.509348,-0.5374983
186,1436988062709,0.587178,10.468048,-0.55485624
187,1436988062729,0.48482585,10.364499,-0.66259533
188,1436988062746,0.3585317,10.270527,-0.7715315
189,1436988062767,0.17298107,10.120291,-0.7422025
190,1436988062789,0.048482586,9.986216,-0.7020996
191,1436988062807,-0.05865794,9.837176,-0.7224504
192,1436988062827,-0.1945289,9.7162695,-0.9498995
193,1436988062846,-0.25797522,9.667188,-1.1109096
194,1436988062869,-0.1604115,9.731832,-1.1360487
195,1436988062889,0.050876785,9.828198,-1.2144588
196,1436988062909,0.20530279,9.936536,-1.0827777
197,1436988062928,0.30107087,10.022727,-0.9935937
198,1436988062947,0.40342298,10.140042,-0.99179804
199,1436988062968,0.4429273,10.26514,-1.0923545
200,1436988062987,0.39504328,10.451887,-1.3144168
201,1436988063010,0.29328972,10.512939,-1.3688848
202,1436988063112,0.2633622,10.509947,-1.4437037
203,1436988063113,0.18255788,10.419566,-1.4891934
204,1436988063114,0.12988544,10.358514,-1.5286977
205,1436988063115,0.17238252,10.333973,-1.5574282
206,1436988063116,0.25977087,10.300454,-1.5179238
207,1436988063139,0.36631286,10.174759,-1.4520833
208,1436988063148,0.5847838,10.123882,-1.411382
209,1436988063167,0.8295909,10.207679,-1.4377182
210,1436988063186,1.0253168,10.231023,-1.3976152
211,1436988063206,1.1881226,10.084377,-1.364695
212,1436988063229,1.3060371,9.931149,-1.2922704
213,1436988063246,1.2958617,9.882068,-1.1294646
214,1436988063267,1.1994951,9.886856,-1.1049241
215,1436988063294,1.0313023,9.866506,-1.1653777
216,1436988063306,0.82899237,9.84795,-1.2210429
217,1436988063327,0.66738373,9.853935,-1.2318168
218,1436988063348,0.59136784,9.821614,-1.2006922
219,1436988063369,0.5919664,9.843162,-1.2611457
220,1436988063390,0.44472298,9.925761,-1.2216414
221,1436988063410,0.37469256,10.129868,-1.1312603
222,1436988063429,0.3866636,10.277709,-1.1168951
223,1436988063450,0.30286652,10.701483,-0.94930094
224,1436988063470,-0.10115502,10.581773,-0.41240123
225,1436988063490,-0.4770447,9.888053,0.3453636
226,1436988063510,-0.748188,9.105149,0.92655605
227,1436988063531,-0.919972,9.414001,1.0139444
228,1436988063550,-1.6256629,10.540473,0.6147113
229,1436988063570,-3.0765493,11.03308,0.12030864
230,1436988063588,-4.11264,10.980408,0.5243302
231,1436988063608,-4.0054994,10.880449,0.90381116
232,1436988063630,-2.7766755,10.835558,0.9696517
233,1436988063649,-1.5358804,10.825383,1.0498575
234,1436988063670,-0.54527944,10.890026,1.2695254
235,1436988063689,-0.020350715,11.121665,1.323395
236,1436988063710,-0.006584055,10.999561,1.1067197
237,1436988063729,-0.19931729,10.502166,0.985214
238,1436988063749,-0.52852005,10.088568,0.7667431
239,1436988063768,-1.2312182,9.959281,0.5201403
240,1436988063790,-1.9841946,9.844957,0.40222588
241,1436988063852,-2.328361,9.643246,0.41359833
242,1436988063853,-2.2469583,9.778519,0.48123455
243,1436988063854,-2.202067,9.992201,0.48123455
244,1436988063867,-2.1458032,10.023924,0.50038815
245,1436988063890,-1.9303252,9.865308,0.60573304
246,1436988063922,-1.5729905,9.767146,0.6488287
247,1436988063927,-1.3018472,9.622296,0.75836337
248,1436988063948,-1.0348936,9.318831,0.8655039
249,1436988063971,-0.7170634,9.185355,0.6679823
250,1436988063990,-0.29328972,9.331401,0.11312603
251,1436988064009,0.1316811,9.725247,-0.545878
252,1436988064029,0.26515785,9.8683,-0.8367735
253,1436988064050,0.54049104,10.101735,-0.92176765
254,1436988064069,1.1204864,10.548853,-0.97025025
255,1436988064088,1.7621324,11.056423,-0.81522566
256,1436988064108,2.243367,11.133636,-0.52253455
257,1436988064131,2.4301147,10.964247,-0.026934769
258,1436988064150,2.3409307,10.783484,0.15682021
259,1436988064170,2.2571337,10.602123,0.013766659
260,1436988064190,1.9800048,10.392631,-0.21547815
261,1436988064210,1.7166426,10.48002,-0.5315128
262,1436988064228,1.5598224,10.80623,-0.95708215
263,1436988064250,1.5376761,10.819996,-1.0127473
264,1436988064270,1.5580268,10.7433815,-0.9163807
265,1436988064290,1.6262615,10.651205,-0.7667431
266,1436988064310,1.5969325,10.593145,-0.8607155
267,1436988064329,1.400608,10.348338,-0.85891986
268,1436988064350,1.2030864,10.095152,-0.8702923
269,1436988064370,1.1061212,9.855133,-0.9900024
270,1436988064391,0.90620536,9.57142,-1.0582372
271,1436988064410,0.7781156,9.345168,-1.1031284
272,1436988064429,0.6727707,9.17099,-1.1414356
273,1436988064449,0.6488287,8.954913,-1.0708067
274,1436988064469,0.64583594,8.853758,-1.021127
275,1436988064488,0.6398504,8.89446,-1.0145429
276,1436988064516,0.6841431,9.160814,-1.0959458
277,1436988064580,0.8858546,9.581595,-1.2138603
278,1436988064581,1.1857284,9.816227,-1.2252327
279,1436988064582,1.447295,9.882068,-1.0420763
280,1436988064591,1.6334441,9.801862,-0.8182184
281,1436988064608,1.7208325,9.712079,-0.682946
282,1436988064628,1.7471687,9.70789,-0.61411273
283,1436988064647,1.7902644,9.834184,-0.60214174
284,1436988064668,1.7687165,9.86471,-0.6925228
285,1436988064688,1.6777369,9.630077,-0.7038953
286,1436988064711,1.6244658,9.322423,-0.4782418
287,1436988064734,1.6531962,9.198523,-0.24899697
288,1436988064749,1.6136919,8.983644,-0.018555064
289,1436988064770,1.4820108,8.614338,0.3286042
290,1436988064791,1.6017209,8.339603,0.54647654
291,1436988064811,1.9782091,8.181585,0.6997054
292,1436988064831,2.3612814,7.8906903,0.86969376
293,1436988064851,2.7042508,7.656657,1.2138603
294,1436988064871,2.9352913,7.747637,1.3910311
295,1436988064891,3.0322564,7.835025,1.4903905
296,1436988064911,3.2333694,7.8224554,1.6633717
297,1436988064931,3.496133,7.825448,1.7172412
298,1436988064951,4.3221326,8.13849,1.5215151
299,1436988064969,5.096657,8.631097,1.2258313
300,1436988064990,5.353435,9.006987,1.2599486
301,1436988065015,5.2049947,9.108741,1.441908
302,1436988065030,5.005079,8.972271,1.4502877
303,1436988065048,4.9643774,8.517971,1.3587095
304,1436988065074,5.0679264,8.016984,1.0235212
305,1436988065093,5.3396683,7.9708962,0.7140707
306,1436988065111,5.667674,8.1797905,0.6278794
307,1436988065131,5.7454853,8.0606785,0.9103952
308,1436988065151,6.073491,7.9355817,1.1791444
309,1436988065171,6.815694,8.247426,1.6514006
310,1436988065188,7.143699,8.140884,2.023699
311,1436988065210,6.9605427,7.4447703,2.1763294
312,1436988065229,6.8049197,6.981492,2.0931308
313,1436988065252,6.493075,6.7324953,1.7633295
314,1436988065315,6.1219735,6.4164605,1.7417817
315,1436988065316,6.3021374,6.256049,1.745373
316,1436988065317,7.2167225,6.3607955,1.7124528
317,1436988065329,8.787319,7.423821,2.0560207
318,1436988065353,9.961675,8.834604,2.735974
319,1436988065383,10.6117,8.823232,3.6954503
320,1436988065388,12.51569,7.357382,4.7925935
321,1436988065409,14.280814,6.081871,5.4498014
322,1436988065431,12.340913,8.234857,5.127183
323,1436988065451,9.7007065,10.782288,2.6024973
324,1436988065470,7.626131,8.786121,4.1677065
325,1436988065491,6.3141084,7.587225,5.4204726
326,1436988065510,5.0344076,8.3150625,3.305794
327,1436988065531,3.1771057,8.721478,2.870648
328,1436988065552,2.1320367,8.248624,5.5862713
329,1436988065572,2.396596,8.219295,7.750031
330,1436988065594,3.489549,9.287707,7.8212585
331,1436988065611,3.7403417,10.83496,7.0102224
332,1436988065631,3.0059202,11.982381,6.479907
333,1436988065652,1.2844892,11.447277,6.697779
334,1436988065670,0.12389994,9.731832,6.22672
335,1436988065691,-1.3491327,7.7626004,4.8039656
336,1436988065712,-2.7563248,6.1225724,4.7375264
337,1436988065729,-4.027047,5.303157,5.317522
338,1436988065748,-4.9188876,5.4049106,5.638345
339,1436988065769,-5.143344,6.618172,5.00448
340,1436988065794,-4.780622,7.0700774,4.684854
341,1436988065813,-3.8804023,6.815694,4.920683
342,1436988065834,-2.5252843,6.5966244,5.324106
343,1436988065852,-1.2551602,6.9862804,5.831078
344,1436988065869,-0.093373865,7.5070195,6.3871317
345,1436988065889,0.62368953,7.9667063,6.7450647
346,1436988065909,0.94570965,8.288726,6.5122285
347,1436988065930,0.87448215,8.326435,6.0585275
348,1436988065949,0.39504328,8.4647,5.899313
349,1436988065996,-0.54408234,8.421604,6.50744
350,1436988065997,-1.1683705,7.9744873,4.2538977
351,1436988066021,-0.75118077,9.535507,4.1437645
352,1436988066030,1.2084733,9.715072,5.805341
353,1436988066049,3.3632548,8.268375,7.2406645
354,1436988066081,4.2940006,8.51857,6.745663
355,1436988066093,3.8774097,9.378088,6.2243257
356,1436988066110,2.6007016,8.900445,5.5168395
357,1436988066129,1.62686,8.095394,4.274847
358,1436988066154,0.90021986,8.250419,4.2275615
359,1436988066171,0.635062,8.806473,3.5972881
360,1436988066190,0.8535329,8.686164,2.4396915
361,1436988066211,2.6563668,8.480861,3.345897
362,1436988066234,3.8666358,8.680777,3.4985273
363,1436988066250,5.6108117,8.924985,3.3381157
364,1436988066271,6.587646,8.891466,3.7032316
365,1436988066292,6.9210386,8.787917,3.857059
366,1436988066312,6.371569,8.63828,3.9372647
367,1436988066330,5.3049526,8.821436,3.0765493
368,1436988066351,4.7638626,8.868722,2.9963434
369,1436988066371,4.64116,8.815451,2.7491422
370,1436988066393,4.5382094,8.253412,3.1800983
371,1436988066412,4.1922474,8.504803,1.8064252
372,1436988066431,4.1401734,8.346188,1.364695
373,1436988066453,4.6698904,7.313089,1.9668367
374,1436988066473,5.1660886,7.304111,1.6412252
375,1436988066493,6.184223,7.5680714,1.1318588
376,1436988066512,7.529764,7.8493905,0.9756372
377,1436988066530,8.248025,7.934983,1.1893197
378,1436988066552,8.1797905,8.31207,0.8690952
379,1436988066572,7.6722193,8.686164,0.51595044
380,1436988066593,6.7965403,8.55987,-0.18914193
381,1436988066610,6.679224,8.038532,-0.23283611
382,1436988066631,6.930017,7.351396,0.24839842
383,1436988066650,7.6961613,6.5385647,0.24061728
384,1436988066672,8.620922,7.1586633,0.7080852
385,1436988066699,9.058462,7.6375036,1.5286977
386,1436988066753,8.998009,6.9479733,1.8070238
387,1436988066754,9.153631,6.609194,1.560421
388,1436988066755,9.281721,6.6079965,1.7956513
389,1436988066775,8.847773,6.857592,2.171541
390,1436988066791,8.021174,6.863578,2.6318262
391,1436988066817,7.137714,6.975507,2.148796
392,1436988066831,6.7809777,7.2394676,1.6603789
393,1436988066851,6.2351,6.4721255,1.4999673
394,1436988066871,5.9442043,6.113594,1.8489223
395,1436988066891,5.49589,6.149507,1.2719196
396,1436988066911,5.6802435,6.3889275,0.94331545
397,1436988066931,6.7468605,6.6121864,1.7298107
398,1436988066950,7.593809,6.029797,2.791639
399,1436988066973,8.22528,5.9681463,2.4007857
400,1436988066993,7.848193,7.3525934,1.3210008
401,1436988067010,6.10701,7.3645644,1.7076644
402,1436988067032,4.9506106,7.4046674,3.139397
403,1436988067053,3.7654808,7.74225,2.0709844
404,1436988067071,3.7565024,7.6889787,1.38325
405,1436988067092,4.9081135,7.0383544,2.7515364
406,1436988067111,5.6736593,6.0202203,3.4979286
407,1436988067131,6.3464303,5.889736,3.7475243
408,1436988067152,7.877522,6.201581,2.7748797
