id,attr_time,attr_x,attr_y,attr_z
1,1436988059019,-1.7735049,9.347562,0.054468088
2,1436988059044,-1.7741034,9.44333,0.036511578
3,1436988059056,-1.666963,9.394848,0.074220255
4,1436988059079,-1.4999673,9.456498,0.11252748
5,1436988059097,-1.4209588,9.4295635,0.047285482
6,1436988059118,-1.4508862,9.439739,0.08259996
7,1436988059140,-1.5233108,9.481637,0.108936176
8,1436988059158,-1.5460558,9.438541,0.095169514
9,1436988059179,-1.5801731,9.407417,0.050278235
10,1436988059198,-1.6813282,9.406818,0.053869538
11,1436988059217,-1.7597382,9.375694,0.09876082
12,1436988059240,-1.762731,9.370307,0.0700304
13,1436988059260,-1.738789,9.422979,-0.006584055
14,1436988059278,-1.7956513,9.388264,0.025139118
15,1436988059296,-1.927931,9.363723,0.08319851
16,1436988059317,-1.9249382,9.334992,0.079008654
17,1436988059336,-1.8357542,9.39365,0.10235212
18,1436988059358,-1.6998832,9.411008,0.020350715
19,1436988059378,-1.7106571,9.422979,0.05626374
20,1436988059398,-1.7178397,9.402629,0.0712275
21,1436988059418,-1.7058687,9.354745,0.05207389
22,1436988059439,-1.7501614,9.354146,0.0664391
23,1436988059457,-1.7375919,9.436746,0.061650693
24,1436988059487,-1.6597804,9.417592,0.050278235
25,1436988059543,-1.6759412,9.377489,0.08259996
26,1436988059544,-1.7579426,9.427169,0.05686229
27,1436988059545,-1.7345991,9.416395,0.031124622
28,1436988059565,-1.7178397,9.380483,0.04309563
29,1436988059577,-1.7166426,9.372103,0.011372458
30,1436988059604,-1.7986441,9.409811,0.08738836
31,1436988059618,-1.8267759,9.408015,0.061052144
32,1436988059636,-1.8064252,9.384073,0.065242
33,1436988059660,-1.6849195,9.356541,0.014963761
34,1436988059677,-1.6340426,9.379884,-0.011372458
35,1436988059697,-1.6095021,9.407417,0.03232172
36,1436988059718,-1.6047137,9.3822775,0.046686932
37,1436988059740,-1.6681601,9.425373,0.030526072
38,1436988059757,-1.7088615,9.44333,0.016759412
39,1436988059781,-1.6873137,9.413403,0.059855044
40,1436988059803,-1.6478093,9.391854,0.024540568
41,1436988059816,-1.6118963,9.44333,-0.021547815
42,1436988059839,-1.6376339,9.419987,0.0023942017
43,1436988059859,-1.690905,9.38168,0.039504327
44,1436988059881,-1.7058687,9.3822775,0.055066638
45,1436988059900,-1.6585833,9.416994,0.04249708
46,1436988059917,-1.6561891,9.431359,0.011971008
47,1436988059939,-1.6537948,9.408614,0.036511578
48,1436988059959,-1.6011224,9.400234,0.0023942017
49,1436988059981,-1.6514006,9.408614,0.034117375
50,1436988060005,-1.7064673,9.416395,0.08798691
51,1436988060029,-1.7004818,9.397242,0.11851298
52,1436988060048,-1.6897079,9.42238,0.05686229
53,1436988060061,-1.7298107,9.396643,0.016759412
54,1436988060081,-1.8046296,9.392453,0.059855044
55,1436988060100,-1.7274165,9.413403,0.076015905
56,1436988060120,-1.5406688,9.365519,0.047884032
57,1436988060140,-1.5945383,9.376891,0.053869538
58,1436988060161,-1.7340006,9.48882,0.08559271
59,1436988060181,-1.7459716,9.411607,0.091578215
60,1436988060200,-1.7202339,9.309854,0.051475335
61,1436988060228,-1.7489643,9.350554,0.05925649
62,1436988060290,-1.7830818,9.43914,0.08738836
63,1436988060291,-1.7160441,9.446921,0.08379706
64,1436988060292,-1.6214731,9.407417,0.075417355
65,1436988060301,-1.5879543,9.381081,0.05207389
66,1436988060319,-1.6412252,9.421184,0.08200141
67,1436988060337,-1.6567876,9.428367,0.10474633
68,1436988060357,-1.638831,9.398438,0.047285482
69,1436988060381,-1.6244658,9.416395,0.0005985504
70,1436988060397,-1.6484078,9.41879,0.07182605
71,1436988060419,-1.6394296,9.413403,0.05626374
72,1436988060443,-1.6663644,9.415796,0.049081136
73,1436988060458,-1.6573862,9.411607,0.01316811
74,1436988060484,-1.6651673,9.412804,0.013766659
75,1436988060500,-1.6490064,9.404425,0.026934769
76,1436988060520,-1.6496049,9.415796,0.013766659
77,1436988060541,-1.714847,9.417592,0.037708677
78,1436988060560,-1.6777369,9.423578,0.008379706
79,1436988060581,-1.6537948,9.3978405,-0.010773907
80,1436988060601,-1.6633717,9.408614,0.035913024
81,1436988060619,-1.7040731,9.430161,0.053869538
82,1436988060640,-1.6561891,9.405023,0.019752163
83,1436988060662,-1.654992,9.408614,-0.0077811554
84,1436988060679,-1.7034745,9.407417,0.023942016
85,1436988060700,-1.7088615,9.405023,0.04249708
86,1436988060720,-1.6609775,9.427768,0.0676362
87,1436988060739,-1.6352397,9.409213,0.0017956513
88,1436988060761,-1.7106571,9.385869,0.061650693
89,1436988060780,-1.7699136,9.402629,0.073023155
90,1436988060801,-1.7178397,9.404425,0.012569559
91,1436988060820,-1.6801311,9.405023,0.014963761
92,1436988060839,-1.7064673,9.440337,0.095169514
93,1436988060862,-1.6932992,9.412804,0.08619126
94,1436988060881,-1.7040731,9.401431,0.022146367
95,1436988060901,-1.7118542,9.411008,0.09876082
96,1436988060919,-1.7651252,9.365519,0.13826515
97,1436988060940,-1.8201919,9.379285,0.08140286
98,1436988061024,-1.8309658,9.387066,0.08678981
99,1436988061025,-1.8602947,9.418191,0.16400282
100,1436988061026,-1.8148049,9.378687,0.10534488
101,1436988061027,-1.797447,9.354745,0.089184016
102,1436988061056,-1.8219875,9.363124,0.108936176
103,1436988061062,-1.8112136,9.36073,0.10235212
104,1436988061100,-1.7818847,9.349358,0.073621705
105,1436988061101,-1.822586,9.3733,0.090381116
106,1436988061145,-1.8177977,9.401431,0.11492168
107,1436988061146,-1.7609353,9.430161,0.108337626
108,1436988061168,-1.7615339,9.394848,0.074220255
109,1436988061192,-1.7884687,9.351153,0.10175357
110,1436988061199,-1.8064252,9.370307,0.09816227
111,1436988061230,-1.8273745,9.380483,0.09876082
112,1436988061247,-1.809418,9.395446,0.13108255
113,1436988061258,-1.70946,9.379884,0.08499416
114,1436988061278,-1.7435774,9.352949,0.10115502
115,1436988061298,-1.8381484,9.39365,0.108337626
116,1436988061326,-1.834557,9.406818,0.11492168
117,1436988061338,-1.775899,9.383475,0.11731588
118,1436988061358,-1.7711107,9.374496,0.10055647
119,1436988061381,-1.7615339,9.383475,0.094570965
120,1436988061404,-1.8351556,9.383475,0.090979666
121,1436988061419,-1.8608932,9.380483,0.11312603
122,1436988061441,-1.8836381,9.363723,0.109534726
123,1436988061461,-1.83336,9.385869,0.13706805
124,1436988061481,-1.8447324,9.337985,0.14963761
125,1436988061501,-1.8860323,9.3738985,0.12509704
126,1436988061523,-1.9117701,9.355343,0.11851298
127,1436988061542,-1.9536686,9.3182335,0.08379706
128,1436988061560,-1.9722236,9.3260145,0.12030864
129,1436988061581,-1.8920178,9.379285,0.12569559
130,1436988061600,-1.8118122,9.324219,0.12389994
131,1436988061621,-1.8986019,9.355343,0.09696517
132,1436988061641,-1.7926586,9.421184,0.12569559
133,1436988061658,-1.7615339,9.348759,0.17238252
134,1436988061696,-1.8375498,9.294291,0.18614918
135,1436988061701,-1.927931,9.361329,0.15981296
136,1436988061719,-1.9482816,9.387665,0.18674773
137,1436988061738,-1.8956091,9.344569,0.16639702
138,1436988061759,-1.8273745,9.3421755,0.12689269
139,1436988061780,-1.893215,9.369708,0.089782566
140,1436988061799,-1.929128,9.361927,0.0700304
141,1436988061819,-1.9812019,9.281123,0.16938977
142,1436988061841,-1.9716251,9.317036,0.17896658
143,1436988061858,-1.9111716,9.333796,0.18375498
144,1436988061882,-1.8698715,9.311649,0.12090719
145,1436988061902,-1.7788919,9.346964,0.110731825
146,1436988061922,-1.8579005,9.321226,0.16579847
147,1436988061942,-1.9554642,9.289502,0.093373865
148,1436988061960,-2.0536265,9.272743,0.08559271
149,1436988061982,-2.1051018,9.299079,0.08259996
150,1436988062002,-2.106299,9.324817,0.0077811554
151,1436988062022,-2.1643584,9.260174,0.08379706
152,1436988062038,-2.088941,9.294291,0.046088383
153,1436988062061,-2.0380642,9.279327,0.076614454
154,1436988062082,-2.0027497,9.3260145,0.10115502
155,1436988062104,-1.893215,9.431359,0.079008654
156,1436988062127,-1.7711107,9.353547,0.05925649
157,1436988062144,-1.6358383,9.361329,-0.034715924
158,1436988062163,-1.5346833,9.494805,-0.023343466
159,1436988062181,-1.5442601,9.558251,-0.0796072
160,1436988062201,-1.5376761,9.464279,-0.17776948
161,1436988062220,-1.5711949,9.412804,-0.24540567
162,1436988062244,-1.6555905,9.437943,-0.24001873
163,1436988062267,-1.7136499,9.402629,-0.31004912
164,1436988062285,-1.7741034,9.366715,-0.3549404
165,1436988062301,-1.7423803,9.414599,-0.40821138
166,1436988062328,-1.6717514,9.443929,-0.46926352
167,1436988062386,-1.6741456,9.443929,-0.47405192
168,1436988062387,-1.8734628,9.49301,-0.427365
169,1436988062388,-2.0398598,9.482236,-0.4770447
170,1436988062410,-2.0991163,9.428367,-0.5291186
171,1436988062420,-2.0338743,9.3738985,-0.4261679
172,1436988062450,-1.9321208,9.355942,-0.40102878
173,1436988062459,-1.8148049,9.40203,-0.44592008
174,1436988062509,-1.8680758,9.419388,-0.43514615
175,1436988062552,-1.7124528,9.552266,-0.3812766
176,1436988062553,-1.7603368,9.436746,-0.27712885
177,1436988062554,-1.769315,9.5253315,-0.15442601
178,1436988062575,-1.726818,9.454702,-0.16938977
179,1436988062635,-1.751957,9.428367,-0.13587095
180,1436988062636,-1.9614497,9.394848,-0.19572599
181,1436988062637,-2.178125,9.36073,-0.27234045
182,1436988062639,-2.2379801,9.3104515,-0.19393034
183,1436988062660,-2.285864,9.320028,-0.18435353
184,1436988062680,-2.3439236,9.304466,-0.22685061
185,1436988062700,-2.3906105,9.281123,-0.22445641
186,1436988062721,-2.4181437,9.294291,-0.29388827
187,1436988062740,-2.3517046,9.2907,-0.21547815
188,1436988062760,-2.0913353,9.321824,-0.19991584
189,1436988062780,-1.8537107,9.448118,-0.14065935
190,1436988062800,-1.6124948,9.541492,-0.10594343
191,1436988062821,-1.4359225,9.566631,-0.12868834
192,1436988062848,-1.6112977,9.4774475,-0.26994625
193,1436988062860,-1.7812861,9.36911,-0.19692309
194,1436988062880,-1.9818004,9.507375,-0.38187516
195,1436988062900,-2.082357,9.309255,-0.40940848
196,1436988062921,-2.2852654,9.127894,-0.16759412
197,1436988062940,-2.516306,9.279327,-0.24121583
198,1436988062960,-2.6659436,9.306861,-0.29568392
199,1436988062980,-2.747945,9.279327,-0.22685061
200,1436988063000,-2.6850972,9.291298,-0.15322891
201,1436988063021,-2.5157075,9.270947,-0.2825158
202,1436988063040,-2.2798786,9.36911,-0.36990416
203,1436988063061,-2.1787236,9.454702,-0.3776853
204,1436988063079,-2.204461,9.419388,-0.35314476
205,1436988063101,-2.1619642,9.353547,-0.24959552
206,1436988063122,-2.086547,9.26556,-0.28550854
207,1436988063139,-2.1027076,9.291298,-0.40102878
208,1436988063161,-2.1021092,9.306861,-0.51235914
209,1436988063184,-2.0602105,9.269751,-0.33518824
210,1436988063205,-2.0171149,9.2547865,-0.4429273
211,1436988063223,-1.9183542,9.306861,-0.58298814
212,1436988063244,-1.7794905,9.376891,-0.6290765
213,1436988063260,-1.7250223,9.341577,-0.63206923
214,1436988063284,-1.726818,9.290101,-0.60453594
215,1436988063304,-1.7100586,9.305065,-0.7134721
216,1436988063324,-1.7836803,9.232041,-0.7020996
217,1436988063339,-1.8818425,9.066243,-0.5434838
218,1436988063364,-1.9728222,8.826823,-0.36750996
219,1436988063384,-1.922544,8.868123,-0.35793316
220,1436988063405,-1.9524715,8.834604,-0.42676646
221,1436988063424,-1.6861166,8.877101,-0.3549404
222,1436988063444,-1.2802993,9.029133,0.08559271
223,1436988063464,-0.98820674,9.194333,0.3788824
224,1436988063480,-1.1701661,9.494805,0.55485624
225,1436988063527,-1.7124528,9.7324295,1.1240777
226,1436988063528,-2.1033063,9.760562,1.8926164
227,1436988063539,-2.1888988,9.519944,2.7114334
228,1436988063560,-2.0739772,9.252991,4.1479545
229,1436988063582,-2.8700492,9.211093,5.2606597
230,1436988063603,-4.27365,9.4062195,5.0104656
231,1436988063625,-5.298967,9.69951,4.2078094
232,1436988063644,-5.767632,9.45171,3.7726634
233,1436988063664,-5.4049106,8.613739,2.5600002
234,1436988063683,-4.2173862,8.220491,3.2477345
235,1436988063702,-3.0998926,8.097789,2.9472623
236,1436988063722,-2.011728,7.9427643,2.6737247
237,1436988063741,-0.94570965,7.732673,2.3642743
238,1436988063844,-0.5129577,7.681796,2.3002293
239,1436988063845,-0.6392518,7.704541,2.3636756
240,1436988063846,-0.76195467,7.799112,2.303222
241,1436988063847,-1.1174936,7.989451,2.0494366
242,1436988063848,-1.7717092,8.142081,1.733402
243,1436988063874,-2.473809,8.22528,1.1186907
244,1436988063882,-3.0382419,8.252813,1.4556746
245,1436988063903,-3.6056678,8.421006,1.9381063
246,1436988063921,-4.0982747,8.603564,2.1583729
247,1436988063943,-4.4861355,9.153033,2.0632033
248,1436988063961,-4.085107,11.455058,2.409764
249,1436988063982,-1.9925743,13.41112,1.0528502
250,1436988064008,-0.4997896,12.492346,0.6356605
251,1436988064022,0.92655605,10.629657,2.043451
252,1436988064043,0.6374562,9.503185,1.6950948
253,1436988064061,0.108337626,9.582193,1.146224
254,1436988064081,-1.1354501,9.670779,-0.04129998
255,1436988064104,-2.0033484,9.266758,-0.12689269
256,1436988064124,-3.0538042,8.303091,1.043872
257,1436988064144,-1.7938557,8.831612,1.5239093
258,1436988064164,-0.6937199,9.173384,0.8026561
259,1436988064184,-1.2318168,8.781333,-0.06584055
260,1436988064205,-1.2192472,8.885481,-0.23942018
261,1436988064225,-1.9315223,9.671378,1.0893618
262,1436988064242,-3.3836055,9.241618,0.9923966
263,1436988064264,-2.6449943,9.14585,-0.35075054
264,1436988064282,-2.6874914,9.050082,0.30346507
265,1436988064301,-3.3464954,9.475053,1.3000516
266,1436988064375,-3.911527,9.326612,1.1965023
267,1436988064376,-3.6110547,9.0016,0.14425065
268,1436988064377,-3.110068,8.889072,-0.0676362
269,1436988064409,-2.7030537,9.095572,0.7906851
270,1436988064410,-2.5761611,8.865729,0.587178
271,1436988064421,-2.2026656,8.8328085,0.7374141
272,1436988064441,-2.5222914,8.72507,0.9552865
273,1436988064461,-2.8006175,9.03871,0.6961141
274,1436988064491,-3.1771057,8.925584,-0.076614454
275,1436988064552,-2.8221653,8.722675,0.57161564
276,1436988064554,-3.252523,8.424597,0.6572084
277,1436988064559,-3.5410242,8.680777,0.6206968
278,1436988064561,-3.7235823,9.056067,0.46926352
279,1436988064585,-3.5924997,9.190742,0.10354923
280,1436988064607,-3.265691,8.447941,0.044891283
281,1436988064631,-2.906561,8.508993,0.3309984
282,1436988064641,-2.697667,8.734647,0.12150574
283,1436988064661,-2.4289176,8.476671,-0.15382746
284,1436988064687,-2.3277626,8.166023,0.54168814
285,1436988064734,-2.5995045,8.253412,0.635062
286,1436988064735,-2.790442,7.8062944,0.4818331
287,1436988064771,-2.6821043,7.6530657,0.9283517
288,1436988064772,-2.878429,7.60578,0.44951138
289,1436988064785,-2.8060043,7.350199,0.207697
290,1436988064801,-2.719813,6.8330517,0.05805939
291,1436988064822,-2.858677,6.356007,0.029927522
292,1436988064842,-3.031658,6.543952,0.54288524
293,1436988064862,-3.292626,7.2149267,0.95947635
294,1436988064882,-2.971803,8.093,0.8900445
295,1436988064902,-2.3343468,8.491036,0.41000703
296,1436988064930,-1.8716671,8.372523,-0.1364695
297,1436988064942,-2.2349873,8.03554,0.11372458
298,1436988064962,-4.3837833,8.637083,1.6699557
299,1436988064982,-4.8177323,9.097368,0.45549688
300,1436988065002,-4.5022964,9.642049,0.13826515
301,1436988065023,-4.349067,9.566033,0.48362875
302,1436988065043,-3.810372,9.34038,1.2431892
303,1436988065066,-3.5224693,8.473679,1.2737153
304,1436988065081,-4.0066967,8.246229,0.39085343
305,1436988065101,-3.7487214,8.55149,0.6979098
306,1436988065121,-3.3129766,8.384495,0.866701
307,1436988065141,-2.7353754,8.297705,0.49081135
308,1436988065161,-2.5791538,8.667608,-0.10654198
309,1436988065181,-3.50152,8.837597,-0.741604
310,1436988065201,-5.1642933,8.054094,-0.45370123
311,1436988065221,-6.421249,7.3819222,0.7068881
312,1436988065241,-6.4032927,8.559271,1.7154455
313,1436988065261,-3.5835214,12.012308,1.6436194
314,1436988065281,-3.857059,14.387955,-0.20649989
315,1436988065301,-3.0963013,13.271659,0.8924387
316,1436988065321,-1.8662802,8.140884,0.8984242
317,1436988065341,-2.6952724,5.42167,2.0165164
318,1436988065361,-4.9865236,5.1487308,1.4466964
319,1436988065381,-7.128137,6.10701,1.8189948
320,1436988065401,-9.118916,8.045116,4.52145
321,1436988065421,-9.351752,8.121731,3.8815994
322,1436988065442,-8.6813755,6.974908,-0.4189853
323,1436988065465,-9.113529,6.0878563,3.70383
324,1436988065483,-11.120468,5.3157263,6.2901664
325,1436988065504,-11.868058,4.0521865,5.9148755
326,1436988065524,-11.128249,2.457648,6.95336
327,1436988065544,-11.170747,2.6743233,7.167641
328,1436988065561,-10.257359,2.2625206,6.269816
329,1436988065585,-9.816826,2.0087352,6.0244102
330,1436988065604,-10.667366,1.4413095,4.4562078
331,1436988065626,-10.163984,0.9498995,3.38181
332,1436988065644,-8.593389,0.55365914,4.4286747
333,1436988065662,-7.860164,-0.15023616,5.475539
334,1436988065684,-6.88333,-0.005985504,5.145139
335,1436988065702,-6.2368956,-0.006584055,4.2060137
336,1436988065724,-6.0519433,-0.16938977,4.582502
337,1436988065744,-5.9023056,0.52732295,4.811747
338,1436988065762,-6.199187,1.2312182,4.571728
339,1436988065782,-6.8204823,1.7483658,4.1934443
340,1436988065802,-7.1472907,2.2146366,3.6511576
341,1436988065822,-7.350199,2.44448,3.433884
342,1436988065843,-7.711724,2.1918917,3.7816415
343,1436988065863,-8.210915,1.8237832,4.2131963
344,1436988065882,-8.436568,1.6172832,4.4358573
345,1436988065902,-8.577228,1.5562311,4.9494133
346,1436988065923,-8.561067,1.8728642,4.996699
347,1436988065944,-9.049484,2.0189106,4.4023385
348,1436988065962,-9.695918,1.9267339,4.396353
349,1436988065982,-9.801263,1.650802,4.164714
350,1436988066004,-9.697116,1.1737574,4.06715
351,1436988066024,-10.144831,0.85772276,3.8121676
352,1436988066043,-10.214263,0.81163436,3.6110547
353,1436988066065,-8.819042,1.6454151,2.9364884
354,1436988066085,-7.9224133,1.7381904,3.0711622
355,1436988066105,-8.717288,1.2904748,2.9514523
356,1436988066125,-9.561244,1.1713632,2.8670566
357,1436988066145,-9.909601,1.0031705,1.9500773
358,1436988066165,-9.792285,0.5943606,1.6364368
359,1436988066185,-9.558251,0.39624038,2.204461
360,1436988066204,-9.226655,0.6799533,2.5821466
361,1436988066225,-9.861118,0.98102415,2.2750902
362,1436988066246,-9.970653,0.87807345,1.8100165
363,1436988066265,-9.93893,0.31184477,1.8788497
364,1436988066285,-10.0269165,0.30466217,1.2755109
365,1436988066305,-9.901221,0.7565677,0.7613561
366,1436988066325,-9.949105,0.7835025,0.8948329
367,1436988066346,-9.93474,0.9624691,-0.25318682
368,1436988066366,-9.479841,1.4838065,-0.88286185
369,1436988066385,-9.464878,1.5951369,-0.46986207
370,1436988066405,-9.31105,1.6765398,-1.1133038
371,1436988066424,-9.263166,1.532289,-1.2791022
372,1436988066445,-9.651027,1.8489223,-1.7585411
373,1436988066474,-9.5492735,2.268506,-1.9674352
374,1436988066484,-9.433753,2.2164323,-1.572392
375,1436988066535,-9.558251,2.043451,-1.4383167
376,1436988066536,-9.464878,2.1218612,-2.202067
377,1436988066547,-9.54209,2.1679497,-2.433706
378,1436988066564,-9.818622,1.5682021,-2.010531
379,1436988066584,-9.747394,1.8650831,-1.917157
380,1436988066603,-9.835979,1.7501614,-1.6645688
381,1436988066624,-10.039486,1.389834,-1.3808558
382,1436988066646,-9.895236,0.90740246,-1.83336
383,1436988066663,-10.2896805,-0.19692309,-1.62686
384,1436988066686,-11.631032,-1.3281834,-1.2240356
385,1436988066704,-12.768876,-1.6992847,-2.8125885
386,1436988066726,-14.039598,-3.1304188,-1.809418
387,1436988066745,-15.100829,-4.159327,-1.7555484
388,1436988066765,-13.524845,-3.2172086,-1.9913772
389,1436988066786,-9.7563715,-0.18076223,-1.6472107
390,1436988066806,-9.254189,2.6198552,-1.7950528
391,1436988066826,-8.875306,3.7738605,-2.19249
392,1436988066845,-7.9092455,4.225766,-1.7830818
393,1436988066865,-7.1071877,3.8013937,-0.9516952
394,1436988066887,-6.173449,4.283227,-0.97264445
395,1436988066907,-5.8999114,5.29777,-0.90859956
396,1436988066926,-5.439626,5.523423,-0.8678981
397,1436988066945,-5.743091,5.5790887,-1.2671312
398,1436988066964,-5.9956794,5.695207,-0.7954735
399,1436988066984,-5.7442884,6.509236,-0.6051345
400,1436988067007,-5.100847,7.801506,-0.5746084
401,1436988067024,-3.9097314,9.642648,-0.2705448
402,1436988067046,-5.8149176,8.111555,-1.5867572
403,1436988067067,-8.411429,6.1195793,-1.6693572
404,1436988067087,-9.282919,4.872799,0.81043726
405,1436988067107,-10.627263,3.3357215,1.4185646
406,1436988067127,-11.571177,2.5959132,1.8495208
407,1436988067144,-11.045051,2.6204538,1.6196774
408,1436988067165,-10.286688,1.9865888,0.9840169
409,1436988067185,-10.492589,0.3441665,2.079364
410,1436988067250,-11.777079,-0.18495208,3.256713
