id,attr_time,attr_x,attr_y,attr_z
1,1436185163431,0.0171967,-0.0132751,0.00888061
2,1436185163451,0.00219727,-0.0055542,0.011734
3,1436185163471,-0.00559998,-0.00183105,0.00888061
4,1436185163494,-0.00523376,-0.000823975,0.00761414
5,1436185163511,-0.0098877,-0.00190735,0.0108948
6,1436185163531,-0.008255,0.00186157,0.0135498
7,1436185163550,-0.00436401,0.00794983,0.0121613
8,1436185163569,-0.00038147,0.00892639,0.00482178
9,1436185163592,-0.00494385,0.00749207,-0.000213623
10,1436185163609,0.00315857,0.00547791,0.00120544
11,1436185163630,0.0271606,0.000640869,-0.000350952
12,1436185163649,0.0277252,0.00787353,-0.00344849
13,1436185163669,0.0120544,0.00588989,-0.00624084
14,1436185163692,0.0107269,-0.00210571,-0.00880432
15,1436185163708,0.0168762,-0.00141907,-0.00234985
16,1436185163727,-0.00166321,-0.00119019,0.0019989
17,1436185163748,-0.016922,-0.00392151,0.00314331
18,1436185163768,-0.0126953,-0.00543213,-0.00228882
19,1436185163790,0.000930786,-0.0020752,-0.00888061
20,1436185163808,0.00674438,0.00221252,-0.00700378
21,1436185163828,0.000213623,0.000823975,-0.00364685
22,1436185163847,-0.0148926,0.0045166,0.00297546
23,1436185163867,-0.0304565,0.00308228,0.00901794
24,1436185163887,-0.0294342,-0.00146484,0.00947571
25,1436185163906,-0.0160065,-0.0018158,0.00250244
26,1436185163925,-0.00202942,-0.00050354,-0.00363159
27,1436185163946,0.000274658,-0.000976562,-0.0052948
28,1436185163966,-0.00115967,-0.00236511,-0.00268555
29,1436185163985,0.001297,-0.00460815,9.15527e-05
30,1436185164005,0.00108337,-0.00471497,0.00267029
31,1436185164025,-0.00236511,-0.000946045,-0.000198364
32,1436185164044,-0.00227356,0.00317383,-0.000274658
33,1436185164064,0.00689697,0.00572205,0.00209045
34,1436185164085,0.0184479,0.00422668,0.00393677
35,1436185164105,0.0170746,-4.57764e-05,6.10352e-05
36,1436185164124,-0.00265503,0.00187683,0.00202942
37,1436185164143,0.00338745,0.00276184,0.00392151
38,1436185164164,0.0271454,0.00270081,0.00131226
39,1436185164183,0.0186005,0.00959778,-0.000335693
40,1436185164223,0.00306702,0.00367737,-0.00463867
41,1436185164241,0.009552,-0.00250244,-0.00495911
42,1436185164265,0.00996399,0.00489807,0.00392151
43,1436185164282,-0.00784302,0.00602722,0.0062561
44,1436185164302,-0.0131226,4.57764e-05,0.00189209
45,1436185164322,-0.00323486,-0.00999451,-0.00553894
46,1436185164342,0.0127411,-0.00886536,-0.00714111
47,1436185164363,0.0184784,-0.00549316,-0.00375366
48,1436185164380,0.0151367,-0.00312805,0.00108337
49,1436185164401,0.00465393,0.00137329,0.00778198
50,1436185164419,-0.00759888,0.00244141,0.0129089
51,1436185164439,-0.0102844,6.10352e-05,0.0121765
52,1436185164463,-0.00160217,-0.00175476,0.00718689
53,1436185164480,0.00436401,-0.0020752,0.00210571
54,1436185164499,0.00871277,-0.00120544,0.000747681
55,1436185164518,0.00900269,0.0015564,0.00212097
56,1436185164539,0.00248718,0.00340271,0.0057373
57,1436185164560,0.00154114,0.00389099,0.00672913
58,1436185164579,0.0119934,0.00474548,0.00514221
59,1436185164598,0.0184021,0.00686645,0.00263977
60,1436185164618,0.0177155,0.0065918,0.00190735
61,1436185164638,0.0166168,0.00604248,0.00267029
62,1436185164660,0.0228271,0.000640869,-0.000396729
63,1436185164677,0.0180054,-0.00639343,-0.00437927
64,1436185164697,-0.00108337,-0.00758362,-0.0062561
65,1436185164716,0.0115204,-0.00784302,-0.00309753
66,1436185164736,0.0359039,-0.00117493,-0.00291443
67,1436185164757,0.0285034,0.0125275,-0.00317383
68,1436185164776,0.0100098,0.00730896,-0.00630188
69,1436185164796,0.0141144,-0.00210571,-0.0092926
70,1436185164815,0.016037,-0.00274658,-0.00349426
71,1436185164834,-0.00250244,-0.00390625,0.000442505
72,1436185164858,-0.0168762,-0.00802612,0.000106812
73,1436185164875,-0.0126343,-0.0116577,-0.00531006
74,1436185164895,0.00448608,-0.00868225,-0.0072937
75,1436185164914,0.0140381,-0.00454712,-0.00387573
76,1436185164935,0.00914001,-0.00419617,-0.000305176
77,1436185164954,-0.00938415,-0.0025177,0.00323486
78,1436185164974,-0.0308838,-0.00408936,0.00714111
79,1436185164993,-0.0349426,-0.00709534,0.004776
80,1436185165012,-0.0257874,-0.00927734,0.00178528
81,1436185165033,-0.0166168,-0.0100555,-0.0019989
82,1436185165052,-0.0197601,-0.00662231,-0.00231934
83,1436185165073,-0.024765,-0.00740051,-0.00175476
84,1436185165092,-0.029007,-0.00958252,-0.00209045
85,1436185165112,-0.0296173,-0.0118256,0.000411987
86,1436185165132,-0.0321808,-0.00700378,0.00302124
87,1436185165153,-0.0245056,-0.00686645,0.0019989
88,1436185165172,-0.0192719,-0.00817871,-4.57764e-05
89,1436185165191,-0.0164032,-0.00852966,-0.000396729
90,1436185165211,-0.0115967,-0.00743103,0.000686646
91,1436185165231,-0.00726318,-0.00578308,-0.0017395
92,1436185165253,-0.0139313,-0.0104828,-0.00453186
93,1436185165291,-0.0187225,-0.00956726,-0.00247192
94,1436185165310,0.000320435,-0.0110474,-0.000900269
95,1436185165331,0.0203705,-0.00267029,-0.00192261
96,1436185165350,0.011322,0.0045929,-0.00314331
97,1436185165368,0.00309753,-0.00354004,-0.00468445
98,1436185165388,0.00595093,-0.00744629,-0.00323486
99,1436185165409,-0.00424194,-0.00526428,0.00193787
100,1436185165431,-0.0235901,-0.00848389,0.00166321
101,1436185165448,-0.0184631,-0.0131989,-0.00134277
102,1436185165468,0.00230408,-0.0135193,-0.00906372
103,1436185165488,0.0153351,-0.00502014,-0.00724792
104,1436185165508,0.0141296,-0.00386047,-0.00473022
105,1436185165530,0.00662231,-0.00340271,0.000411987
106,1436185165546,-0.00631714,-0.00285339,0.00471497
107,1436185165567,-0.0145111,-0.00364685,0.00657654
108,1436185165587,-0.0098877,-0.00675964,0.00239563
109,1436185165607,0.00590515,-0.00868225,-0.00372314
110,1436185165627,0.015976,-0.00901794,-0.00637817
111,1436185165645,0.0150299,-0.00791931,-0.0043335
112,1436185165666,0.0104218,-0.00483704,-0.000274658
113,1436185165684,0.00102234,-0.00308228,0.00357056
114,1436185165706,-0.000320435,-0.00416565,0.00447083
115,1436185165725,0.00601196,-0.00227356,0.00260925
116,1436185165745,0.00889587,-0.00257874,-0.000701904
117,1436185165765,0.0043335,-0.00315857,-0.00193787
118,1436185165784,-7.62939e-05,0.00105286,0.000610352
119,1436185165804,0.00352478,0.00062561,0.00126648
120,1436185165825,0.00398254,-0.00366211,-0.000350952
121,1436185165844,-0.00660706,-0.00311279,-0.00186157
122,1436185165863,-0.0019989,-0.00465393,-0.000289917
123,1436185165883,0.0187531,-0.00038147,0.000106812
124,1436185165903,0.0189514,0.010437,-0.00164795
125,1436185165923,0.0025177,0.00964355,-0.00524902
126,1436185165943,0.00160217,0.00462341,-0.00418091
127,1436185165960,0.00837707,0.00382996,-0.000427246
128,1436185165982,-0.00144958,0.00239563,0.00144958
129,1436185166000,-0.00538635,-0.0014801,0.00114441
130,1436185166024,0.00189209,-0.00444031,-0.0057373
131,1436185166042,0.0175629,-0.00143433,-0.0102386
132,1436185166061,0.0264587,0.000106812,-0.00810242
133,1436185166081,0.0277405,-0.00367737,-0.00299072
134,1436185166101,0.0178375,-0.0015564,0.00361633
135,1436185166123,0.00273132,0.00566101,0.00630188
136,1436185166139,-0.00268555,0.00654602,0.00468445
137,1436185166160,0.0107727,0.00219727,-0.00154114
138,1436185166179,0.0236969,-0.0050354,-0.00634766
139,1436185166200,0.0233917,-0.00563049,-0.00592041
140,1436185166222,0.00921631,0.000350952,-0.00471497
141,1436185166240,-0.00550842,0.00552368,-0.00257874
142,1436185166259,-0.00442505,0.00167847,-0.003479
143,1436185166277,0.0102997,-0.000930786,-0.0040741
144,1436185166299,0.0173492,0.00108337,-0.00401306
145,1436185166338,0.00793457,0.00476074,-0.00511169
146,1436185166358,-0.00442505,0.00648499,-0.0040741
147,1436185166378,-4.57764e-05,0.00323486,-0.00515747
148,1436185166397,0.0124664,-0.00177002,-0.00904846
149,1436185166418,0.00308228,-0.00398254,-0.012619
150,1436185166436,-0.00822449,-0.000823975,-0.00964355
151,1436185166455,-0.00177002,-0.00062561,-0.00636292
152,1436185166477,0.00413513,0.00587463,-0.00598145
153,1436185166498,-0.00541687,0.0107269,-0.0083313
154,1436185166516,-0.00888061,0.0010376,-0.0119476
155,1436185166536,-0.00730896,-0.00471497,-0.0120392
156,1436185166555,-0.0157623,-0.00526428,-0.00665283
157,1436185166575,-0.0326386,-0.00743103,-0.00294495
158,1436185166597,-0.0306244,-0.00932312,-0.00592041
159,1436185166615,-0.0148621,-0.00762939,-0.00801086
160,1436185166634,-0.00038147,-0.00378418,-0.00822449
161,1436185166654,0.00517273,-0.00244141,-0.00460815
162,1436185166674,0.00279236,-0.00250244,-0.00166321
163,1436185166694,-0.0175934,-0.00308228,0.00300598
164,1436185166713,-0.0342102,-0.00579834,0.0025177
165,1436185166733,-0.0370941,-0.00791931,0.00105286
166,1436185166753,-0.0312347,-0.0115662,-0.00343323
167,1436185166771,-0.0340271,-0.0119934,-0.00471497
168,1436185166794,-0.0360718,-0.00973511,-0.00268555
169,1436185166812,-0.0369263,-0.00743103,-0.000442505
170,1436185166831,-0.0317383,-0.00904846,-0.000305176
171,1436185166852,-0.0291595,-0.00843811,0.000671387
172,1436185166870,-0.032196,-0.00793457,0.000717163
173,1436185166894,-0.0311432,-0.00848389,-0.000854492
174,1436185166910,-0.0292969,-0.00952148,0.000839233
175,1436185166931,-0.0176544,-0.00953674,0.0027771
176,1436185166950,-0.00486755,-0.0102081,-0.00138855
177,1436185166971,-0.00848389,-0.0110474,-0.00569153
178,1436185166989,-0.0146027,-0.0107117,-0.00379944
179,1436185167011,0.000961304,-0.0112457,0.000198364
180,1436185167029,0.0167389,-0.00527954,-0.00012207
181,1436185167049,0.00869751,0.000259399,-0.00262451
182,1436185167069,0.00134277,-0.00640869,-0.00746155
183,1436185167091,0.0139313,-0.00857544,-0.00569153
184,1436185167109,0.0124054,-0.00509644,-0.000930786
185,1436185167128,-0.00440979,-0.00686645,0.000198364
186,1436185167149,-0.0100555,-0.0130615,-0.000915527
187,1436185167168,-0.00062561,-0.0162201,-0.00770569
188,1436185167191,0.00660706,-0.0121765,-0.00794983
189,1436185167208,0.0103455,-0.00866699,-0.00468445
190,1436185167228,0.0113831,-0.00720215,-0.00404358
191,1436185167248,0.00366211,-0.00364685,-0.000854492
192,1436185167267,-0.0120697,-0.00419617,0.00100708
193,1436185167287,-0.0143585,-0.0063324,0.000579834
194,1436185167306,-0.0107727,-0.0112305,-0.00134277
195,1436185167324,-0.00823975,-0.0117188,-0.00344849
196,1436185167364,-0.00709534,-0.00848389,-0.00511169
197,1436185167384,-0.00282288,-0.00466919,-0.00408936
198,1436185167403,-0.00325012,-0.00427246,-0.00508118
199,1436185167424,-0.0124054,-0.00764465,-0.00340271
200,1436185167443,-0.0197601,-0.0106659,-0.00245666
201,1436185167463,-0.022171,-0.00865173,-0.00117493
202,1436185167483,-0.0154266,-0.000335693,0.000732422
203,1436185167502,-0.00350952,0.00262451,6.10352e-05
204,1436185167522,0.000457764,-0.00259399,-0.00309753
205,1436185167545,-0.0119629,-0.00828552,-0.00479126
206,1436185167564,-0.0205078,-0.011261,-0.0032959
207,1436185167582,-0.0078125,-0.00933838,-0.00137329
208,1436185167604,-1.52588e-05,-0.000274658,-0.00105286
209,1436185167622,-0.00260925,0.00219727,-0.00265503
210,1436185167643,0.00326538,0.00140381,-0.00273132
211,1436185167663,0.0149689,0.00556946,0.000137329
212,1436185167682,0.0111542,0.00762939,0.00340271
213,1436185167702,0.0118866,0.00111389,0.000167847
214,1436185167721,0.0214081,-0.00743103,-0.00650024
215,1436185167742,0.0378113,-0.00987244,-0.011322
216,1436185167764,0.046051,-0.0042572,-0.0091095
217,1436185167782,0.0503998,-0.0059967,-0.00691223
218,1436185167801,0.0477905,-0.00489807,-0.00274658
219,1436185167821,0.0337219,-0.00299072,0.00193787
220,1436185167841,0.0228424,-0.00151062,0.00300598
221,1436185167863,0.0267487,0.00177002,0.000320435
222,1436185167880,0.034729,0.0032196,-0.00125122
223,1436185167898,0.0345764,0.00434876,-0.00241089
224,1436185167919,0.0299835,0.00483704,-0.00398254
225,1436185167938,0.02388,0.00752258,-0.00462341
226,1436185167962,0.0193939,0.00746155,-0.0039978
227,1436185167978,0.0185089,0.00697327,-0.00404358
228,1436185167999,0.0201721,0.00480652,-0.00294495
229,1436185168019,0.0212402,0.00460815,-0.000610352
230,1436185168037,0.020813,0.0098877,0.00335693
231,1436185168058,0.0190125,0.0083313,0.000228882
232,1436185168078,0.0138702,0.00183105,-0.00939941
233,1436185168098,0.0111237,-0.000686646,-0.0124664
234,1436185168115,0.0263519,0.000473022,-0.0106354
235,1436185168134,0.0336609,0.006073,-0.00994873
236,1436185168157,0.0188141,0.0145111,-0.0071106
237,1436185168174,-0.00479126,0.00708008,-0.0075531
238,1436185168197,-0.00221252,0.00112915,-0.00920105
239,1436185168215,-0.0012207,0.00273132,-0.00776672
240,1436185168236,-0.011322,-0.00108337,-0.00923157
241,1436185168258,-0.0210571,-0.00653076,-0.0127258
242,1436185168276,-0.0242157,-0.00846863,-0.0161438
243,1436185168295,-0.0189056,-0.00543213,-0.0154572
244,1436185168315,-0.00813294,-0.00239563,-0.01297
245,1436185168335,-0.00222778,-0.00125122,-0.0102539
246,1436185168357,-0.0102692,0.000717163,-0.00576782
247,1436185168372,-0.0222168,-0.00285339,-0.00360107
248,1436185168391,-0.0262604,-0.00828552,-0.00198364
249,1436185168432,-0.022644,-0.0121918,-0.00302124
250,1436185168451,-0.0253143,-0.0153961,-0.00674438
251,1436185168471,-0.0301819,-0.0143738,-0.00895691
252,1436185168491,-0.0343628,-0.0158691,-0.0110168
253,1436185168511,-0.0419922,-0.011795,-0.00967407
254,1436185168530,-0.0532989,-0.00843811,-0.00549316
255,1436185168550,-0.0623016,-0.00999451,-0.00382996
256,1436185168569,-0.0605164,-0.0123138,-0.00114441
257,1436185168591,-0.0465393,-0.00761414,0.000366211
258,1436185168612,-0.0344849,-0.00595093,-0.00012207
259,1436185168634,-0.0369873,-0.0101776,-0.00038147
260,1436185168651,-0.0398865,-0.0127411,0.00541687
261,1436185168671,-0.0228119,-0.0153961,0.00820923
262,1436185168690,-0.00247192,-0.0121765,0.00553894
263,1436185168710,0.000473022,-0.00465393,0.00595093
264,1436185168733,-0.00270081,-0.00892639,-0.000106812
265,1436185168749,0.00437927,-0.0140228,-0.00248718
266,1436185168770,0.00305176,-0.0146484,0.000289917
267,1436185168790,-0.0150299,-0.0162354,0.00349426
268,1436185168809,-0.0262451,-0.0209198,-0.000518799
269,1436185168832,-0.0223846,-0.0218658,-0.00437927
270,1436185168848,-0.00263977,-0.0153503,-0.00370789
271,1436185168869,0.0137329,-0.00827026,-0.00263977
272,1436185168887,0.0127411,-0.00523376,0.00260925
273,1436185168909,-0.00973511,-0.00125122,0.0101776
274,1436185168930,-0.0287476,-0.00419617,0.0172119
275,1436185168948,-0.028244,-0.00776672,0.0184326
276,1436185168968,-0.0153961,-0.00538635,0.0169067
277,1436185168987,-0.0038147,-0.00628662,0.011673
278,1436185169007,0.0113373,-0.0063324,0.00509644
279,1436185169027,0.0200958,-0.00845337,-0.00193787
280,1436185169046,0.0162506,-0.0091095,-0.00196838
281,1436185169065,0.00469971,-0.0137482,-0.00358582
282,1436185169087,-0.00827026,-0.0124512,-0.00215149
283,1436185169106,-0.00160217,-0.00888061,-0.000946045
284,1436185169128,0.00990295,-0.00752258,-0.00352478
285,1436185169146,0.0123138,-0.00758362,-0.00933838
286,1436185169164,0.00120544,-0.00543213,-0.00927734
287,1436185169185,0.00579834,-0.0063324,-0.00532532
288,1436185169204,0.016983,0.000152588,-0.00335693
289,1436185169227,0.00738525,0.004776,-0.00514221
290,1436185169244,0.000732422,-0.000198364,-0.00834656
291,1436185169264,0.0103912,-0.00219727,-0.00610352
292,1436185169283,0.0123749,0.00349426,0.0019989
293,1436185169304,-0.00418091,0.00454712,0.00601196
294,1436185169326,-0.00611877,-0.000411987,0.00357056
295,1436185169341,0.015213,-0.00723267,-0.00505066
296,1436185169363,0.0338745,-0.00636292,-0.0127258
297,1436185169381,0.0461121,-0.00471497,-0.0133362
298,1436185169403,0.0476227,-0.00259399,-0.0100708
299,1436185169425,0.0271149,-0.000442505,-0.00416565
300,1436185169442,0.0070343,-0.00265503,-0.000152588
301,1436185169462,0.00714111,-0.00663757,0.000198364
302,1436185169480,0.0177307,-0.00389099,-0.00517273
303,1436185169502,0.0252228,0.000701904,-0.00827026
304,1436185169523,0.0274658,0.00946045,-0.0088501
305,1436185169541,0.031311,0.0160828,-0.00622559
306,1436185169561,0.0297546,0.0198517,-0.00302124
307,1436185169603,0.0205383,0.0177155,-0.00283813
308,1436185169620,0.0148621,0.0190277,0.00297546
309,1436185169640,0.0195312,0.0242157,0.00616455
310,1436185169658,0.0303192,0.0238495,0.00517273
311,1436185169680,0.0318909,0.0207977,0.00134277
312,1436185169700,0.0248718,0.0190887,-0.00169373
313,1436185169718,0.0375977,0.0173798,-0.00038147
314,1436185169739,0.0483856,0.0200348,-0.00210571
315,1436185169758,0.0343933,0.027298,-0.00372314
316,1436185169778,0.0182343,0.0173492,-0.00947571
317,1436185169801,0.0234833,0.00852966,-0.015213
318,1436185169818,0.021225,0.00442505,-0.0158234
319,1436185169837,0.00415039,0.00375366,-0.0166168
320,1436185169858,-0.0111847,0.00108337,-0.0161285
321,1436185169876,-0.0195465,-0.00180054,-0.0176392
322,1436185169897,-0.0227356,0.00335693,-0.0170441
323,1436185169917,-0.00999451,0.00363159,-0.0131378
324,1436185169936,0.00653076,0.00172424,-0.0114899
325,1436185169956,-0.00247192,0.00593567,-0.00674438
326,1436185169975,-0.0215759,0.0100861,-0.00146484
327,1436185169998,-0.0313263,0.00691223,0.00431824
328,1436185170014,-0.0238037,-0.000579834,0.009552
329,1436185170035,-0.00436401,-0.00315857,0.0108032
330,1436185170054,0.0169983,0.000946045,0.0109558
331,1436185170075,0.0238037,0.00746155,0.0098114
332,1436185170097,0.0109863,0.00323486,0.0108795
333,1436185170114,-0.0140991,-0.0234528,0.00822449
334,1436185170134,-0.023941,-0.0390625,0.0122223
335,1436185170154,-0.0277557,-0.0414581,0.0137024
336,1436185170173,-0.0265961,-0.0343781,0.00764465
337,1436185170195,-0.0317841,-0.0131683,0.00846863
338,1436185170213,0.00219727,0.00250244,0.0102234
339,1436185170233,0.055191,0.0150757,0.00967407
340,1436185170253,0.110596,0.0417328,0.0231934
341,1436185170273,0.130783,0.0748749,0.0468597
342,1436185170290,0.0771484,0.0873413,0.0721741
343,1436185170312,-0.0556793,0.0713654,0.094223
344,1436185170331,-0.214111,0.0292053,0.0939484
345,1436185170351,-0.338028,-0.0310822,0.066391
346,1436185170371,-0.381119,-0.0743713,0.0454712
347,1436185170391,-0.473129,-0.0807648,-1.52588e-05
348,1436185170411,-0.521255,-0.0423584,0.000991821
349,1436185170430,-0.541717,-0.00721741,0.0131073
350,1436185170450,-0.553253,0.00750732,0.0227814
351,1436185170469,-0.602295,0.0139771,0.0356445
352,1436185170492,-0.720947,0.0135193,0.048111
353,1436185170509,-0.767502,-0.000946045,0.0698853
354,1436185170529,-0.910141,-0.0103607,0.0667725
355,1436185170549,-1.00223,-0.021347,0.0943146
356,1436185170569,-0.87204,-0.0463867,0.0877075
357,1436185170591,-0.667892,-0.0693512,0.0892944
358,1436185170607,-0.374588,-0.0756378,0.0935211
359,1436185170628,-0.247986,-0.0901794,0.0690765
360,1436185170670,-0.304703,-0.082077,0.0564117
361,1436185170688,-0.362015,-0.0705109,0.040863
362,1436185170707,-0.334076,-0.0727997,0.0171509
363,1436185170726,-0.227203,-0.0527954,0.00817871
364,1436185170747,-0.181305,-0.033371,-0.0162506
365,1436185170767,-0.239334,-0.0145569,-0.0529327
366,1436185170784,-0.171997,-0.00845337,-0.0497284
367,1436185170806,0.0135345,-0.00930786,-0.0326386
368,1436185170824,0.195801,-0.0140839,0.00761414
369,1436185170846,0.181427,-0.0400238,0.00935364
370,1436185170868,-0.083847,-0.0662689,0.0271301
371,1436185170885,-0.217545,-0.0795898,0.040863
372,1436185170905,-0.2276,-0.0722504,0.0589905
373,1436185170923,-0.132782,-0.0647888,0.0885467
374,1436185170944,-0.0339966,-0.0615997,0.142685
375,1436185170967,0.0100098,-0.0484619,0.200684
376,1436185170984,0.161728,-0.0249329,0.260818
377,1436185171004,0.378799,0.0221252,0.312439
378,1436185171023,0.575241,0.0539856,0.337387
379,1436185171043,0.676559,0.0879059,0.34549
380,1436185171065,0.712433,0.126999,0.332443
381,1436185171083,0.653763,0.157089,0.322388
382,1436185171101,0.53775,0.165817,0.299347
383,1436185171122,0.411713,0.144714,0.262573
384,1436185171141,0.31279,0.114777,0.215942
385,1436185171165,0.221008,0.0943909,0.160919
386,1436185171182,0.174149,0.089325,0.111725
387,1436185171201,0.172226,0.0927887,0.0735016
388,1436185171221,0.17955,0.098175,0.0515594
389,1436185171241,0.232742,0.0905304,0.0331574
390,1436185171263,0.320389,0.0758972,0.021347
391,1436185171281,0.397766,0.0769043,0.0181885
