id,attr_time,attr_x,attr_y,attr_z
1,1436182170003,-0.38307226,-10.01315,1.5412674
2,1436182170023,-0.33638534,-10.010756,1.5053543
3,1436182170040,-0.30047232,-10.005967,1.4945804
4,1436182170063,-0.2885013,-10.030508,1.4826094
5,1436182170083,-0.32142156,-10.035895,1.459266
6,1436182170103,-0.39863458,-10.016742,1.4718355
7,1436182170118,-0.40761283,-10.02153,1.4718355
8,1436182170140,-0.36152446,-10.022727,1.4903905
9,1436182170160,-0.29149407,-10.020332,1.4945804
10,1436182170180,-0.26515785,-10.038888,1.4879963
11,1436182170205,-0.33518824,-10.02572,1.4562732
12,1436182170226,-0.38187516,-10.042479,1.4760253
13,1436182170241,-0.36272156,-10.093954,1.508347
14,1436182170263,-0.40282443,-10.042479,1.4820108
15,1436182170280,-0.427365,-9.986814,1.423353
16,1436182170300,-0.3878607,-9.969456,1.4269443
17,1436182170319,-0.33758244,-9.968858,1.3880384
18,1436182170341,-0.33638534,-10.007165,1.3880384
19,1436182170366,-0.37469256,-10.047267,1.3928268
20,1436182170380,-0.41958386,-10.073005,1.4556746
21,1436182170400,-0.4261679,-10.1065235,1.4909891
22,1436182170426,-0.42197806,-10.077195,1.4616601
23,1436182170457,-0.37588966,-10.0269165,1.46585
24,1436182170461,-0.30047232,-10.059238,1.4981717
25,1436182170479,-0.25079262,-10.049063,1.5005659
26,1436182170500,-0.2873042,-10.044873,1.4909891
27,1436182170522,-0.30526072,-10.028712,1.5113398
28,1436182170539,-0.30526072,-10.040684,1.4862007
29,1436182170562,-0.32561144,-10.049662,1.5113398
30,1436182170580,-0.320823,-10.080188,1.5508442
31,1436182170600,-0.29688102,-10.081984,1.5801731
32,1436182170623,-0.272939,-10.084976,1.5622166
33,1436182170641,-0.24181437,-10.022128,1.5442601
34,1436182170660,-0.2645593,-10.001179,1.5388732
35,1436182170683,-0.2765303,-10.024523,1.525705
36,1436182170703,-0.28790274,-10.049662,1.5292963
37,1436182170723,-0.29568392,-10.065224,1.5173253
38,1436182170741,-0.36032736,-10.028712,1.5334862
39,1436182170763,-0.36990416,-10.051457,1.5304934
40,1436182170783,-0.30825347,-10.050261,1.5873557
41,1436182170803,-0.17657238,-10.044274,1.5053543
42,1436182170822,-0.24899697,-10.019734,1.4562732
43,1436182170841,-0.43155485,-10.041282,1.4873978
44,1436182170863,-0.45429978,-10.04607,1.5233108
45,1436182170883,-0.41479546,-9.969456,1.4850036
46,1436182170903,-0.32441434,-9.94312,1.4915876
47,1436182170921,-0.26994625,-9.977237,1.4879963
48,1436182170942,-0.30825347,-9.976639,1.4616601
49,1436182170963,-0.36152446,-10.00477,1.4478935
50,1436182170983,-0.36391866,-10.022727,1.4802152
51,1436182171003,-0.35673606,-10.038888,1.5131354
52,1436182171023,-0.38965634,-10.056246,1.5011644
53,1436182171042,-0.45130703,-10.043676,1.4957775
54,1436182171062,-0.4177882,-10.07121,1.4502877
55,1436182171081,-0.3842694,-10.000581,1.4784195
56,1436182171161,-0.36750996,-9.9928,1.4814123
57,1436182171162,-0.350152,-9.977836,1.4814123
58,1436182171163,-0.33997664,-9.988609,1.4999673
59,1436182171164,-0.35673606,-10.012551,1.5101427
60,1436182171181,-0.3196259,-10.014347,1.5735891
61,1436182171201,-0.26036942,-10.043676,1.5717934
62,1436182171220,-0.24839842,-10.040684,1.5957354
63,1436182171240,-0.24420857,-10.04607,1.5885528
64,1436182171261,-0.24899697,-10.067019,1.6089035
65,1436182171283,-0.25079262,-10.043077,1.6059108
66,1436182171301,-0.23104046,-10.005967,1.5640123
67,1436182171321,-0.22625206,-10.018537,1.5676036
68,1436182171342,-0.23463176,-10.044274,1.5753847
69,1436182171364,-0.27952304,-10.044873,1.5586253
70,1436182171384,-0.2896984,-10.07121,1.5891514
71,1436182171403,-0.2657564,-10.092158,1.5831659
72,1436182171424,-0.27712885,-10.0825815,1.5777789
73,1436182171444,-0.34955344,-10.009559,1.501763
74,1436182171464,-0.3549404,-10.0508585,1.5478514
75,1436182171482,-0.25198972,-10.061633,1.5598224
76,1436182171504,-0.2681506,-9.988609,1.5185224
77,1436182171524,-0.31663316,-9.968259,1.5167267
78,1436182171543,-0.29149407,-9.9550905,1.5173253
79,1436182171564,-0.29328972,-9.987412,1.4502877
80,1436182171584,-0.31244332,-10.020332,1.4257472
81,1436182171603,-0.32441434,-10.032902,1.4736311
82,1436182171625,-0.36391866,-10.044274,1.4802152
83,1436182171641,-0.35075054,-10.0029745,1.4634558
84,1436182171663,-0.3405752,-10.012551,1.4490906
85,1436182171684,-0.30406362,-10.056845,1.4933833
86,1436182171704,-0.25797522,-10.02153,1.5065514
87,1436182171722,-0.2777274,-10.019734,1.5227122
88,1436182171745,-0.2705448,-10.019734,1.5508442
89,1436182171763,-0.260968,-10.041282,1.5346833
90,1436182171783,-0.26036942,-10.049662,1.520318
91,1436182171803,-0.27712885,-10.053253,1.5209166
92,1436182171822,-0.30466217,-10.05445,1.5412674
93,1436182171869,-0.2908955,-10.042479,1.5496471
94,1436182171870,-0.2693477,-10.038888,1.5334862
95,1436182171888,-0.25378537,-10.076596,1.5221137
96,1436182171902,-0.27832595,-10.080787,1.5035586
97,1436182171921,-0.36272156,-10.071808,1.5053543
98,1436182171941,-0.40880993,-10.053253,1.4784195
99,1436182171961,-0.35314476,-10.01315,1.4742297
100,1436182171983,-0.2885013,-9.986216,1.4203602
101,1436182172002,-0.2837129,-9.980828,1.42455
102,1436182172022,-0.29388827,-10.009559,1.4694413
103,1436182172042,-0.25139117,-10.042479,1.5035586
104,1436182172062,-0.27234045,-10.070611,1.4742297
105,1436182172081,-0.3274071,-9.998785,1.4508862
106,1436182172103,-0.25977087,-10.018537,1.536479
107,1436182172125,-0.16519992,-9.978435,1.4981717
108,1436182172143,-0.17118542,-9.955689,1.4945804
109,1436182172165,-0.23882163,-9.986216,1.4939818
110,1436182172185,-0.32202014,-9.949704,1.4580688
111,1436182172204,-0.33399114,-9.949105,1.3880384
112,1436182172225,-0.32920274,-9.981427,1.3605051
113,1436182172245,-0.31483752,-10.039486,1.3994108
114,1436182172264,-0.32321724,-10.067618,1.4089876
115,1436182172282,-0.31423897,-10.070012,1.412579
116,1436182172305,-0.27593175,-10.109517,1.471237
117,1436182172324,-0.24959552,-10.087969,1.5005659
118,1436182172345,-0.2717419,-10.049662,1.4808137
119,1436182172366,-0.29628247,-10.038888,1.4820108
120,1436182172383,-0.24720132,-10.018537,1.46585
121,1436182172404,-0.15622166,-9.99639,1.4909891
122,1436182172424,-0.14963761,-10.050261,1.501763
123,1436182172442,-0.12449849,-10.079589,1.4796166
124,1436182172465,-0.16699557,-10.110115,1.4951789
125,1436182172486,-0.2112883,-10.101735,1.4975731
126,1436182172503,-0.27234045,-10.114903,1.4927847
127,1436182172523,-0.28431144,-10.102933,1.4796166
128,1436182172551,-0.21428105,-10.067618,1.4556746
129,1436182172621,-0.13826515,-10.057443,1.4664485
130,1436182172622,-0.12808979,-10.042479,1.4730326
131,1436182172623,-0.15442601,-10.010756,1.4574703
132,1436182172624,-0.18734628,-10.002377,1.4514848
133,1436182172642,-0.19153613,-10.014946,1.471237
134,1436182172662,-0.21547815,-10.086173,1.4760253
135,1436182172682,-0.23642741,-10.092757,1.435324
136,1436182172707,-0.32202014,-10.042479,1.407192
137,1436182172722,-0.34237084,-10.053851,1.4550761
138,1436182172744,-0.23762453,-10.03769,1.4323312
139,1436182172763,-0.2148796,-9.9951935,1.3820529
140,1436182172782,-0.2753332,-10.01734,1.4191631
141,1436182172809,-0.2669535,-10.046669,1.4466964
142,1436182172825,-0.2837129,-10.023325,1.4281414
143,1436182172845,-0.29628247,-10.017939,1.3563153
144,1436182172866,-0.31543607,-10.090961,1.3676877
145,1436182172884,-0.35673606,-10.0903635,1.4000094
146,1436182172905,-0.33758244,-10.0748005,1.3623008
147,1436182172926,-0.2873042,-10.062231,1.3856442
148,1436182172945,-0.1933318,-10.049063,1.4311341
149,1436182172965,-0.16699557,-10.019135,1.4496891
150,1436182172986,-0.2777274,-10.040085,1.4251486
151,1436182173003,-0.31603462,-10.070012,1.3892355
152,1436182173025,-0.35075054,-10.079589,1.3868413
153,1436182173046,-0.3585317,-10.09994,1.389834
154,1436182173065,-0.3716998,-10.065224,1.4239515
155,1436182173086,-0.30107087,-10.053253,1.4275428
156,1436182173105,-0.21667525,-10.0664215,1.4239515
157,1436182173125,-0.24420857,-10.05445,1.4329298
158,1436182173146,-0.29867667,-10.041282,1.4652514
159,1436182173165,-0.29927522,-10.036493,1.4790181
160,1436182173186,-0.27593175,-10.030508,1.4754268
161,1436182173206,-0.25797522,-10.022128,1.4401124
162,1436182173225,-0.25019407,-9.987412,1.4466964
163,1436182173245,-0.18674773,-10.08737,1.4975731
164,1436182173272,-0.19572599,-10.203489,1.4879963
165,1436182173342,-0.3609259,-10.17835,1.5705963
166,1436182173343,-0.38726214,-10.012551,1.541866
167,1436182173344,-0.29508537,-9.890448,1.3844471
168,1436182173345,-0.18136078,-10.020931,1.4012065
169,1436182173365,-0.12928689,-10.129868,1.4736311
170,1436182173384,-0.20590134,-10.06283,1.4951789
171,1436182173402,-0.25258827,-9.944317,1.5412674
172,1436182173422,-0.23283611,-9.856929,1.5460558
173,1436182173454,-0.19512744,-9.920375,1.3814543
174,1436182173473,-0.30705637,-10.071808,1.2551602
175,1436182173482,-0.51116204,-10.195708,1.3940239
176,1436182173503,-0.5189432,-10.195708,1.6053122
177,1436182173523,-0.362123,-10.11251,1.6543933
178,1436182173545,-0.32202014,-10.136452,1.7345991
179,1436182173565,-0.18016368,-10.156203,1.6651673
180,1436182173586,-0.22445641,-10.033501,1.6382325
181,1436182173607,-0.2705448,-10.000581,1.6232687
182,1436182173626,-0.36511576,-10.056845,1.525705
183,1436182173646,-0.5069722,-10.139444,1.5179238
184,1436182173666,-0.61890113,-10.101735,1.5185224
185,1436182173686,-0.7673417,-10.063428,1.5442601
186,1436182173706,-0.8571242,-10.022727,1.5945383
187,1436182173724,-0.87927055,-9.961675,1.6298528
188,1436182173744,-0.8194155,-9.885659,1.6555905
189,1436182173766,-0.82779527,-9.901819,1.6585833
190,1436182173784,-0.908001,-9.867104,1.6136919
191,1436182173803,-0.93254155,-9.773131,1.6765398
192,1436182173823,-0.97144735,-9.705495,1.7735049
193,1436182173846,-1.0414777,-9.712678,1.839944
194,1436182173866,-1.1384429,-9.7958765,1.8908207
195,1436182173886,-1.2395979,-9.871892,1.9177556
196,1436182173906,-1.3329718,-9.920973,1.9422961
197,1436182173924,-1.328782,-10.007763,2.0404584
198,1436182173943,-1.2198458,-9.991602,2.1021092
199,1436182173963,-1.127669,-10.016742,2.1571758
200,1436182173986,-1.0073603,-10.047866,2.136825
201,1436182174004,-0.9259575,-9.965266,2.106299
202,1436182174078,-0.9660604,-9.9712515,2.1308396
203,1436182174079,-0.96785605,-9.978435,2.0979192
204,1436182174080,-0.8924387,-10.025121,2.0284874
205,1436182174088,-0.76434886,-9.993398,1.9632454
206,1436182174105,-0.6536171,-9.8515415,1.7896658
207,1436182174125,-0.6536171,-9.882666,1.7196354
208,1436182174143,-0.45010993,-10.032902,1.804031
209,1436182174163,-0.18674773,-10.31063,1.7818847
210,1436182174186,-0.13587095,-10.539276,1.6065093
211,1436182174205,-0.4309563,-10.366295,1.4293385
212,1436182174224,-0.6560113,-9.929952,1.2880806
213,1436182174244,-0.6919243,-9.5732155,1.2509704
214,1436182174269,-0.51116204,-9.5570545,1.1659763
215,1436182174287,-0.23223756,-10.012551,1.0480618
216,1436182174307,0.15622166,-10.456078,0.91697925
217,1436182174327,0.1592144,-10.643424,0.8858546
218,1436182174347,-0.22385786,-10.411186,1.0001777
219,1436182174367,-0.7386112,-9.874885,1.1270704
220,1436182174386,-1.13964,-9.376292,1.2348095
221,1436182174406,-1.2120646,-9.200318,1.2665327
222,1436182174427,-0.95349085,-8.962095,1.3611037
223,1436182174447,-0.54408234,-8.975264,1.417966
224,1436182174466,-0.24061728,-9.029732,1.4544775
225,1436182174485,-0.05267244,-9.139266,1.2521675
226,1436182174507,0.06344634,-9.324817,0.9840169
227,1436182174525,-0.055066638,-9.595362,0.7505822
228,1436182174544,-0.2657564,-9.928156,0.46208093
229,1436182174563,-0.64942724,-10.323798,0.26515785
230,1436182174587,-1.0319009,-10.630854,0.41838676
231,1436182174607,-1.508347,-10.761936,0.5129577
232,1436182174627,-2.3145945,-10.720636,0.3298013
233,1436182174647,-2.3415294,-10.8624935,0.3866636
234,1436182174666,-2.022502,-11.131242,0.2657564
235,1436182174684,-1.7866731,-11.449073,0.09935937
236,1436182174704,-1.6675615,-11.860276,0.10055647
237,1436182174727,-1.9273324,-12.118851,-0.092176765
238,1436182174744,-2.3181858,-12.013506,-0.24061728
239,1436182174796,-2.5270798,-12.6539545,0.11432313
240,1436182174797,-2.1960814,-12.572552,0.57640404
241,1436182174814,-2.3439236,-12.400767,0.96187055
242,1436182174824,-2.553416,-12.167333,1.8818425
243,1436182174848,-2.2349873,-11.385626,2.532467
244,1436182174867,-1.5304934,-10.058042,3.3752258
245,1436182174884,-1.3186066,-8.222886,4.0916905
246,1436182174906,-2.0392613,-6.9623384,4.4478283
247,1436182174924,-2.955642,-6.691794,4.252701
248,1436182174947,-3.293823,-7.2490444,3.716998
249,1436182174970,-2.7269957,-8.496424,3.0783448
250,1436182174985,-2.0087352,-9.44752,2.4007857
251,1436182175004,-1.7495629,-9.937733,2.0213048
252,1436182175027,-1.9189527,-9.924564,2.0003555
253,1436182175047,-1.9500773,-9.35235,2.2218192
254,1436182175067,-1.8938135,-8.947132,2.3451207
255,1436182175086,-1.6915035,-8.192958,2.421735
256,1436182175107,-1.5107412,-7.693767,2.3181858
257,1436182175127,-1.508347,-7.433398,2.1883004
258,1436182175144,-1.5544355,-7.427412,2.1021092
259,1436182175164,-1.5340848,-7.790134,2.0213048
260,1436182175184,-1.4556746,-8.169615,1.9363106
261,1436182175244,-1.3904326,-8.421006,1.8854338
262,1436182175245,-1.3850456,-8.576031,1.8776526
263,1436182175246,-1.4454993,-8.786121,2.0057425
264,1436182175266,-1.6005238,-8.917803,2.332551
265,1436182175286,-1.7986441,-9.0016,2.5839422
266,1436182175305,-1.8309658,-9.139865,2.741361
267,1436182175330,-1.7968484,-9.225458,2.8473043
268,1436182175350,-1.7842789,-9.290101,2.9903579
269,1436182175370,-1.8477252,-9.46009,3.228581
270,1436182175388,-1.6711528,-9.739613,3.3022027
271,1436182175405,-1.4143747,-10.1621895,3.2154129
272,1436182175429,-1.3042414,-10.688315,3.0963013
273,1436182175445,-1.5454572,-11.194689,2.9029696
274,1436182175467,-2.098518,-11.431715,2.7856536
275,1436182175485,-2.2942438,-11.971008,2.8538885
276,1436182175542,-1.9093759,-12.759299,2.2349873
277,1436182175547,-1.6005238,-12.977172,1.9440918
278,1436182175558,-1.9165585,-13.090897,2.208651
279,1436182175568,-2.3355439,-12.067375,2.110489
280,1436182175587,-2.6731262,-10.769718,2.1930888
281,1436182175607,-2.903568,-9.78989,2.067393
282,1436182175625,-2.8736405,-9.197326,1.714847
283,1436182175645,-2.2391772,-9.218874,1.4873978
284,1436182175668,-1.3754689,-9.625888,1.2431892
285,1436182175686,-0.94092125,-10.205883,1.0103531
286,1436182175707,-0.8463503,-10.401609,0.9355343
287,1436182175726,-0.9307459,-10.3226,0.94810385
288,1436182175749,-1.1959038,-9.891046,0.96426475
289,1436182175768,-1.6035166,-9.308058,0.9259575
290,1436182175788,-1.8477252,-8.646061,0.86610246
291,1436182175808,-1.8357542,-8.108562,0.79607207
292,1436182175828,-1.6861166,-7.757812,0.8218097
293,1436182175848,-1.5029601,-7.66384,0.8996213
294,1436182175868,-1.3018472,-7.792528,0.98461545
295,1436182175888,-0.95708215,-8.031948,1.0402806
296,1436182175908,-0.65242,-8.2169,1.0133458
297,1436182175928,-0.58897364,-8.782531,0.87448215
298,1436182175946,-0.5931635,-9.687539,0.81642276
299,1436182175965,-0.42676646,-9.973646,0.7679402
300,1436182175988,-0.6913257,-9.982025,0.8607155
301,1436182176006,-1.0283096,-10.28549,1.0594343
302,1436182176027,-1.2497733,-10.57878,1.1899183
303,1436182176045,-1.4443022,-10.842142,1.4101849
304,1436182176069,-1.5346833,-10.909779,1.6232687
305,1436182176089,-1.7316064,-11.183915,1.8154035
306,1436182176171,-2.0392613,-11.900978,2.1960814
307,1436182176172,-2.2427685,-13.492524,2.7629087
308,1436182176185,-1.8854338,-14.201806,2.8353333
309,1436182176186,-1.7202339,-13.934254,2.9753942
310,1436182176187,-2.397793,-12.598887,3.555988
311,1436182176205,-3.2381577,-10.738593,3.8426938
312,1436182176228,-3.4859576,-8.686762,3.3063924
313,1436182176258,-3.7056258,-7.2789717,2.2349873
314,1436182176273,-4.156933,-7.2382703,1.091756
315,1436182176285,-4.341286,-7.872135,0.107140526
316,1436182176306,-4.24073,-8.504205,-0.31184477
317,1436182176326,-3.822343,-9.028535,-0.11552023
318,1436182176346,-2.9975405,-9.360131,0.4842273
319,1436182176366,-2.4121583,-9.361329,1.1019313
320,1436182176386,-1.0666169,-9.139865,1.4227544
321,1436182176406,-0.1376666,-8.696938,1.9303252
322,1436182176431,0.08559271,-8.206126,2.285864
323,1436182176445,0.0005985504,-7.8326306,2.367267
324,1436182176469,-0.11492168,-7.7039423,2.3535004
325,1436182176486,-0.06284779,-7.881712,2.582745
326,1436182176505,0.018555064,-8.239047,2.8814218
327,1436182176526,0.088585466,-8.524555,3.204639
328,1436182176546,0.26515785,-8.842385,3.2878375
329,1436182176566,0.46208093,-9.144054,2.9741971
330,1436182176586,0.40102878,-9.64145,2.7042508
331,1436182176606,-0.065242,-10.246585,2.6898856
332,1436182176626,-0.86610246,-10.439318,2.8257565
333,1436182176648,-1.6609775,-10.484808,2.8634653
334,1436182176667,-2.0416555,-10.547057,2.8748376
335,1436182176687,-2.0679917,-10.720038,2.7473464
336,1436182176706,-2.0219033,-10.817602,2.4343045
337,1436182176727,-1.7465701,-11.349713,2.0667946
338,1436182176747,-1.283292,-13.239936,1.5215151
339,1436182176770,-1.2485762,-14.578893,0.8283938
340,1436182176789,-1.9045875,-14.799758,0.65182143
341,1436182176809,-2.308609,-13.666702,0.717662
342,1436182176826,-2.5210943,-12.498331,1.4030021
343,1436182176847,-2.7766755,-11.686098,1.5041572
344,1436182176866,-2.734777,-10.999561,0.90500826
345,1436182176887,-2.4624364,-10.569802,0.3573346
346,1436182176909,-1.9662381,-10.245986,0.47285482
347,1436182176928,-1.365892,-9.876082,0.8086416
348,1436182176945,-0.82899237,-9.326612,0.9816227
349,1436182176965,-0.4770447,-8.728661,0.919972
350,1436182176985,-0.24181437,-8.100183,0.81761986
351,1436182177009,-0.074220255,-7.85777,0.8924387
352,1436182177025,-0.05207389,-7.5824366,0.9498995
353,1436182177046,-0.05686229,-7.639299,1.0402806
354,1436182177070,-0.089782566,-7.790134,1.086369
355,1436182177090,-0.059855044,-7.9487495,1.1204864
356,1436182177110,-0.047285482,-8.365341,1.0630256
357,1436182177130,-0.2184709,-8.798691,0.85293436
358,1436182177146,-0.4842273,-8.842984,0.7032967
359,1436182177170,-0.78529817,-9.121908,0.6572084
360,1436182177189,-1.1456255,-9.64145,0.58298814
361,1436182177210,-1.5454572,-10.272921,0.53689975
362,1436182177229,-2.0081367,-10.7116585,0.6087258
363,1436182177250,-2.1679497,-10.827777,0.8750807
364,1436182177267,-2.2080526,-11.043256,1.2515689
365,1436182177287,-2.0853498,-11.212047,1.6651673
366,1436182177309,-1.666963,-11.140819,2.1523874
367,1436182177327,-1.5975311,-11.584345,2.6318262
368,1436182177347,-1.4024036,-12.810176,3.2585084
369,1436182177368,-0.85891986,-13.572131,3.2854433
370,1436182177391,-0.97982705,-13.040618,3.863643
371,1436182177411,-2.119467,-11.87943,4.4502225
372,1436182177431,-2.9083564,-10.28549,4.7518916
373,1436182177450,-3.0496144,-8.882488,4.2957964
374,1436182177468,-3.120842,-8.082227,3.4500446
375,1436182177487,-3.3889925,-7.891887,2.7287915
376,1436182177508,-3.436278,-7.9427643,1.9482816
377,1436182177528,-2.930503,-7.8835077,1.4682442
378,1436182177550,-2.1308396,-7.8667483,1.4251486
379,1436182177603,-1.3910311,-7.709928,1.6059108
380,1436182177616,-0.8834604,-7.5148005,1.6310499
381,1436182177617,-0.5153519,-7.472902,1.5574282
382,1436182177627,-0.26156655,-7.6081743,1.4443022
383,1436182177653,-0.108936176,-7.852383,1.4047978
384,1436182177667,-0.12090719,-8.016386,1.3994108
385,1436182177688,-0.35075054,-8.656237,1.584363
386,1436182177712,-0.7577648,-9.218275,2.0254946
387,1436182177727,-0.97743285,-9.808446,2.4744074
388,1436182177761,-0.7493851,-10.0029745,2.7641058
389,1436182177768,-0.51595044,-9.874885,2.9825768
390,1436182177793,-0.641646,-9.705495,3.181894
391,1436182177809,-1.0462662,-9.7007065,3.144784
392,1436182177830,-1.3096284,-9.834782,2.9215245
393,1436182177851,-1.4209588,-10.096349,2.553416
394,1436182177870,-1.4682442,-10.44231,2.2547395
395,1436182177890,-1.4395138,-10.718841,2.019509
396,1436182177910,-1.5682021,-10.852917,1.8082209
397,1436182177930,-1.5819688,-11.186309,1.9548657
398,1436182177950,-1.4790181,-12.504317,1.9877859
399,1436182177970,-1.3186066,-14.673464,1.6962919
400,1436182177991,-1.9680338,-15.337854,1.3611037
401,1436182178012,-2.9406781,-14.328698,1.5502456
402,1436182178028,-3.3638535,-12.752715,2.1751323
