id,attr_time,attr_x,attr_y,attr_z
1,1436548932013,-0.59256494,10.241198,0.9020155
2,1436548932034,-0.6434417,10.234015,0.87328506
3,1436548932055,-0.676362,10.199898,0.9056068
4,1436548932112,-0.7015011,10.180145,0.8888474
5,1436548932123,-0.76075757,10.144233,0.8595184
6,1436548932124,-0.8122329,10.1861315,0.8571242
7,1436548932150,-0.789488,10.228628,0.8074445
8,1436548932155,-0.7302315,10.199299,0.81402856
9,1436548932173,-0.7194576,10.165182,0.79367787
10,1436548932199,-0.6757634,10.166978,0.81163436
11,1436548932214,-0.65541273,10.161591,0.81881696
12,1436548932235,-0.7290344,10.174759,0.8146271
13,1436548932255,-0.8206126,10.209475,0.80325466
14,1436548932276,-0.85473,10.225636,0.81881696
15,1436548932297,-0.84335756,10.218452,0.81043726
16,1436548932319,-0.8295909,10.192716,0.8415619
17,1436548932336,-0.8295909,10.22384,0.80684596
18,1436548932355,-0.8098387,10.163386,0.8451532
19,1436548932376,-0.79607207,10.152014,0.8343793
20,1436548932397,-0.878672,10.179547,0.79367787
21,1436548932417,-0.95947635,10.181941,0.83138657
22,1436548932436,-0.98222125,10.170568,0.88286185
23,1436548932455,-0.95229375,10.143634,0.8774749
24,1436548932476,-0.9367314,10.16578,0.90859956
25,1436548932495,-0.9223662,10.15381,0.9032126
26,1436548932516,-0.92655605,10.165182,0.89064306
27,1436548932539,-0.90261406,10.126875,0.88286185
28,1436548932612,-0.8972271,10.134057,0.8738836
29,1436548932631,-0.86131406,10.121488,0.908001
30,1436548932642,-0.8170213,10.1382475,0.908001
31,1436548932643,-0.79487497,10.1544075,0.90620536
32,1436548932644,-0.8026561,10.144233,0.8738836
33,1436548932756,-0.7930793,10.149021,0.87807345
34,1436548932757,-0.82240826,10.1382475,0.86729956
35,1436548932758,-0.8062474,10.144233,0.8595184
36,1436548932759,-0.8110358,10.159196,0.8762778
37,1436548932760,-0.79846627,10.157999,0.85891986
38,1436548932761,-0.7697359,10.160394,0.89423436
39,1436548932774,-0.7990648,10.175357,0.89423436
40,1436548932798,-0.82480246,10.171167,0.87567925
41,1436548932815,-0.85652566,10.195708,0.8475474
42,1436548932842,-0.8110358,10.19092,0.88166475
43,1436548932855,-0.7769185,10.173561,0.8631097
44,1436548932876,-0.760159,10.1460285,0.8283938
45,1436548932897,-0.76195467,10.142437,0.85413146
46,1436548932914,-0.7667431,10.148422,0.89782566
47,1436548932934,-0.7769185,10.157999,0.8595184
48,1436548932955,-0.80086046,10.156203,0.87208796
49,1436548932974,-0.83737206,10.146626,0.85173726
50,1436548932997,-0.82121116,10.152613,0.8194155
51,1436548933016,-0.7954735,10.128671,0.80804306
52,1436548933037,-0.8379706,10.188525,0.8230068
53,1436548933055,-0.88645315,10.152613,0.86370826
54,1436548933075,-0.8523358,10.1544075,0.90261406
55,1436548933095,-0.8750807,10.197504,0.83018947
56,1436548933116,-0.90740246,10.206482,0.8439561
57,1436548933140,-0.8559271,10.1939125,0.88405895
58,1436548933188,-0.83018947,10.144831,0.8678981
59,1436548933189,-0.8810662,10.146626,0.8834604
60,1436548933197,-0.96546185,10.157999,0.89543146
61,1436548933230,-0.9516952,10.14124,0.8912416
62,1436548933235,-0.9636662,10.1226845,0.88525605
63,1436548933254,-0.9427169,10.1161,0.88525605
64,1436548933279,-0.90500826,10.1226845,0.8762778
65,1436548933295,-0.87208796,10.176555,0.86011696
66,1436548933320,-0.88765025,10.174759,0.8595184
67,1436548933336,-0.93373865,10.13705,0.8924387
68,1436548933356,-0.9828198,10.113707,0.90859956
69,1436548933378,-0.9876082,10.128671,0.8924387
70,1436548933396,-0.9828198,10.146626,0.8643068
71,1436548933415,-0.943914,10.147225,0.84934306
72,1436548933435,-0.89902276,10.158598,0.8810662
73,1436548933456,-0.8343793,10.1861315,0.9008184
74,1436548933481,-0.830788,10.152014,0.92416185
75,1436548933495,-0.91219085,10.174759,0.8858546
76,1436548933516,-0.9983821,10.1699705,0.86969376
77,1436548933534,-0.9115923,10.157999,0.8762778
78,1436548933555,-0.82240826,10.195109,0.8403648
79,1436548933578,-0.78290397,10.190321,0.81343
80,1436548933595,-0.79607207,10.149021,0.8750807
81,1436548933701,-0.8331822,10.13286,0.8690952
82,1436548933702,-0.8858546,10.146626,0.8571242
83,1436548933703,-0.9283517,10.1304655,0.8870517
84,1436548933704,-0.89303726,10.162787,0.8631097
85,1436548933705,-0.8182184,10.1699705,0.84455466
86,1436548933752,-0.79726917,10.135254,0.8499416
87,1436548933755,-0.8798691,10.155006,0.85652566
88,1436548933756,-0.88944596,10.127473,0.89902276
89,1436548933962,-0.8948329,10.119094,0.9056068
90,1436548933963,-0.9247604,10.160992,0.8631097
91,1436548933964,-0.89603,10.196905,0.89902276
92,1436548933965,-0.85413146,10.189722,0.88525605
93,1436548933966,-0.87927055,10.16578,0.8774749
94,1436548933967,-0.91338795,10.1304655,0.89184016
95,1436548933968,-0.9008184,10.144831,0.89902276
96,1436548933969,-0.8924387,10.143634,0.86969376
97,1436548933970,-0.87687635,10.151415,0.8583213
98,1436548933971,-0.8972271,10.129868,0.8678981
99,1436548933979,-0.8912416,10.131064,0.8607155
100,1436548934023,-0.8858546,10.126875,0.84934306
101,1436548934024,-0.8762778,10.11251,0.85473
102,1436548934035,-0.8511387,10.152014,0.8571242
103,1436548934057,-0.8086416,10.179547,0.8798691
104,1436548934077,-0.8002619,10.160992,0.8798691
105,1436548934095,-0.8230068,10.156802,0.8678981
106,1436548934115,-0.84335756,10.181941,0.8631097
107,1436548934137,-0.83737206,10.185533,0.84694886
108,1436548934157,-0.80564886,10.192117,0.8888474
109,1436548934182,-0.81043726,10.177153,0.9068039
110,1436548934244,-0.8122329,10.179547,0.8912416
111,1436548934245,-0.88166475,10.157999,0.8702923
112,1436548934246,-0.878672,10.150218,0.8984242
113,1436548934264,-0.8242039,10.190321,0.8403648
114,1436548934277,-0.83138657,10.162787,0.84096336
115,1436548934295,-0.8170213,10.117896,0.8499416
116,1436548934321,-0.82001406,10.137649,0.8583213
117,1436548934336,-0.84694886,10.163386,0.86131406
118,1436548934357,-0.84096336,10.134656,0.9032126
119,1436548934377,-0.82360536,10.1621895,0.86849666
120,1436548934398,-0.8194155,10.168773,0.83378077
121,1436548934416,-0.866701,10.137649,0.8463503
122,1436548934436,-0.8774749,10.183737,0.85891986
123,1436548934456,-0.89543146,10.1699705,0.8583213
124,1436548934475,-0.8870517,10.149619,0.9008184
125,1436548934496,-0.89782566,10.161591,0.86849666
126,1436548934516,-0.8846575,10.161591,0.89303726
127,1436548934541,-0.8367735,10.178948,0.866701
128,1436548934557,-0.84814596,10.146626,0.85473
129,1436548934576,-0.878672,10.125079,0.86131406
130,1436548934595,-0.9247604,10.135254,0.8726865
131,1436548934615,-0.9295488,10.1621895,0.8702923
132,1436548934637,-0.908001,10.104729,0.84575176
133,1436548934657,-0.84934306,10.117298,0.84575176
134,1436548934686,-0.81402856,10.129269,0.8283938
135,1436548934704,-0.7769185,10.1304655,0.82121116
136,1436548934715,-0.79367787,10.17416,0.8265981
137,1436548934738,-0.80804306,10.239402,0.8511387
138,1436548934756,-0.83018947,10.30225,0.8475474
139,1436548934777,-0.85173726,10.290278,0.8619126
140,1436548934796,-0.8882488,10.185533,0.9235633
141,1436548934816,-0.9068039,10.1382475,0.878672
142,1436548934840,-0.97025025,10.117896,0.8265981
143,1436548934858,-0.9947908,10.111911,0.82480246
144,1436548934876,-0.9235633,10.085575,0.8331822
145,1436548934902,-0.86490536,10.061034,0.8631097
146,1436548934916,-0.8595184,10.050261,0.87328506
147,1436548934936,-0.90261406,10.029311,0.8403648
148,1436548934956,-1.0043676,10.063428,0.8170213
149,1436548934976,-1.0223241,10.059238,0.8283938
150,1436548935003,-0.94092125,10.128671,0.81761986
151,1436548935018,-0.9211691,10.247183,0.78290397
152,1436548935042,-0.8762778,10.278907,0.8206126
153,1436548935059,-0.82779527,10.313622,0.8242039
154,1436548935079,-0.90261406,10.394426,0.7637503
155,1436548935131,-0.908001,10.34774,0.8690952
156,1436548935132,-0.9008184,10.376471,0.91697925
157,1436548935148,-0.8475474,10.334572,0.89543146
158,1436548935177,-0.760159,10.241198,0.91578215
159,1436548935178,-0.7266402,10.202292,0.87089086
160,1436548935196,-0.8026561,10.164583,0.86370826
161,1436548935222,-0.83497787,10.087969,0.9552865
162,1436548935237,-0.8463503,9.996989,1.033098
163,1436548935260,-0.8870517,9.951499,1.0097545
164,1436548935277,-0.9295488,9.930551,0.9744401
165,1436548935298,-0.9283517,9.9473095,0.8643068
166,1436548935334,-0.86490536,9.975441,0.7326257
167,1436548935337,-0.83976626,10.086772,0.6853402
168,1436548935356,-0.78888947,10.20289,0.7116765
169,1436548935376,-0.7368156,10.274716,0.76434886
170,1436548935396,-0.7278373,10.320207,0.8487445
171,1436548935416,-0.712275,10.309433,0.93254155
172,1436548935436,-0.694917,10.270527,0.8972271
173,1436548935458,-0.6973112,10.229227,0.8379706
174,1436548935480,-0.7116765,10.245986,0.770933
175,1436548935497,-0.7182605,10.282497,0.6907272
176,1436548935519,-0.6943185,10.356718,0.6835446
177,1436548935539,-0.6386533,10.348338,0.7224504
178,1436548935558,-0.60094464,10.241198,0.7823054
179,1436548935578,-0.6919243,10.26095,0.6991069
180,1436548935637,-0.85532856,10.2417965,0.6584055
181,1436548935638,-0.8523358,10.155006,0.6715736
182,1436548935639,-0.7966706,10.143634,0.64463884
183,1436548935662,-0.7368156,10.17835,0.61411273
184,1436548935678,-0.7236475,10.178948,0.6374562
185,1436548935707,-0.6206968,10.146626,0.6937199
186,1436548935717,-0.56443304,10.070611,0.724246
187,1436548935739,-0.6434417,10.101735,0.7158663
188,1436548935758,-0.80086046,10.059238,0.7032967
189,1436548935778,-0.86131406,10.01315,0.7110779
190,1436548935801,-0.8499416,10.019135,0.7212533
191,1436548935819,-0.88405895,10.081984,0.6907272
192,1436548935841,-0.92296475,10.172963,0.7236475
193,1436548935861,-0.87448215,10.158598,0.7918822
194,1436548935880,-0.8086416,10.148422,0.76554596
195,1436548935900,-0.8367735,10.216658,0.7338228
196,1436548935921,-0.842759,10.295666,0.7272388
197,1436548935940,-0.748188,10.350733,0.7314286
198,1436548935960,-0.66259533,10.389638,0.8002619
199,1436548935981,-0.6398504,10.30225,0.8535329
200,1436548936000,-0.7032967,10.207081,0.86011696
201,1436548936019,-0.7793127,10.096349,0.79128367
202,1436548936047,-0.85473,10.074203,0.7398083
203,1436548936094,-0.92535895,10.046669,0.76554596
204,1436548936095,-0.9588778,10.028712,0.7679402
205,1436548936110,-0.97384155,10.048465,0.80086046
206,1436548936137,-0.90979666,10.084377,0.7954735
207,1436548936138,-0.86729956,10.1161,0.84934306
208,1436548936157,-0.84694886,10.157401,0.8984242
209,1436548936183,-0.85473,10.212467,0.89902276
210,1436548936200,-0.8002619,10.21546,0.9283517
211,1436548936219,-0.7320272,10.183737,0.9840169
212,1436548936238,-0.6679823,10.157999,0.9911995
213,1436548936259,-0.6374562,10.16578,1.0115502
214,1436548936279,-0.6596026,10.149021,1.0085574
215,1436548936298,-0.66858083,10.128671,1.0480618
216,1436548936318,-0.688333,10.126276,1.0408791
217,1436548936338,-0.70509243,10.101735,0.9900024
218,1436548936358,-0.6877344,10.13286,1.0115502
219,1436548936381,-0.6607997,10.087969,1.0408791
220,1436548936404,-0.5931635,9.94312,1.0911574
221,1436548936421,-0.57041854,9.885659,1.0372878
222,1436548936441,-0.58298814,9.747394,0.9708488
223,1436548936459,-0.6769605,9.69951,0.8996213
224,1436548936479,-0.9576807,9.918579,0.80684596
225,1436548936498,-1.3491327,10.12448,0.7128736
226,1436548936521,-1.596334,10.197504,0.7733272
227,1436548936539,-1.6867151,10.226234,0.80804306
228,1436548936591,-1.685518,10.166978,0.83737206
229,1436548936592,-1.6041151,10.250176,0.825401
230,1436548936607,-1.4885949,10.341156,0.7350199
231,1436548936635,-1.3024458,10.357317,0.7380127
232,1436548936638,-1.115698,10.365696,0.79846627
233,1436548936658,-1.1683705,10.4010105,0.6859388
234,1436548936680,-1.3718776,10.314221,0.664391
235,1436548936704,-1.4449008,10.31063,0.7266402
236,1436548936721,-1.4466964,10.34355,0.6302736
237,1436548936745,-1.5005659,10.26933,0.5883751
238,1436548936759,-1.4969746,10.239402,0.61650693
239,1436548936779,-1.4993688,10.241198,0.52971715
240,1436548936798,-1.5717934,10.307637,0.46148238
241,1436548936819,-1.590947,10.314221,0.5069722
242,1436548936838,-1.4347254,10.38904,0.42437226
243,1436548936858,-1.2348095,10.569203,0.4141969
244,1436548936884,-0.9504981,10.802039,0.46208093
245,1436548936904,-0.694917,10.90499,0.5847838
246,1436548936924,-0.4189853,10.815806,0.7757214
247,1436548936941,-0.25917232,10.642226,0.82719666
248,1436548936958,-0.38486794,10.444705,0.80804306
249,1436548936979,-0.6655881,10.223241,0.76195467
250,1436548936998,-0.8690952,9.98442,0.7098808
251,1436548937022,-0.97144735,9.658808,0.6362591
252,1436548937038,-0.96665895,9.386468,0.6937199
253,1436548937084,-0.9163807,9.414001,0.6464345
254,1436548937085,-0.88166475,9.431359,0.5351041
255,1436548937098,-0.8026561,9.47206,0.60214174
256,1436548937121,-0.80445176,9.718663,0.55964464
257,1436548937140,-0.8619126,9.898229,0.48003745
258,1436548937162,-0.88765025,9.929952,0.52133745
259,1436548937178,-0.89782566,9.995792,0.5506664
260,1436548937202,-0.88645315,10.156203,0.5494693
261,1436548937219,-0.75118077,10.160992,0.54408234
262,1436548937245,-0.36511576,10.18254,0.6799533
263,1436548937259,0.049679685,11.1899,0.5530606
264,1436548937280,0.16579847,12.674305,0.4830302
265,1436548937298,0.3309984,12.146982,1.3335704
266,1436548937321,1.0372878,10.837354,1.9123687
267,1436548937342,2.0266917,9.870695,2.107496
268,1436548937361,3.3704374,10.581175,1.1306617
269,1436548937382,4.3676224,10.92175,1.0175357
270,1436548937402,4.6375685,10.453683,1.7735049
271,1436548937422,5.035605,10.122087,2.0638018
272,1436548937441,5.4593782,9.923966,2.179322
273,1436548937462,4.477157,9.822212,2.2798786
274,1436548937482,3.1830912,9.968259,1.8429368
275,1436548937502,2.3122003,9.606734,1.702876
276,1436548937519,1.7663223,8.186374,2.2984335
277,1436548937540,2.8095956,8.066066,2.0649989
278,1436548937588,3.8983588,8.33242,2.3570917
279,1436548937589,4.490924,8.033145,2.8508956
280,1436548937604,4.970961,7.6973586,2.6354175
281,1436548937619,5.1235914,7.891887,2.3307555
282,1436548937639,4.994903,8.282143,2.3469162
283,1436548937659,4.734534,8.517372,2.5222914
284,1436548937679,4.3077674,8.668207,2.801216
285,1436548937699,3.9947255,8.760384,2.9221232
286,1436548937722,4.07134,8.924387,2.8832173
287,1436548937806,4.003105,9.222465,2.885013
288,1436548937807,3.7008374,9.485229,2.8341362
289,1436548937808,3.2411506,9.273342,2.9257145
290,1436548937809,2.971803,8.948329,3.0011318
291,1436548937826,2.7395654,8.986636,2.9484594
292,1436548937842,2.2319946,8.963891,2.7204118
293,1436548937862,1.9111716,8.463503,2.5767596
294,1436548937882,1.6867151,7.6410947,2.6084828
295,1436548937902,1.8608932,6.8121023,2.7341783
296,1436548937922,1.9590555,6.469133,2.5701754
297,1436548937942,2.2577322,5.891532,2.1134815
298,1436548937962,2.6162639,5.469554,1.388637
299,1436548937982,2.8921957,5.6179943,0.58657944
300,1436548938002,2.973,6.081871,-0.19153613
301,1436548938023,2.870648,6.3745623,-0.40102878
302,1436548938042,2.7641058,6.7684083,-0.39025488
303,1436548938061,2.598906,7.633912,-0.26635495
304,1436548938087,2.5025394,8.198345,0.090979666
305,1436548938099,2.4905684,8.583812,0.31783026
306,1436548938157,2.2170308,9.48882,-0.005985504
307,1436548938159,1.6627731,9.578004,-0.12988544
308,1436548938160,1.7441759,9.246407,-0.12330139
309,1436548938184,2.1625626,8.599374,0.3226187
310,1436548938200,2.2577322,7.9667063,0.9540894
311,1436548938228,1.7944542,7.958925,1.453879
312,1436548938240,1.0696096,8.605359,1.5682021
313,1436548938263,0.5141548,9.703101,1.5610195
314,1436548938283,0.002992752,10.811018,1.0965444
315,1436548938301,-0.4237737,11.174936,1.1312603
316,1436548938323,0.0047884034,10.396821,2.4516625
317,1436548938344,0.83856916,10.166379,2.7132292
318,1436548938359,0.4914099,10.828376,3.4171243
319,1436548938380,0.93852705,13.202826,3.7499185
320,1436548938402,1.127669,13.73374,3.551798
321,1436548938425,0.18195933,12.13561,4.176685
322,1436548938445,-0.46567222,10.065823,5.6156
323,1436548938465,-0.5141548,9.642049,6.208165
324,1436548938483,-0.39564183,10.620679,6.1836243
325,1436548938499,-0.110133275,11.345523,5.5383873
326,1436548938520,-0.22146365,12.230181,4.610634
327,1436548938541,-0.15322891,12.283452,4.4753613
328,1436548938562,0.39444473,10.881048,5.443816
329,1436548938580,1.4562732,10.120291,5.4420204
330,1436548938646,2.4534583,10.75655,5.614403
331,1436548938647,2.1697452,10.391434,6.335656
332,1436548938648,2.2385786,10.080188,5.9717374
333,1436548938663,3.7122097,9.554661,5.5760956
334,1436548938702,3.9594111,8.789713,6.160281
335,1436548938703,4.237737,8.2995,6.0381765
336,1436548938720,4.7776294,7.6111674,6.9024835
337,1436548938742,4.1623197,7.404069,7.6105685
338,1436548938762,2.959832,7.41604,8.773552
339,1436548938783,2.0003555,7.988254,9.254189
340,1436548938801,1.0726024,8.520964,9.4457245
341,1436548938821,-0.41240123,8.406641,10.126875
342,1436548938842,-0.3866636,8.782531,10.674548
343,1436548938860,1.917157,8.5622635,10.825981
344,1436548938881,2.7629087,7.2065473,10.830172
345,1436548938901,2.2613235,6.8144965,10.709863
346,1436548938924,2.4528596,6.4224463,9.953295
347,1436548938944,3.0310593,5.1200004,10.084976
348,1436548938965,2.7216089,3.9414546,10.086772
349,1436548938983,2.1134815,4.0479965,9.066243
350,1436548939002,1.4065934,3.53863,9.057863
351,1436548939021,2.9418752,3.233968,8.360553
352,1436548939042,3.8845923,3.8630445,7.933786
353,1436548939061,1.3826514,3.6816838,7.4507556
354,1436548939080,0.12509704,3.288436,7.6267295
355,1436548939148,0.3537433,3.940856,8.264186
356,1436548939149,-1.2802993,4.5687356,9.105747
357,1436548939150,-2.9604304,3.6092591,8.573038
358,1436548939176,-4.0940847,2.4648306,8.110957
359,1436548939181,-3.276465,2.1398177,7.593809
360,1436548939213,-1.970428,2.6737247,6.9850836
361,1436548939225,-1.1432313,3.469797,7.435792
362,1436548939241,-0.985214,3.7696705,7.536947
363,1436548939260,-1.186327,4.437054,7.116166
364,1436548939281,-2.0805612,5.1259856,6.949769
365,1436548939303,-3.144784,5.203199,7.1311297
366,1436548939321,-2.767697,4.72376,7.587824
367,1436548939340,-1.6226702,4.6459484,8.025364
368,1436548939361,-1.103727,4.915296,7.8888946
369,1436548939383,-1.2653356,5.277419,7.3627687
370,1436548939403,-2.0129251,6.042965,7.153276
371,1436548939424,-2.6449943,5.920861,7.543531
372,1436548939444,-3.2172086,5.067328,7.4926543
373,1436548939465,-3.9671922,4.941034,7.053318
374,1436548939482,-4.156933,4.0533834,7.653664
375,1436548939501,-3.7433343,4.0336313,7.9062524
376,1436548939522,-3.8738184,4.2904096,9.400234
377,1436548939544,-4.656722,2.7778726,10.295666
378,1436548939590,-6.3979053,2.1350293,9.657013
379,1436548939606,-8.573636,1.2425907,8.499416
380,1436548939607,-9.783307,0.9900024,6.591836
381,1436548939621,-10.593145,-0.1388637,5.9729347
382,1436548939641,-10.899603,-0.41718966,5.1571107
383,1436548939663,-11.365874,0.96546185,5.1421466
384,1436548939681,-11.425131,1.1528081,5.189432
385,1436548939705,-9.9473095,0.26994625,4.747702
386,1436548939722,-8.394072,0.12210429,4.099472
387,1436548939746,-7.7865424,0.8062474,4.189853
388,1436548939763,-7.1700354,1.3281834,4.4885297
389,1436548939783,-6.769605,0.93732995,4.734534
390,1436548939803,-6.794146,0.29149407,4.666898
391,1436548939821,-7.0754647,-0.06344634,4.618415
392,1436548939841,-7.53575,-0.25378537,4.4328647
393,1436548939862,-7.9433627,-0.12988544,4.0659533
394,1436548939887,-8.205527,0.41958386,4.4753613
395,1436548939918,-8.242638,1.1007342,4.159327
396,1436548939922,-8.790312,0.80564886,4.2425256
397,1436548939942,-8.69993,-0.049679685,4.063559
398,1436548939961,-8.364143,-0.55126494,3.6816838
399,1436548939982,-8.765771,-0.5506664,3.8696284
400,1436548940001,-9.113529,-0.427365,3.8229415
401,1436548940021,-8.4234,-0.5009867,4.231153
402,1436548940042,-7.7081323,-0.7422025,4.286818
403,1436548940070,-8.319252,-1.1354501,4.3239284
404,1436548940082,-8.883685,-1.0510546,4.4639893
405,1436548940101,-8.928576,-0.57400984,4.4603977
406,1436548940124,-8.65025,-0.56982,4.4340615
407,1436548940142,-8.203134,-0.61530983,4.368221
408,1436548940169,-8.163031,-0.2633622,4.6363716
409,1436548940182,-8.218696,0.13587095,4.7842135
410,1436548940201,-7.967903,-0.46028528,5.1158104
411,1436548940221,-7.851186,-1.0708067,4.6495395
