id,attr_time,attr_x,attr_y,attr_z
1,1436623618128,9.89344,0.14305355,0.09756372
2,1436623618148,9.898827,0.1316811,0.10534488
3,1436623618167,9.907805,0.10594343,0.14784196
4,1436623618188,9.865907,0.1364695,0.16160862
5,1436623618208,9.858724,0.12569559,0.17238252
6,1436623618226,9.868899,0.1376666,0.12988544
7,1436623618246,9.876082,0.130484,0.1340753
8,1436623618266,9.900622,0.11192893,0.08200141
9,1436623618286,9.8994255,0.109534726,0.11432313
10,1436623618309,9.894637,0.11611878,0.11492168
11,1436623618325,9.863512,0.12808979,0.12509704
12,1436623618347,9.886856,0.14724341,0.13467385
13,1436623618365,9.911995,0.14844051,0.12988544
14,1436623618407,9.903615,0.13826515,0.1316811
15,1436623618408,9.85633,0.11851298,0.12569559
16,1436623618442,9.808446,0.11492168,0.09816227
17,1436623618445,9.820416,0.09876082,0.10594343
18,1436623618465,9.857527,0.10115502,0.10414778
19,1436623618486,9.903017,0.12150574,0.092176765
20,1436623618505,9.905411,0.12689269,0.08140286
21,1436623618525,9.895236,0.142455,0.094570965
22,1436623618554,9.834782,0.14664486,0.09816227
23,1436623618568,9.827001,0.13587095,0.10594343
24,1436623618586,9.8198185,0.13467385,0.090381116
25,1436623618606,9.817424,0.12330139,0.053869538
26,1436623618626,9.801862,0.08559271,0.040102877
27,1436623618646,9.78989,0.08559271,0.046686932
28,1436623618669,9.841366,0.10055647,0.0077811554
29,1436623618686,9.827001,0.13587095,-0.021547815
30,1436623618706,9.753978,0.17238252,-0.109534726
31,1436623618730,9.672575,0.24480712,-0.19572599
32,1436623618752,9.528324,0.30765492,-0.31184477
33,1436623618766,9.31943,0.38606504,-0.47764325
34,1436623618786,9.115324,0.44771573,-0.7212533
35,1436623618806,8.834604,0.47345337,-1.1180922
36,1436623618826,8.328231,0.5153519,-1.4119805
37,1436623618846,7.539341,0.5566519,-1.2372037
38,1436623618867,6.4086795,0.480636,-0.66379243
39,1436623618886,5.3127337,0.18315643,-0.14903906
40,1436623618907,4.7483006,-0.39145198,0.25019407
41,1436623618926,4.780622,-0.7134721,0.53809685
42,1436623618945,5.4605756,-1.055843,0.61411273
43,1436623618966,6.701969,-0.9223662,0.338181
44,1436623618990,8.483255,-0.29149407,-0.4225766
45,1436623619005,10.523713,0.7577648,-1.1797429
46,1436623619025,11.860875,1.8974048,-1.4562732
47,1436623619045,13.296199,2.3834279,-1.3820529
48,1436623619070,16.672623,1.9524715,-1.3958195
49,1436623619089,19.607914,0.55365914,-1.2324153
50,1436623619108,19.607914,-1.0324994,-0.7386112
51,1436623619127,19.607914,-0.79008657,-0.86370826
52,1436623619146,19.607914,0.7212533,-1.1875241
53,1436623619167,19.607914,1.3802572,-1.1623849
54,1436623619187,19.607914,1.3162124,-1.6065093
55,1436623619210,14.541184,1.447295,-2.2062569
56,1436623619227,7.181408,0.8631097,-2.8089972
57,1436623619246,4.06715,0.55605334,-2.235586
58,1436623619265,0.7110779,0.51235914,-2.2284033
59,1436623619285,-1.2090719,-0.2825158,-1.8195933
60,1436623619310,-4.258686,-0.7541735,-1.1150994
61,1436623619327,-6.8001313,-0.54168814,-2.0482395
62,1436623619346,-6.343437,-0.013766659,-2.7988217
63,1436623619368,-3.8780081,0.22864626,-1.7884687
64,1436623619390,-1.1007342,0.37469256,-1.2012907
65,1436623619407,1.3706805,0.3393781,-0.6404489
66,1436623619428,2.9119477,0.19991584,-0.27353755
67,1436623619450,3.7223852,0.014963761,-0.30945057
68,1436623619470,3.4919431,-0.0700304,-0.5470751
69,1436623619488,2.066196,-0.044292733,-0.23762453
70,1436623619508,0.23463176,-0.008379706,0.374094
71,1436623619528,-0.42556936,0.1436521,0.019153614
72,1436623619548,0.6931214,1.3970166,-7.1748238
73,1436623619567,4.333505,1.927931,-8.520964
74,1436623619589,19.593548,3.0041246,-2.1206641
75,1436623619606,19.607914,0.44711718,-4.248511
76,1436623619627,19.607914,-1.5269021,0.6667852
77,1436623619653,19.607914,3.0340521,-2.610877
78,1436623619667,15.977705,4.2580876,-0.9020155
79,1436623619691,12.133814,2.5157075,-2.1906946
80,1436623619709,11.877036,2.297835,-3.0334535
81,1436623619730,10.879252,1.0402806,-4.702811
82,1436623619750,8.559271,-0.2705448,-3.083732
83,1436623619768,4.720767,-1.5095441,-0.4309563
84,1436623619788,0.5835867,-2.0775685,0.11133038
85,1436623619806,-6.159084,-1.5945383,-0.5602432
86,1436623619826,-12.6300125,-0.6817489,-3.3686419
87,1436623619846,-11.073781,1.8596961,-7.0287776
88,1436623619867,-4.703409,2.5396495,-3.7750576
89,1436623619886,-1.8166006,2.023699,-2.2667105
90,1436623619906,2.0709844,1.198298,-0.7990648
91,1436623619926,3.4913447,0.42556936,-1.1408371
92,1436623619955,4.371214,-0.0796072,-0.973243
93,1436623619967,4.8416743,-0.27712885,-0.3645172
94,1436623619987,3.867833,-0.61171854,0.55126494
95,1436623620007,1.6537948,-0.80804306,1.062427
96,1436623620027,-0.7074866,-1.1504139,1.6484078
97,1436623620047,-1.5891514,-1.1264719,-0.089782566
98,1436623620067,1.899799,0.4369418,-5.673061
99,1436623620087,15.675437,3.2453403,-1.2635399
100,1436623620107,19.607914,8.639477,-14.4107
101,1436623620127,19.607914,1.1935096,-2.8766334
102,1436623620147,19.607914,1.3994108,-3.4051533
103,1436623620167,18.819023,0.8535329,4.131195
104,1436623620187,16.881516,0.40940848,3.016694
105,1436623620207,17.758991,1.2862848,0.86011696
106,1436623620231,19.607914,1.340753,-2.4235306
107,1436623620248,18.425776,1.0139444,-4.5675383
108,1436623620268,10.138845,0.56323594,-2.8257565
109,1436623620288,3.4249055,-0.65182143,-1.3335704
110,1436623621577,-1.8620903,-0.6332663,-2.4396915
111,1436623621578,-6.9916677,-0.24540567,-2.0003555
112,1436623621579,-12.921507,-0.6841431,-1.8237832
113,1436623621580,-12.976573,0.81163436,-6.6044054
114,1436623621581,-7.0515227,1.9440918,-4.598663
115,1436623621582,-0.9720459,1.0348936,-1.4730326
116,1436623621583,2.7353754,-0.008978256,-0.65182143
117,1436623621584,4.5005007,-0.49320555,-0.8619126
118,1436623621585,5.8747725,-0.4237737,-0.45370123
119,1436623621586,6.4062853,0.019153614,0.053869538
120,1436623621587,5.887342,0.25737667,0.23762453
121,1436623621588,3.3387144,0.6254852,0.46148238
122,1436623621589,0.25019407,0.60453594,0.9451111
123,1436623621590,-2.0925324,0.039504327,1.2024878
124,1436623621591,-2.9975405,-0.2861071,-1.2731167
125,1436623621592,-0.36272156,0.56563014,-10.235212
126,1436623621593,12.767679,1.0869676,-1.0289081
127,1436623621594,19.607914,5.2684407,-10.356718
128,1436623621595,19.607914,3.316568,-0.9648633
129,1436623621596,19.607914,3.1435869,-6.95755
130,1436623621597,15.635334,1.7980455,0.4878186
131,1436623621598,10.808623,1.5825673,-0.7673417
132,1436623621599,11.538856,1.8525136,-0.6721721
133,1436623621600,12.937668,0.79966336,-2.8742392
134,1436623621601,12.228984,-0.18914193,-2.754529
135,1436623621602,8.371924,-0.35194764,-1.7369933
136,1436623621603,5.892729,-0.8230068,-1.1623849
137,1436623621604,2.208651,-0.931943,-0.8475474
138,1436623621605,-3.0430303,-0.7200562,-0.90620536
139,1436623621606,-8.102577,-0.46567222,-1.1504139
140,1436623621607,-9.14585,0.110731825,-2.9616275
141,1436623621608,-7.1544733,0.94331545,-4.1317935
142,1436623621609,-3.7014358,1.3545196,-3.4290953
143,1436623621610,-1.1605892,1.0480618,-3.2704794
144,1436623621611,0.6835446,0.31124622,-2.7102363
145,1436623621612,2.3211784,-0.13706805,-1.5131354
146,1436623621613,3.8762126,-0.45669398,0.49679685
147,1436623621614,5.023035,-0.82121116,2.645593
148,1436623621615,4.768651,-1.0229226,2.9538465
149,1436623621616,3.6403837,-0.7290344,0.17238252
150,1436623621617,9.966463,0.30825347,-5.955577
151,1436623621618,16.3099,1.1360487,-4.585495
152,1436623621619,19.607914,3.503914,-7.5531077
153,1436623621620,19.607914,3.643975,3.9390604
154,1436623621621,19.607914,-1.1360487,-0.7338228
155,1436623621622,19.607914,-0.50757074,1.9632454
156,1436623621623,19.607914,-0.110731825,-0.012569559
157,1436623621624,19.607914,0.3274071,-1.1378443
158,1436623621625,19.607914,0.96546185,-2.0272903
159,1436623621626,17.399261,0.38367084,-2.8341362
160,1436623621627,15.753248,-19.090168,-6.009446
161,1436623621628,2.2343888,9.700109,4.853047
162,1436623621629,-7.451354,7.8571715,0.8182184
163,1436623621630,-6.4230447,3.7367504,-0.87807345
164,1436623621631,-8.995016,0.7410054,-2.7850552
165,1436623621632,-9.406818,-0.6805518,-5.245696
166,1436623621633,-6.381745,-2.0901382,-3.2962172
167,1436623621634,-4.6896424,-1.9608512,-1.9183542
168,1436623621635,-1.1378443,-1.5705963,-0.17178397
169,1436623621636,1.590947,-0.88525605,-0.64823014
170,1436623621637,3.4422636,-0.11252748,-1.4185646
171,1436623621638,4.578911,0.50757074,-1.4287399
172,1436623621639,4.92607,1.1192893,-0.997185
173,1436623621640,3.650559,1.5239093,-0.0005985504
174,1436623621641,1.6238673,1.5891514,0.7236475
175,1436623621642,0.22325931,1.5155296,-2.1374235
176,1436623621643,2.468422,1.8100165,-3.6601357
177,1436623621647,10.937312,1.1659763,2.2768857
178,1436623621667,19.607914,-0.46028528,-8.34918
179,1436623621687,19.607914,-0.3369839,-4.208408
180,1436623621707,19.607914,3.1376014,-4.110844
181,1436623621727,19.070415,0.92775315,-0.022744916
182,1436623621747,15.032594,0.1328782,0.6075287
183,1436623621767,14.009072,-0.49081135,-0.15622166
184,1436623621787,13.7086,-1.0097545,0.11671733
185,1436623621807,14.854226,-0.22984336,-2.6767175
186,1436623621827,11.245565,-0.57161564,-3.0454245
187,1436623621847,7.1107793,0.3866636,-2.3900118
188,1436623621871,1.1587936,-0.1448492,-0.760159
189,1436623621892,-3.2393548,-0.19033903,-0.58657944
190,1436623621912,-7.3298483,-0.2621651,-1.3150153
191,1436623621932,-10.660782,-0.6847417,-1.6406267
192,1436623621952,-9.586384,0.24839842,-4.245518
193,1436623621971,-5.0362034,0.8355764,-3.2752678
194,1436623621992,-0.37229836,0.6733692,-1.5304934
195,1436623622012,2.6162639,0.18914193,-0.7469909
196,1436623622032,3.7714663,-0.25797522,-0.84934306
197,1436623622052,4.1060557,-0.3776853,-0.8415619
198,1436623622072,4.0623617,-0.22445641,-0.38187516
199,1436623622092,3.3117795,0.1448492,-0.08619126
200,1436623622158,1.8429368,0.004189853,0.54647654
201,1436623622159,0.866701,0.012569559,1.6101006
202,1436623622160,-0.17058687,0.2789245,-0.38187516
203,1436623622174,7.1808095,-0.41060558,-8.091205
204,1436623622188,19.607914,-0.581791,-0.61411273
205,1436623622208,19.607914,2.4875755,-7.3364325
206,1436623622230,19.607914,4.8973393,-2.0590134
207,1436623622251,19.607914,-0.31064767,-0.52492875
208,1436623622271,18.475456,-1.3706805,0.5722142
209,1436623622290,16.44637,-1.7866731,-1.2886791
210,1436623622312,18.589779,-1.6657659,-0.60932434
211,1436623622328,16.759413,-0.9151836,-1.9219455
212,1436623622352,10.511743,-0.59376204,-2.0416555
213,1436623622368,3.448249,0.11372458,-0.96306765
214,1436623622392,0.06344634,0.18016368,-0.44352585
215,1436623622412,-4.127005,0.24959552,-0.45489833
216,1436623622430,-8.969876,-0.5363012,-1.2623428
217,1436623622452,-13.259089,-0.59136784,-4.035427
218,1436623622472,-9.955689,0.29029694,-6.9982514
219,1436623622492,-3.8067808,0.49440265,-2.6833014
220,1436623622511,0.7302315,0.27234045,-0.866701
221,1436623622531,2.7084408,-0.092176765,-0.08020575
222,1436623622553,3.6230257,-0.08619126,-0.24899697
223,1436623622574,4.8338933,0.30885202,-0.24839842
224,1436623622591,5.2846017,0.30166942,0.130484
225,1436623622612,3.9211037,0.074818805,0.3669114
226,1436623622638,1.3090298,-0.13347675,1.0103531
227,1436623622649,-0.7445967,-0.29867667,1.9021933
228,1436623622679,-1.1414356,-0.17537527,1.882441
229,1436623622691,-2.243367,0.088585466,-2.9269116
230,1436623622710,-0.29927522,0.095768064,-10.433332
231,1436623622732,14.526819,1.22224,-0.6823475
232,1436623622756,19.607914,4.453215,-17.962498
233,1436623622780,19.607914,3.8420951,2.6671407
234,1436623622832,19.607914,-0.8331822,-7.0593038
235,1436623622833,19.607914,-2.8802247,6.7809777
236,1436623622834,19.607914,-1.3257892,-0.76434886
237,1436623622850,19.607914,0.58538234,-2.2176294
238,1436623622870,19.39064,1.6328455,-2.2337902
239,1436623622892,11.687894,1.5993267,-2.4229321
240,1436623622910,4.8374844,1.4454993,-2.3391352
241,1436623622932,0.08379706,1.2479776,-2.6312277
242,1436623622950,-4.709395,0.59017074,-2.296638
243,1436623622971,-10.309433,-0.3345897,-2.0159178
244,1436623622995,-13.596073,-1.4377182,-5.2923827
245,1436623623010,-12.4229145,-1.5065514,-5.2259436
246,1436623623035,-6.4110737,-0.25258827,-3.2513258
247,1436623623050,-1.3096284,1.0223241,-1.3024458
248,1436623623072,1.5328877,1.5394717,-0.6787562
249,1436623623094,3.6248214,1.3640964,-0.6368576
250,1436623623112,5.185242,0.9576807,-0.97503865
251,1436623623131,5.6856303,0.6452374,-1.3611037
252,1436623623150,4.406528,0.36750996,-1.3676877
253,1436623623172,1.6262615,-0.019153614,-1.2384008
254,1436623623193,-1.2880806,-0.2136825,-0.5482722
255,1436623623214,-2.7629087,-0.3549404,0.41240123
256,1436623623230,-2.6360161,-0.9044097,-3.787627
257,1436623623253,2.942474,-0.7721301,-3.086126
258,1436623623275,19.607315,0.66858083,-1.2401965
259,1436623623294,19.607914,1.3748703,-10.238804
260,1436623623314,19.607914,8.702325,-5.551555
261,1436623623333,19.607914,5.5485625,-9.560047
262,1436623623350,16.943766,2.167351,2.3780408
263,1436623623371,14.732121,-0.3681085,1.01574
264,1436623623390,15.731102,0.31663316,-2.2571337
265,1436623623411,16.76899,0.30286652,-3.4859576
266,1436623623433,12.688072,-0.06284779,-4.150947
267,1436623623453,6.8869214,-0.6548142,-2.123657
268,1436623623471,1.0408791,-0.83258367,-0.25857377
269,1436623623491,-4.59567,-0.557849,-0.2825158
270,1436623623561,-9.260174,0.075417355,-0.7032967
271,1436623623562,-11.167754,-0.051475335,-3.8145618
272,1436623623563,-9.797672,1.0181342,-6.615778
273,1436623623573,-4.959589,1.4431051,-3.591901
274,1436623623592,-0.33279404,1.0672154,-0.97144735
275,1436623623612,2.416348,0.33039984,-0.6218939
276,1436623623630,4.1916485,-0.04189853,-0.54049104
277,1436623623652,5.099051,-0.0724246,-0.3657143
278,1436623623679,6.2584434,-0.05267244,-0.0676362
279,1436623623693,5.4043117,0.002992752,0.39205053
280,1436623623715,2.5270798,-0.34955344,0.50876784
281,1436623623732,-0.97025025,-0.81283146,0.3172317
282,1436623623751,-2.5893292,-1.0043676,-1.780089
283,1436623623774,1.2443863,-0.21308395,-4.8506527
284,1436623623793,13.788208,1.7435774,3.8750155
285,1436623623815,19.607914,6.1866174,-17.92419
286,1436623623834,19.607914,7.521983,-2.0709844
287,1436623623854,19.607914,3.0472202,-7.430405
288,1436623623873,16.051327,-0.5506664,3.0771477
289,1436623623894,13.566744,-0.7152678,-0.6428431
290,1436623623915,13.790003,0.85413146,-1.9237411
291,1436623623934,13.351864,1.2378023,-3.9079356
292,1436623623952,12.8532715,1.4766239,-3.70802
293,1436623623972,9.0554695,1.2611457,-3.1130607
294,1436623623992,4.4436383,0.480636,-1.3174095
295,1436623624012,-1.0336965,0.23523031,-0.6739678
296,1436623624032,-6.2901664,0.073621705,-1.2814964
297,1436623624054,-11.253945,-0.5351041,-1.9357121
298,1436623624071,-10.69849,-0.11552023,-5.6215854
299,1436623624094,-6.5816603,0.30526072,-4.0360255
300,1436623624115,-1.6843209,0.480636,-1.6406267
301,1436623624133,1.2012907,0.0796072,-1.7776948
302,1436623624152,2.9771898,-0.1364695,-1.7190368
303,1436623624173,4.5142674,0.05626374,-0.8146271
304,1436623624191,5.2199583,0.27234045,0.5674258
305,1436623624212,4.4843397,0.12449849,1.7645266
306,1436623624278,2.415151,-0.3681085,2.179322
307,1436623624279,0.439336,-1.0193313,2.0590134
308,1436623624280,-0.39983168,-1.1456255,-1.0151415
309,1436623624291,3.502717,-0.24959552,-5.864597
310,1436623624316,16.947357,1.5837644,1.9608512
311,1436623624332,19.607914,4.3742065,-14.732121
312,1436623624351,19.607914,6.8007298,0.024540568
313,1436623624373,19.607914,3.5966895,-3.3602622
314,1436623624391,18.658613,-0.6278794,3.265691
315,1436623624415,15.490485,-1.1695676,0.05327099
316,1436623624431,17.020979,-0.29807812,-1.127669
317,1436623624453,17.18917,-0.16819267,-3.4183214
318,1436623624472,13.883976,0.4321534,-3.3393128
319,1436623624494,8.161834,0.8265981,-2.4594438
320,1436623624515,2.4642322,1.0121487,-1.4574703
321,1436623624535,-3.3877954,0.9475053,-1.2360066
322,1436623624554,-6.8264675,0.88944596,-1.2617443
323,1436623624574,-10.7769,0.6739678,-2.3582888
324,1436623624594,-10.752359,0.48482585,-4.1359835
325,1436623624614,-8.228871,-0.19093758,-4.959589
326,1436623624634,-3.7301662,-0.08499416,-2.1936872
327,1436623624653,-0.23163901,-0.20350714,-1.2826935
328,1436623624672,1.5005659,-0.62129533,-1.2904748
329,1436623624692,2.882619,-0.7344214,-1.1031284
330,1436623624711,4.1677065,-0.66379243,-0.62967503
331,1436623624731,4.460996,-0.40880993,0.05865794
332,1436623624752,3.6020765,-0.044292733,1.002572
333,1436623624777,2.1823149,0.21188685,1.3479356
334,1436623624793,0.7715315,0.65900403,-3.8618474
335,1436623624818,6.357204,1.4838065,-4.462792
336,1436623624835,19.505562,1.9147629,0.08319851
337,1436623624851,19.607914,1.9375077,-11.517307
338,1436623624871,19.607914,2.7730842,-0.5153519
339,1436623624892,19.607914,2.493561,-4.589086
340,1436623624914,19.523518,1.1893197,-0.427365
341,1436623624932,16.050728,-1.4808137,-1.2006922
342,1436623624986,16.05791,-1.5975311,-2.1176715
343,1436623624987,15.55872,-1.4766239,-1.0468647
344,1436623625005,12.225392,-1.4239515,-2.0847511
345,1436623625011,7.69257,-0.4973954,-2.0733786
346,1436623625032,1.963844,0.15562311,-1.5275006
347,1436623625053,-3.1016884,0.7308301,-0.9163807
348,1436623625072,-6.8545995,1.6448165,-0.3824737
349,1436623625093,-10.010158,2.3900118,-0.61171854
350,1436623625112,-8.914211,1.7465701,-4.10845
351,1436623625134,-5.99149,0.729633,-5.118803
352,1436623625154,-2.4893713,0.04369418,-3.655946
353,1436623625173,0.47465047,-0.7637503,-1.9901801
354,1436623625207,2.4157495,-1.3239936,-0.8158242
355,1436623625212,3.2064347,-1.3347675,-0.24779987
356,1436623625235,4.598663,-0.87089086,0.88525605
357,1436623625255,5.327099,-0.29209262,1.8339585
358,1436623625275,4.4400473,0.05805939,2.6384103
359,1436623625295,2.7377696,0.10534488,2.1176715
360,1436623625315,0.4973954,-0.26635495,-5.525219
361,1436623625335,6.23091,-0.374094,-7.369353
362,1436623625355,19.607914,-0.6386533,-1.2808979
363,1436623625375,19.607914,0.66259533,-10.3692875
364,1436623625393,19.607914,5.8987145,0.96306765
365,1436623625414,19.607914,2.2361844,-1.8321629
366,1436623625435,17.100586,-1.8189948,1.5358804
367,1436623625455,15.122376,-2.5007436,-2.1505916
368,1436623625475,15.371972,-2.5761611,-1.774702
369,1436623625494,13.743317,-1.8369513,-3.4793737
370,1436623625514,11.634025,-1.1109096,-3.5847185
371,1436623625535,6.9725137,0.20051439,-3.1184478
372,1436623625555,2.1039047,1.2018893,-1.9416976
373,1436623625575,-2.9406781,1.8369513,-1.264737
374,1436623625596,-8.6496525,1.8818425,-0.7009025
375,1436623625613,-12.401366,1.4568717,-1.5933412
376,1436623625634,-9.524733,0.9463082,-4.3598413
377,1436623625654,-5.079299,0.13587095,-3.1250317
378,1436623625673,-1.0582372,-0.04309563,-2.202067
379,1436623625725,1.3162124,-0.3357868,-2.1571758
380,1436623625726,3.1280246,-0.34835634,-1.762731
381,1436623625752,4.9745526,-0.107739076,-0.43394905
382,1436623625753,5.783194,0.20470424,1.0480618
383,1436623625773,4.667496,0.33758244,1.9913772
384,1436623625793,2.5893292,0.3345897,2.432509
385,1436623625812,0.6919243,-0.31124622,2.4917655
386,1436623625835,-0.688333,-0.80564886,0.3585317
387,1436623625852,0.04189853,-0.22266077,-8.661623
388,1436623625873,12.568362,0.5081693,-0.27114335
389,1436623625894,19.607914,2.9161377,-15.61618
390,1436623625915,19.607914,3.5446155,-1.5245079
391,1436623625934,19.607914,3.7816415,-2.0853498
392,1436623625956,18.49042,1.7130513,3.1866825
393,1436623625976,16.918627,-0.47105917,-1.567005
394,1436623625996,19.095554,-0.60573304,-2.1015105
395,1436623626017,18.7466,-1.0510546,-2.7682958
396,1436623626035,14.185046,-0.30166942,-3.004723
397,1436623626056,8.426393,0.32621,-1.8507179
398,1436623626076,2.3157916,0.3633201,-1.757344
399,1436623626096,-4.110844,0.31124622,-2.1068976
400,1436623626115,-7.768586,0.7206547,-1.3437457
401,1436623626134,-9.462483,0.92057055,-1.1671734
402,1436623626156,-9.36073,1.0307038,-1.8968062
403,1436623626176,-7.4735007,0.79367787,-3.110068
404,1436623626196,-3.9480386,0.260968,-2.4013844
