id,attr_time,attr_x,attr_y,attr_z
1,1436623618126,-8.734048,4.143166,-1.3018472
2,1436623618146,-8.727464,4.148553,-1.3341689
3,1436623618166,-8.795698,4.1545386,-1.3640964
4,1436623618186,-8.723872,4.155137,-1.3802572
5,1436623618206,-8.756194,4.174889,-1.3940239
6,1436623618226,-8.746018,4.162918,-1.3970166
7,1436623618246,-8.797494,4.1066546,-1.3431472
8,1436623618266,-8.742428,4.1060557,-1.3257892
9,1436623618285,-8.756194,4.1078515,-1.3245921
10,1436623618305,-8.739435,4.0880995,-1.3180081
11,1436623618374,-8.756793,4.0976763,-1.3186066
12,1436623618375,-8.746617,4.111443,-1.3251907
13,1436623618376,-8.75799,4.1186256,-1.347337
14,1436623618384,-8.74542,4.1060557,-1.3425486
15,1436623618413,-8.770559,4.0857053,-1.3210008
16,1436623618425,-8.751406,4.0467997,-1.3174095
17,1436623618444,-8.7609825,4.042011,-1.3102269
18,1436623618464,-8.7532015,4.0557775,-1.3060371
19,1436623618483,-8.804677,4.0773253,-1.3126211
20,1436623618509,-8.772355,4.0827127,-1.3215994
21,1436623618524,-8.762179,4.1000705,-1.3305776
22,1436623618546,-8.766968,4.111443,-1.3162124
23,1436623618567,-8.728063,4.148553,-1.3126211
24,1436623618586,-8.695142,4.155137,-1.3281834
25,1436623618606,-8.727464,4.150947,-1.3431472
26,1436623618626,-8.747814,4.1862617,-1.3491327
27,1436623618646,-8.74542,4.155137,-1.3365631
28,1436623618666,-8.750209,4.1557355,-1.353921
29,1436623618686,-8.766968,4.1276035,-1.3497312
30,1436623618706,-8.734048,4.134786,-1.3628993
31,1436623618726,-8.747216,4.1222167,-1.347337
32,1436623618747,-8.674791,4.11683,-1.3383588
33,1436623618766,-8.663419,4.11264,-1.353921
34,1436623618791,-8.729858,4.124611,-1.3772645
35,1436623618807,-8.717288,4.1371803,-1.3880384
36,1436623618825,-8.732851,4.1371803,-1.3736732
37,1436623618844,-8.662222,4.136582,-1.4221559
38,1436623618877,-8.678981,4.1395745,-1.3772645
39,1436623618883,-8.641273,4.084508,-1.3533225
40,1436623618904,-8.498219,4.0773253,-1.3275849
41,1436623618923,-8.425196,4.048595,-1.3084313
42,1436623618943,-8.33242,4.032434,-1.3102269
43,1436623618965,-8.075044,3.9719806,-1.3210008
44,1436623618985,-7.805696,3.8510735,-1.3239936
45,1436623619004,-6.8162923,3.705027,-1.3377602
46,1436623619027,-5.835268,3.5248635,-1.3431472
47,1436623619094,-5.1840453,3.3943794,-1.3760674
48,1436623619095,-5.2169657,3.2668881,-1.3970166
49,1436623619096,-5.2905874,3.221997,-1.4215573
50,1436623619105,-5.395334,3.323152,-1.5598224
51,1436623619135,-6.177639,3.6104562,-1.6484078
52,1436623619145,-7.1730285,3.9851487,-1.6819267
53,1436623619163,-7.6482773,4.655525,-1.7340006
54,1436623619185,-8.550293,5.407305,-1.8154035
55,1436623619203,-10.070611,6.030994,-1.8100165
56,1436623619229,-11.599907,6.743269,-1.7363948
57,1436623619247,-13.643957,7.542334,-1.780089
58,1436623619264,-16.504429,8.614936,-1.875857
59,1436623619287,-19.498379,8.9602995,-1.8357542
60,1436623619307,-19.60911,9.107543,-1.6944963
61,1436623619327,-19.60911,9.45171,-1.6490064
62,1436623619347,-19.60911,10.111312,-2.0925324
63,1436623619367,-17.380108,9.57561,-2.3373394
64,1436623619387,-12.528857,7.4232225,-2.3068132
65,1436623619407,-7.852383,5.266645,-2.132635
66,1436623619427,-4.570531,3.4410665,-1.9255368
67,1436623619447,-1.2090719,1.8902222,-1.4718355
68,1436623619467,1.785476,0.736217,-1.134253
69,1436623619484,0.9187749,-0.10594343,-0.74519527
70,1436623619507,-0.7140707,0.006584055,-0.51834464
71,1436623619527,-0.8690952,0.0077811554,-0.43035775
72,1436623619547,-0.9828198,-0.11731588,-0.46327803
73,1436623619567,-0.2208651,-0.05746084,-0.5590461
74,1436623619587,0.47225627,-0.15741876,-0.5746084
75,1436623619607,0.46926352,-0.2160767,-0.37349546
76,1436623619627,0.48482585,-0.35673606,-0.28670564
77,1436623619646,1.0941502,-0.32680854,-0.2896984
78,1436623619667,0.88765025,0.3693056,-0.3669114
79,1436623619688,-3.642778,1.6771383,-0.43634325
80,1436623619708,-12.616246,4.1599255,-0.38606504
81,1436623619729,-19.60911,6.317101,-0.8170213
82,1436623619857,-19.60911,8.031349,-1.697489
83,1436623619858,-19.60911,6.7743936,-1.3449428
84,1436623619859,-19.60911,6.2763996,-1.1001357
85,1436623619860,-19.60911,7.3442135,-1.3425486
86,1436623619861,-19.60911,6.253655,-1.9470845
87,1436623619862,-19.60911,6.609792,-2.2391772
88,1436623619911,-18.587385,4.9679685,-2.2768857
89,1436623619912,-11.403583,4.080917,-2.1655555
90,1436623619913,-4.039018,3.283049,-1.8956091
91,1436623620046,-0.24061728,1.6819267,-1.650802
92,1436623620047,1.9674352,0.3764882,-1.2557588
93,1436623620048,1.3000516,-0.4405331,-1.0702082
94,1436623620054,-2.7551277,-0.1340753,-0.5566519
95,1436623620055,-2.552219,-0.21068975,-0.3866636
96,1436623620056,-0.23523031,-0.6889315,-0.3764882
97,1436623620057,-0.03232172,-0.89782566,-0.29927522
98,1436623620076,0.01316811,-0.7811083,-0.12449849
99,1436623620084,0.45310268,-0.9068039,0.005985504
100,1436623620105,0.3812766,-1.0199299,0.10534488
101,1436623620125,0.46387658,-1.0462662,0.12389994
102,1436623620145,1.0995371,-1.2078748,-0.01436521
103,1436623620167,0.9900024,-1.3090298,-0.15263036
104,1436623620185,-2.1853075,-1.0229226,-0.34476504
105,1436623620209,-8.371326,0.480636,-0.3776853
106,1436623620228,-18.154633,2.9125464,-0.59376204
107,1436623620246,-19.60911,3.82773,-1.6424223
108,1436623620268,-19.60911,5.345654,-2.5001452
109,1436623620289,-19.60911,4.1012673,-1.5616181
110,1436623620307,-19.60911,3.7834373,-0.6781576
111,1436623620328,-19.60911,4.4681787,-0.2705448
112,1436623620346,-19.60911,3.5954924,-1.1605892
113,1436623620365,-19.60911,4.657321,-1.6681601
114,1436623620387,-19.60911,3.980959,-1.7142484
115,1436623620408,-14.5645275,2.9514523,-1.359308
116,1436623620427,-4.6902413,2.066196,-0.9804256
117,1436623620448,0.008379706,0.21906945,-0.81522566
118,1436623620466,1.9871874,-0.93254155,-0.41299978
119,1436623620486,1.8064252,-1.2174516,-0.5506664
120,1436623620506,-2.3409307,-0.7763199,-0.17058687
121,1436623620526,-2.6581624,-0.8002619,-0.11671733
122,1436623620547,-0.55365914,-1.0839748,-0.27234045
123,1436623620569,-0.17417817,-1.0414777,-0.42437226
124,1436623620633,0.036511578,-0.7870938,-0.5021838
125,1436623620646,0.41299978,-0.66259533,-0.56084174
126,1436623620647,0.29628247,-0.6655881,-0.58777654
127,1436623620648,0.24600422,-0.75477207,-0.50278234
128,1436623620671,0.24121583,-0.943914,-0.4357447
129,1436623620688,0.8984242,-0.8283938,-0.3537433
130,1436623620705,1.6597804,-0.39324763,-0.3238158
131,1436623620725,0.30166942,0.4782418,-0.32202014
132,1436623620758,-8.276755,1.8902222,-0.2801216
133,1436623620776,-19.57978,4.36044,-0.08020575
134,1436623620785,-18.76336,5.2594624,-0.7505822
135,1436623620805,-15.673043,8.257602,-2.0111294
136,1436623620825,-19.60911,6.8079123,-1.5029601
137,1436623620845,-19.60911,3.957017,-1.3317747
138,1436623620868,-19.60911,5.770026,-0.7433996
139,1436623620889,-19.60911,3.9863458,-1.1575965
140,1436623620908,-19.60911,4.406528,-1.2455834
141,1436623620928,-17.711107,3.4955344,-1.2551602
142,1436623620948,-11.895591,2.303222,-1.1330559
143,1436623620968,-4.875193,1.3263878,-0.97144735
144,1436623620986,-0.93852705,0.18914193,-0.9888053
145,1436623621008,0.8702923,-0.320823,-0.86490536
146,1436623621029,1.8710686,-0.19033903,-0.9475053
147,1436623621045,0.0047884034,-0.0724246,-0.8810662
148,1436623621069,-0.78529817,-0.13587095,-0.7314286
149,1436623621089,-0.54527944,-0.2861071,-0.8074445
150,1436623621108,-0.98940384,-0.4237737,-0.7667431
151,1436623621128,-0.3824737,-0.260968,-0.801459
152,1436623621149,0.061650693,-0.3513491,-0.6865373
153,1436623621169,0.4285621,-0.4333505,-0.5518635
154,1436623621187,0.88166475,-0.44651863,-0.45908818
155,1436623621207,0.10474633,-0.39564183,-0.41000703
156,1436623621229,-3.4530375,0.2148796,-0.39743748
157,1436623621248,-9.458893,1.1911154,0.0796072
158,1436623621269,-15.832856,2.6252422,0.29628247
159,1436623621287,-12.409746,4.0677485,-0.017357962
160,1436623621308,-18.290504,6.205771,-0.54288524
161,1436623621358,-19.60911,5.896919,-1.3982137
162,1436623621359,-19.60911,6.0399723,-1.4437037
163,1436623621368,-19.60911,6.6846113,-1.5298948
164,1436623621386,-19.60911,5.8508306,-1.536479
165,1436623621410,-19.60911,5.6802435,-1.1318588
166,1436623621426,-19.60911,4.559159,-0.8158242
167,1436623621446,-16.027384,3.4685998,-0.57999533
168,1436623621468,-9.557653,2.973,-0.47285482
169,1436623621486,-4.472967,2.0679917,-0.44472298
170,1436623621506,-2.1877017,0.6913257,-0.32321724
171,1436623621531,0.0700304,-0.260968,-0.17956513
172,1436623621546,0.79726917,-0.92416185,-0.22266077
173,1436623621568,-1.0594343,-0.9528923,-0.16160862
174,1436623621588,-1.7058687,-0.63087213,-0.2136825
175,1436623621610,-1.246182,-0.5722142,-0.24241292
176,1436623621628,-0.27473465,-0.4854244,-0.3226187
177,1436623621649,0.22146365,-0.46267948,-0.260968
178,1436623621669,0.19153613,-0.5386954,-0.19871874
179,1436623621689,0.40581718,-0.62608373,-0.26156655
180,1436623621709,0.9600749,-0.7104794,-0.26515785
181,1436623621728,1.3904326,-0.45789108,-0.23223756
182,1436623621749,-0.26396075,0.29568392,-0.18375498
183,1436623621768,-5.9160724,1.5831659,-0.05865794
184,1436623621788,-13.053187,3.514688,-0.31483752
185,1436623621809,-19.164387,5.233126,-0.66618663
186,1436623621827,-19.60911,6.491878,-1.009156
187,1436623621848,-19.60911,6.82946,-0.6979098
188,1436623621869,-19.60911,6.5026517,-0.44532153
189,1436623621889,-19.60911,7.4962454,-0.32680854
190,1436623621909,-19.60911,7.480085,-0.54527944
191,1436623621929,-19.60911,7.563882,-0.9888053
192,1436623621948,-18.97345,6.7450647,-1.3096284
193,1436623621970,-14.812926,4.9655743,-1.4478935
194,1436623621987,-8.376713,3.5631707,-1.1971009
195,1436623622007,-2.099715,2.0123265,-0.94930094
196,1436623622036,0.7577648,-0.142455,-0.63206923
197,1436623622109,0.7404069,-1.4820108,-0.26635495
198,1436623622110,-0.82719666,-1.9476831,0.011971008
199,1436623622111,-1.714847,-2.0614076,0.094570965
200,1436623622112,-1.5101427,-1.9764135,-0.014963761
201,1436623622126,-1.5005659,-1.7567455,-0.01616086
202,1436623622149,-0.86490536,-1.5376761,-0.073023155
203,1436623622166,-0.094570965,-1.2294226,-0.15442601
204,1436623622187,0.074818805,-0.98461545,-0.11252748
205,1436623622208,0.45310268,-0.91458505,-0.11791443
206,1436623622277,0.6853402,-1.021127,0.036511578
207,1436623622278,0.5422867,-1.1330559,0.26036942
208,1436623622279,1.073201,-0.88944596,0.47105917
209,1436623622298,-2.1272483,-0.11133038,0.5374983
210,1436623622306,-9.842564,1.7555484,0.777517
211,1436623622327,-19.46845,4.1000705,1.3365631
212,1436623622349,-19.60911,6.4020953,0.87567925
213,1436623622370,-19.60911,8.290522,0.25438392
214,1436623622390,-19.60911,8.425795,0.2172738
215,1436623622410,-19.60911,4.185065,0.026934769
216,1436623622430,-19.60911,5.1726727,0.86490536
217,1436623622448,-19.60911,3.9773676,0.82719666
218,1436623622470,-19.60911,4.2143936,0.65182143
219,1436623622490,-16.96292,4.482544,0.32561144
220,1436623622509,-9.45171,3.4105403,-0.11492168
221,1436623622527,-2.2900538,2.32058,-0.46088383
222,1436623622548,1.9883845,0.9008184,-0.54647654
223,1436623622570,2.9879637,-0.51595044,-0.5279215
224,1436623622590,0.24121583,-1.0342951,-0.40462008
225,1436623622609,-2.082357,-0.9768343,-0.2753332
226,1436623622628,-1.8177977,-1.3431472,-0.40761283
227,1436623622648,-1.4466964,-1.4730326,-0.4866215
228,1436623622670,-0.91099375,-1.3724761,-0.6218939
229,1436623622690,-0.676362,-1.1204864,-0.700304
230,1436623622710,-0.33039984,-0.919972,-0.729633
231,1436623622730,0.40102878,-0.83497787,-0.84934306
232,1436623622749,0.59974754,-0.7679402,-0.9032126
233,1436623622769,0.58418524,-0.7787141,-0.90141696
234,1436623622792,0.89662856,-0.7224504,-0.89902276
235,1436623622868,0.729633,-0.6985083,-0.8062474
236,1436623622869,-2.1829133,-0.051475335,-0.6865373
237,1436623622870,-8.695142,1.4131776,0.14604631
238,1436623622871,-18.450916,3.0585926,0.521936
239,1436623622887,-19.589357,3.265691,0.21547815
240,1436623622910,-16.354193,7.2065473,-0.7787141
241,1436623622927,-19.60911,8.929773,-0.8439561
242,1436623622947,-19.60911,4.156334,-1.1390414
243,1436623622969,-19.60911,6.427833,-0.3645172
244,1436623622989,-19.60911,5.3995233,-0.51116204
245,1436623623009,-19.60911,5.068525,-0.40940848
246,1436623623029,-19.311033,4.5741224,-0.49200845
247,1436623623049,-13.335105,3.1190462,-0.6691794
248,1436623623071,-6.015432,1.8668787,-0.6536171
249,1436623623091,-0.9151836,0.7445967,-0.700304
250,1436623623111,1.4975731,-0.6733692,-0.39504328
251,1436623623131,2.4498668,-1.7585411,-0.20051439
252,1436623623149,-0.47405192,-2.1045034,-0.015562311
253,1436623623168,-3.66253,-1.8962077,0.20111294
254,1436623623191,-3.5793316,-1.9806033,0.29927522
255,1436623623211,-1.1198878,-2.0057425,0.27593175
256,1436623623231,-0.059855044,-1.8411411,0.17717093
257,1436623623249,-0.037110128,-1.5119383,0.13587095
258,1436623623268,0.22685061,-1.2791022,0.008379706
259,1436623623291,0.37708676,-1.1749545,-0.10055647
260,1436623623310,0.8571242,-1.0905589,-0.219668
261,1436623623330,1.4437037,-0.9151836,-0.30286652
262,1436623623350,1.4850036,-0.7092823,-0.32142156
263,1436623623368,0.48841715,-0.47764325,-0.3669114
264,1436623623391,-4.3795934,0.492607,-0.3549404
265,1436623623416,-16.601395,4.276643,0.3429694
266,1436623623428,-19.60911,6.8707604,-0.18794483
267,1436623623449,-17.520767,9.530719,-1.4574703
268,1436623623470,-19.60911,11.680712,-0.78050977
269,1436623623489,-19.60911,4.6519337,-0.8218097
270,1436623623511,-19.60911,6.974908,0.7140707
271,1436623623532,-19.60911,5.5922565,-0.11252748
272,1436623623603,-19.60911,4.9745526,-0.3393781
273,1436623623606,-18.76755,4.0144777,-0.53091425
274,1436623623608,-11.459248,2.380435,-0.6907272
275,1436623623609,-3.4913447,1.1085154,-0.9020155
276,1436623623631,0.9540894,-0.1448492,-1.2617443
277,1436623623654,2.1811178,-1.1773487,-1.2395979
278,1436623623668,1.4999673,-1.1791444,-1.1252748
279,1436623623688,-1.7304093,-0.6877344,-0.80205756
280,1436623623722,-3.1711202,-0.480636,-0.6015432
281,1436623623728,-1.8411411,-0.48841715,-0.55485624
282,1436623623750,-0.33399114,-0.516549,-0.65780693
283,1436623623770,0.30825347,-0.27952304,-0.7146692
284,1436623623788,0.52373165,-0.035913024,-0.6931214
285,1436623623811,0.82240826,0.061052144,-0.58777654
286,1436623623829,0.89782566,-0.09876082,-0.5434838
287,1436623623851,1.1953052,-0.093373865,-0.5710171
288,1436623623870,1.3808558,0.20410569,-0.6703765
289,1436623623889,-1.567005,0.95349085,-0.97743285
290,1436623623911,-8.951322,2.4678235,-0.9504981
291,1436623623929,-19.506758,4.8662148,-0.8074445
292,1436623623951,-19.60911,5.547964,-1.3850456
293,1436623623970,-17.51179,9.087791,-1.3874398
294,1436623623990,-19.60911,7.026982,-0.59615624
295,1436623624012,-19.60911,4.711789,-0.5069722
296,1436623624029,-19.60911,5.7724204,-0.018555064
297,1436623624051,-19.60911,4.9775453,-0.53450555
298,1436623624069,-19.60911,5.400122,-0.7517793
299,1436623624089,-15.62875,4.1276035,-0.92535895
300,1436623624112,-9.4217825,2.5079262,-0.7835025
301,1436623624131,-3.164536,1.0480618,-0.61291564
302,1436623624152,1.7328035,-0.42796355,-0.50038815
303,1436623624170,4.172495,-1.5987282,-0.51954174
304,1436623624191,1.1593921,-1.5448587,-0.59735334
305,1436623624211,-3.181894,-0.62249243,-0.40162733
306,1436623624230,-3.1160536,-0.5919664,-0.49200845
307,1436623624254,-0.5883751,-0.7248446,-0.64942724
308,1436623624432,-0.08080431,-0.51714754,-0.65780693
309,1436623624434,0.12808979,-0.12988544,-0.65421563
310,1436623624435,0.32800564,-0.044891283,-0.6380547
311,1436623624436,0.40581718,-0.12868834,-0.6404489
312,1436623624437,0.88645315,-0.23223756,-0.6967127
313,1436623624438,1.1408371,-0.27234045,-0.6823475
314,1436623624439,0.7553706,0.033518825,-0.5919664
315,1436623624440,-2.8042088,0.6907272,-0.7170634
316,1436623624441,-11.365874,2.0805612,-0.53809685
317,1436623624556,-19.60911,4.2461166,-0.7930793
318,1436623624557,-18.19234,5.7347116,-0.7428011
319,1436623624558,-18.875887,8.821436,-1.2060791
320,1436623624559,-19.60911,8.14268,-1.0456676
321,1436623624560,-19.60911,6.885724,-1.1534066
322,1436623624561,-19.60911,7.337031,-0.6799533
323,1436623624698,-19.60911,5.9729347,-0.82779527
324,1436623624699,-19.60911,5.57849,-0.581791
325,1436623624700,-17.31307,3.916914,-0.35673606
326,1436623624701,-11.905168,2.0721815,-0.15083471
327,1436623624702,-5.93762,0.5189432,-0.012569559
328,1436623624703,-1.3072342,-0.7314286,-0.107140526
329,1436623624704,1.7926586,-1.5209166,-0.18076223
330,1436623624731,1.9243397,-1.7591397,-0.46686932
331,1436623624732,-1.3162124,-1.0905589,-0.57879823
332,1436623624752,-2.2481554,-0.75357497,-0.7691373
333,1436623624769,-1.2012907,-0.93373865,-0.9475053
334,1436623624789,-0.8475474,-0.97384155,-0.95588505
335,1436623624809,-0.5530606,-0.8463503,-0.83976626
336,1436623624829,-0.11971009,-0.7284359,-0.60932434
337,1436623624849,0.46327803,-0.65660983,-0.4309563
338,1436623624869,0.88046765,-0.557849,-0.2741361
339,1436623624889,1.0726024,-0.38726214,-0.18315643
340,1436623624909,0.89902276,0.010773907,-0.22266077
341,1436623624929,-0.78649527,0.5758055,-0.29688102
342,1436623624948,-7.9792757,1.9919758,-0.14425065
343,1436623624976,-19.335573,5.947197,0.08140286
344,1436623624988,-19.60911,7.1490865,-0.439336
345,1436623625008,-18.992603,8.517372,-1.0193313
346,1436623625031,-19.60911,9.132084,-0.50158525
347,1436623625052,-19.60911,5.3085437,-0.04369418
348,1436623625073,-19.60911,6.1824274,0.9391256
349,1436623625093,-19.60911,4.722563,0.7781156
350,1436623625113,-19.60911,4.6519337,0.7769185
351,1436623625131,-16.088436,3.945046,0.46387658
352,1436623625152,-10.005967,2.9352913,0.25079262
353,1436623625171,-4.3101616,1.9566613,0.13347675
354,1436623625189,-0.53929394,0.74878657,-0.059855044
355,1436623625210,1.863886,-0.24660277,-0.22864626
356,1436623625231,1.4772224,-0.52492875,-0.52852005
357,1436623625250,-0.93134445,-0.4237737,-0.43035775
358,1436623625268,-1.1767502,-0.6745663,-0.4830302
359,1436623625291,-1.1402385,-0.95109665,-0.48243165
360,1436623625308,-0.9756372,-1.0809821,-0.4842273
361,1436623625328,-0.28670564,-0.9792285,-0.50996494
362,1436623625354,0.12090719,-0.9211691,-0.47764325
363,1436623625369,0.46327803,-0.76554596,-0.47764325
364,1436623625390,0.88944596,-0.56084174,-0.52612585
365,1436623625414,1.3335704,-0.14425065,-0.53330845
366,1436623625434,0.5506664,0.55725044,-0.48243165
367,1436623625453,-3.4883518,1.0600328,-0.30466217
368,1436623625470,-11.253346,2.4145525,0.492607
369,1436623625491,-19.521124,5.2594624,0.38726214
370,1436623625513,-19.60911,8.524555,-0.3890578
371,1436623625533,-19.60911,10.961852,-1.3521254
372,1436623625553,-19.60911,7.9583263,-1.5101427
373,1436623625570,-19.60911,6.867768,-0.8230068
374,1436623625592,-19.60911,6.615179,-0.12928689
375,1436623625614,-19.60911,5.21517,0.034117375
376,1436623625667,-19.60911,4.9996915,-0.035314474
377,1436623625668,-15.547347,4.1132383,-0.16699557
378,1436623625672,-8.74542,3.031658,-0.14844051
379,1436623625689,-2.2816741,1.7328035,-0.18076223
380,1436623625709,2.0272903,0.01436521,-0.25737667
381,1436623625729,3.4440591,-1.5999253,-0.2777274
382,1436623625749,0.48003745,-1.7160441,-0.1376666
383,1436623625770,-2.593519,-1.0989386,0.049081136
384,1436623625789,-2.9400797,-1.2318168,0.002992752
385,1436623625809,-1.6609775,-1.2431892,-0.036511578
386,1436623625829,-0.24600422,-0.92176765,-0.17956513
387,1436623625849,0.52253455,-0.59256494,-0.27473465
388,1436623625869,0.64463884,-0.31304187,-0.30825347
389,1436623625894,0.6787562,-0.1352724,-0.33159694
390,1436623625909,0.7146692,-0.10534488,-0.34596214
391,1436623625930,0.7667431,-0.15622166,-0.32800564
392,1436623625950,0.712275,-0.1376666,-0.2765303
393,1436623625970,-1.2354081,0.29029694,-0.17417817
394,1436623625990,-6.5098343,1.0001777,0.20111294
395,1436623626013,-16.81807,3.128623,1.0163386
396,1436623626036,-19.60911,4.795586,0.15981296
397,1436623626051,-17.645266,7.875128,-0.2885013
398,1436623626074,-19.60911,9.401431,-0.7164649
399,1436623626092,-19.60911,5.177461,-1.4329298
400,1436623626110,-19.60911,7.331644,-0.53689975
