id,attr_time,attr_x,attr_y,attr_z
1,1436894934830,-0.026267206,0.008857546,0.00030543262
2,1436894934852,-0.032070424,0.018325957,0.0021380284
3,1436894934870,-0.041233405,0.0290161,-0.0015271631
4,1436894934891,-0.03726278,0.03145956,-0.004581489
5,1436894934909,-0.032070424,0.025350908,-0.00580322
6,1436894934931,-0.029626964,0.021685716,-0.007941248
7,1436894934949,-0.03359759,0.009162978,-0.0030543262
8,1436894934973,-0.03756821,-0.005497787,-0.0018325958
9,1436894934993,-0.03573562,-0.00580322,0.00030543262
10,1436894935013,-0.032986723,-0.009773844,-0.00061086525
11,1436894935033,-0.036651913,-0.01863139,0.0076358155
12,1436894935053,-0.03970624,-0.021991149,0.009773844
13,1436894935073,-0.039095376,-0.014660766,0.0061086523
14,1436894935093,-0.03634648,-0.0027488936,0.00061086525
15,1436894935113,-0.03023783,0.015882496,0.0018325958
16,1436894935134,-0.03268129,0.037873644,0.0036651916
17,1436894935149,-0.032070424,0.038179077,0.0030543262
18,1436894935173,-0.034208454,0.01038471,0.008552114
19,1436894935189,-0.026267206,-0.032070424,0.013439035
20,1436894935210,-0.033292156,-0.043982297,0.0067195175
21,1436894935234,-0.03359759,-0.018936822,-0.002443461
22,1436894935251,-0.036651913,0.013744468,0.003970624
23,1436894935272,-0.03145956,0.005497787,0.007941248
24,1436894935290,-0.025045475,-0.004886922,0.006414085
25,1436894935312,-0.030848695,0.0061086523,0.0012217305
26,1436894935335,-0.038789943,0.022907447,0.0012217305
27,1436894935350,-0.03756821,0.02107485,0.0018325958
28,1436894935370,-0.027488936,0.018325957,0.00061086525
29,1436894935390,-0.017715093,0.009468411,0.0036651916
30,1436894935412,-0.025350908,-0.0076358155,0.0061086523
31,1436894935482,-0.032375857,-0.008857546,0.008246681
32,1436894935483,-0.03268129,-0.0076358155,0.0067195175
33,1436894935484,-0.023518313,-0.0030543262,0.0
34,1436894935493,-0.021685716,-0.008246681,0.004886922
35,1436894935512,-0.029321533,-0.01740966,0.00580322
36,1436894935532,-0.027794369,-0.0076358155,0.0036651916
37,1436894935550,-0.02687807,0.006414085,0.0061086523
38,1436894935570,-0.020463986,0.008246681,0.0061086523
39,1436894935596,-0.019242255,0.0033597588,0.008246681
40,1436894935612,-0.01985312,0.003970624,0.005192355
41,1436894935631,-0.021991149,0.00030543262,-0.00061086525
42,1436894935651,-0.029626964,-0.0009162979,0.0
43,1436894935672,-0.027183503,-0.005192355,-0.0009162979
44,1436894935693,-0.01985312,-0.007330383,-0.0018325958
45,1436894935713,-0.022296581,0.002443461,0.0
46,1436894935732,-0.02076942,0.018020526,-0.0021380284
47,1436894935754,-0.031154128,0.016493361,0.008552114
48,1436894935773,-0.018325957,-0.00580322,0.01038471
49,1436894935793,-0.0125227375,-0.018325957,-0.0009162979
50,1436894935813,-0.01740966,-0.010995574,-0.006414085
51,1436894935833,-0.030848695,0.007941248,-0.0070249503
52,1436894935854,-0.03634648,0.0143553335,-0.0012217305
53,1436894935872,-0.022907447,0.024740042,-0.0021380284
54,1436894935894,-0.015882496,0.02076942,0.0021380284
55,1436894935914,-0.017715093,-0.00061086525,0.003970624
56,1436894935935,-0.017104227,-0.005192355,0.00580322
57,1436894935953,-0.023823744,0.008552114,0.0
58,1436894936003,-0.025961773,0.015882496,-0.0009162979
59,1436894936004,-0.020463986,0.02321288,-0.0009162979
60,1436894936012,-0.025350908,0.025350908,0.007330383
61,1436894936034,-0.028405234,0.023518313,0.015882496
62,1436894936054,-0.028405234,0.021380283,0.0070249503
63,1436894936074,-0.022907447,0.024129177,0.009162978
64,1436894936093,-0.022602014,0.019547688,0.008552114
65,1436894936111,-0.01863139,0.01863139,0.010995574
66,1436894936140,-0.022296581,0.01740966,0.01038471
67,1436894936200,-0.019547688,0.018936822,0.009773844
68,1436894936201,-0.02076942,0.006414085,0.009162978
69,1436894936202,-0.020158553,-0.00030543262,0.0106901415
70,1436894936234,-0.023518313,0.003970624,0.0061086523
71,1436894936235,-0.026572637,0.014049901,0.0070249503
72,1436894936272,-0.02565634,0.013133603,0.012217305
73,1436894936274,-0.025350908,-0.009162978,0.017104227
74,1436894936295,-0.016187929,-0.0143553335,0.019547688
75,1436894936324,-0.02107485,-0.0061086523,0.01038471
76,1436894936331,-0.030848695,0.015271631,0.007330383
77,1436894936363,-0.03359759,0.018020526,0.008552114
78,1436894936371,-0.026267206,0.010995574,0.013133603
79,1436894936391,-0.020463986,-0.0033597588,0.02107485
80,1436894936417,-0.027183503,-0.0143553335,0.019547688
81,1436894936431,-0.0290161,-0.026267206,0.016493361
82,1436894936451,-0.024129177,-0.025045475,0.014660766
83,1436894936474,-0.028099801,-0.01863139,0.0076358155
84,1436894936494,-0.022296581,-0.013133603,0.0009162979
85,1436894936514,-0.028405234,0.004276057,0.004886922
86,1436894936534,-0.033292156,0.025045475,0.008857546
87,1436894936554,-0.03145956,0.040317107,0.008552114
88,1436894936574,-0.027488936,0.03176499,0.011301007
89,1436894936594,-0.024129177,0.01282817,0.009162978
90,1436894936614,-0.027794369,0.0009162979,0.016187929
91,1436894936634,-0.028710667,0.0012217305,0.010995574
92,1436894936653,-0.030848695,0.00061086525,0.011911872
93,1436894936674,-0.027794369,-0.009162978,0.01038471
94,1436894936693,-0.03268129,-0.015882496,0.01863139
95,1436894936713,-0.03940081,-0.015577064,0.01160644
96,1436894936732,-0.039095376,-0.018020526,0.013439035
97,1436894936753,-0.026572637,-0.022602014,0.012217305
98,1436894936773,-0.032070424,-0.010079277,0.009773844
99,1436894936794,-0.040317107,0.004581489,0.004581489
100,1436894936815,-0.047647487,0.026572637,0.01160644
101,1436894936833,-0.043066,0.0290161,0.013439035
102,1436894936853,-0.031154128,0.025350908,0.0143553335
103,1436894936873,-0.028405234,0.0015271631,0.018325957
104,1436894936893,-0.03634648,-0.009773844,0.011911872
105,1436894936914,-0.039095376,-0.021991149,0.0030543262
106,1436894936980,-0.035124753,-0.02321288,0.0027488936
107,1436894936981,-0.03390302,-0.013133603,0.0009162979
108,1436894936982,-0.04153884,-0.005497787,0.0009162979
109,1436894936991,-0.042760566,-0.0009162979,0.00580322
110,1436894937017,-0.04062254,0.013133603,0.005497787
111,1436894937033,-0.040011674,0.016493361,0.01282817
112,1436894937052,-0.035430185,0.008552114,0.01282817
113,1436894937073,-0.033292156,-0.010995574,0.009468411
114,1436894937094,-0.03390302,-0.027794369,0.01160644
115,1436894937114,-0.032375857,-0.0290161,0.0036651916
116,1436894937133,-0.032986723,-0.039095376,0.0
117,1436894937154,-0.035124753,-0.040011674,0.002443461
118,1436894937172,-0.03726278,-0.031154128,0.0027488936
119,1436894937193,-0.0421497,-0.01282817,0.004581489
120,1436894937216,-0.03726278,-0.0076358155,0.004276057
121,1436894937235,-0.034208454,-0.013133603,0.008552114
122,1436894937252,-0.02687807,-0.016493361,0.00580322
123,1436894937273,-0.030848695,-0.010079277,0.0061086523
124,1436894937292,-0.037873644,-0.0030543262,0.0061086523
125,1436894937315,-0.034513887,-0.00030543262,0.007330383
126,1436894937335,-0.025350908,-0.002443461,-0.0036651916
127,1436894937352,-0.025961773,-0.013744468,0.0061086523
128,1436894937375,-0.0290161,-0.027794369,0.006414085
129,1436894937395,-0.03359759,-0.023518313,-0.0027488936
130,1436894937415,-0.03634648,-0.013744468,-0.0027488936
131,1436894937435,-0.03604105,-0.0036651916,-0.0018325958
132,1436894937455,-0.032070424,0.0036651916,-0.004276057
133,1436894937475,-0.036957346,0.003970624,-0.0009162979
134,1436894937494,-0.032986723,0.007941248,0.004276057
135,1436894937515,-0.032070424,0.013133603,0.008246681
136,1436894937535,-0.027488936,0.0076358155,0.010079277
137,1436894937555,-0.026267206,-0.004276057,0.013439035
138,1436894937575,-0.028405234,-0.009773844,0.009162978
139,1436894937593,-0.032375857,-0.007330383,0.007330383
140,1436894937620,-0.028099801,-0.01038471,0.002443461
141,1436894937691,-0.02565634,-0.009468411,0.003970624
142,1436894937693,-0.025350908,-0.0143553335,0.006414085
143,1436894937695,-0.03176499,-0.007330383,0.0033597588
144,1436894937699,-0.03726278,0.0036651916,0.0021380284
145,1436894937715,-0.024740042,0.007941248,0.0012217305
146,1436894937733,-0.021991149,0.009773844,0.0
147,1436894937753,-0.029626964,0.015882496,-0.0030543262
148,1436894937772,-0.03573562,0.02565634,0.0061086523
149,1436894937796,-0.029321533,0.019547688,0.007941248
150,1436894937813,-0.02076942,0.003970624,0.01160644
151,1436894937832,-0.019242255,-0.0076358155,0.009162978
152,1436894937853,-0.020463986,-0.0143553335,0.0030543262
153,1436894937876,-0.02687807,-0.01282817,0.004886922
154,1436894937896,-0.031154128,-0.007330383,0.003970624
155,1436894937917,-0.032070424,0.004581489,-0.0018325958
156,1436894937935,-0.034208454,-0.0009162979,0.002443461
157,1436894937955,-0.03359759,0.00030543262,0.0018325958
158,1436894937976,-0.034208454,-0.0027488936,0.008246681
159,1436894937996,-0.031154128,-0.0027488936,0.003970624
160,1436894938016,-0.025045475,-0.0021380284,0.005497787
161,1436894938036,-0.019242255,-0.0018325958,0.0033597588
162,1436894938056,-0.027488936,-0.0021380284,-0.0027488936
163,1436894938076,-0.032375857,-0.004276057,-0.0061086523
164,1436894938093,-0.03023783,-0.01282817,-0.0061086523
165,1436894938117,-0.022907447,-0.016493361,-0.008552114
166,1436894938136,-0.029626964,-0.014660766,-0.0067195175
167,1436894938156,-0.03176499,0.004276057,-0.011911872
168,1436894938176,-0.03268129,0.013439035,-0.003970624
169,1436894938193,-0.025350908,0.0106901415,-0.00030543262
170,1436894938217,-0.021380283,-0.0027488936,0.003970624
171,1436894938243,-0.02565634,-0.002443461,-0.0009162979
172,1436894938257,-0.03756821,0.0076358155,-0.0018325958
173,1436894938274,-0.036957346,0.010079277,-0.002443461
174,1436894938295,-0.027488936,0.004886922,-0.0036651916
175,1436894938315,-0.022907447,-0.0030543262,0.0018325958
176,1436894938334,-0.023518313,-0.010079277,-0.0015271631
177,1436894938354,-0.030543262,-0.0030543262,0.0
178,1436894938374,-0.030848695,0.004886922,0.0067195175
179,1436894938428,-0.029626964,0.004276057,0.0021380284
180,1436894938429,-0.028099801,0.004276057,0.006414085
181,1436894938445,-0.025045475,0.009468411,0.01863139
182,1436894938453,-0.02443461,0.007330383,0.019547688
183,1436894938473,-0.029321533,0.011911872,0.018325957
184,1436894938494,-0.021991149,0.018325957,0.011911872
185,1436894938513,-0.023823744,0.018325957,0.0036651916
186,1436894938535,-0.024740042,-0.019547688,0.010079277
187,1436894938553,-0.02565634,-0.046120327,0.005192355
188,1436894938574,-0.023823744,-0.02687807,-0.0036651916
189,1436894938593,-0.023518313,0.004581489,-0.008552114
190,1436894938614,-0.022602014,0.032070424,-0.0067195175
191,1436894938633,-0.01985312,0.038179077,-0.0021380284
192,1436894938656,-0.016798794,0.03481932,0.005192355
193,1436894938676,-0.018936822,0.023823744,0.008857546
194,1436894938696,-0.019242255,0.014660766,0.007941248
195,1436894938713,-0.021685716,0.007941248,0.003970624
196,1436894938733,-0.01863139,-0.006414085,0.00580322
197,1436894938753,-0.021685716,-0.014966198,0.0
198,1436894938773,-0.02321288,-0.018936822,0.00030543262
199,1436894938797,-0.019547688,-0.009162978,-0.004276057
200,1436894938818,-0.023518313,0.009468411,-0.0015271631
201,1436894938834,-0.02076942,0.019242255,-0.00030543262
202,1436894938856,-0.016493361,0.028710667,-0.0015271631
203,1436894938876,-0.02321288,0.028710667,0.003970624
204,1436894938896,-0.02443461,0.017104227,-0.00061086525
205,1436894938915,-0.026572637,0.004276057,-0.0018325958
206,1436894938935,-0.02107485,0.0018325958,0.00580322
207,1436894938956,-0.024740042,-0.004581489,0.00580322
208,1436894938976,-0.024129177,0.0021380284,0.004276057
209,1436894938996,-0.027794369,-0.0033597588,0.0
210,1436894939017,-0.03023783,0.012217305,-0.0015271631
211,1436894939035,-0.029932396,0.022602014,-0.0012217305
212,1436894939056,-0.026572637,0.018936822,0.002443461
213,1436894939075,-0.024740042,-0.0018325958,0.018325957
214,1436894939094,-0.027488936,-0.009773844,0.009468411
215,1436894939117,-0.03481932,-0.016493361,0.008857546
216,1436894939187,-0.030848695,-0.021991149,0.013744468
217,1436894939188,-0.02443461,-0.014660766,0.0033597588
218,1436894939189,-0.02687807,-0.0015271631,-0.0021380284
219,1436894939203,-0.03726278,0.01038471,0.0009162979
220,1436894939215,-0.035430185,0.016798794,-0.004581489
221,1436894939251,-0.02443461,0.023518313,-0.004581489
222,1436894939257,-0.01985312,0.03023783,0.0030543262
223,1436894939274,-0.020158553,0.022602014,0.0015271631
224,1436894939324,-0.01985312,0.0021380284,0.004581489
225,1436894939325,-0.022907447,-0.00580322,0.0067195175
226,1436894939336,-0.028710667,-0.010995574,0.0067195175
227,1436894939357,-0.025045475,-0.014966198,0.00061086525
228,1436894939390,-0.022602014,-0.0076358155,0.0070249503
229,1436894939396,-0.02443461,0.006414085,0.011301007
230,1436894939414,-0.023518313,0.010079277,0.014660766
231,1436894939434,-0.013133603,0.018020526,0.01038471
232,1436894939454,-0.007330383,0.01985312,0.010995574
233,1436894939496,-0.015882496,0.019547688,0.0106901415
234,1436894939497,-0.02107485,0.013439035,0.005497787
235,1436894939514,-0.022602014,0.0076358155,0.00061086525
236,1436894939534,-0.026267206,-0.0018325958,0.0015271631
237,1436894939555,-0.022296581,-0.0106901415,0.0106901415
238,1436894939580,-0.020158553,-0.007941248,0.009468411
239,1436894939597,-0.021991149,0.0033597588,0.01038471
240,1436894939619,-0.028710667,0.016493361,0.014660766
241,1436894939641,-0.021991149,0.004581489,0.007330383
242,1436894939660,-0.015271631,-0.003970624,0.0076358155
243,1436894939677,-0.01863139,-0.0076358155,0.006414085
244,1436894939694,-0.029932396,0.0018325958,0.0015271631
245,1436894939713,-0.038789943,0.014966198,0.0018325958
246,1436894939733,-0.032375857,0.01038471,0.005192355
247,1436894939755,-0.025961773,0.0018325958,0.008857546
248,1436894939776,-0.019547688,-0.004276057,0.009773844
249,1436894939798,-0.0290161,-0.010995574,0.008552114
250,1436894939814,-0.0290161,-0.007941248,0.00580322
251,1436894939837,-0.027183503,0.00030543262,0.002443461
252,1436894939862,-0.02565634,0.006414085,0.0061086523
253,1436894939873,-0.03176499,0.0027488936,0.0027488936
254,1436894939895,-0.03848451,0.016187929,0.00580322
255,1436894939914,-0.032070424,0.026267206,0.009162978
256,1436894939936,-0.03023783,0.022602014,0.013744468
257,1436894939957,-0.028405234,0.01282817,0.011911872
258,1436894939975,-0.025045475,0.00580322,0.011301007
259,1436894939994,-0.027488936,0.011301007,0.006414085
260,1436894940017,-0.022602014,0.005192355,0.006414085
261,1436894940036,-0.021380283,0.0030543262,0.0067195175
262,1436894940057,-0.024740042,-0.0009162979,0.011911872
263,1436894940076,-0.029321533,0.0021380284,0.004886922
264,1436894940098,-0.027183503,-0.004886922,0.0036651916
265,1436894940118,-0.022907447,-0.02687807,0.0015271631
266,1436894940137,-0.01985312,-0.027183503,0.0027488936
267,1436894940157,-0.0290161,-0.02107485,-0.0030543262
268,1436894940178,-0.03848451,-0.002443461,-0.0033597588
269,1436894940198,-0.033292156,0.0143553335,-0.0012217305
270,1436894940215,-0.022907447,0.014966198,0.0027488936
271,1436894940236,-0.019242255,0.011301007,0.010079277
272,1436894940258,-0.01985312,0.007330383,0.015271631
273,1436894940276,-0.027488936,0.0,0.010079277
274,1436894940296,-0.0290161,0.00061086525,0.0015271631
275,1436894940316,-0.029932396,-0.0012217305,-0.0021380284
276,1436894940338,-0.03176499,-0.0027488936,0.004581489
277,1436894940358,-0.03359759,-0.004886922,0.012217305
278,1436894940377,-0.03359759,-0.0030543262,0.008246681
279,1436894940398,-0.028710667,-0.004276057,0.008552114
280,1436894940416,-0.0290161,-0.0143553335,0.002443461
281,1436894940438,-0.025961773,-0.015577064,0.005497787
282,1436894940457,-0.03390302,-0.007330383,0.007941248
283,1436894940478,-0.03604105,-0.0018325958,0.008857546
284,1436894940501,-0.032070424,-0.0021380284,0.01038471
285,1436894940572,-0.034513887,-0.008552114,0.0061086523
286,1436894940573,-0.036957346,-0.0106901415,0.0030543262
287,1436894940576,-0.040927973,-0.00580322,-0.002443461
288,1436894940577,-0.037873644,-0.015882496,0.0036651916
289,1436894940595,-0.031154128,-0.028710667,0.0036651916
290,1436894940616,-0.032070424,-0.027488936,-0.002443461
291,1436894940635,-0.042760566,-0.010079277,-0.0067195175
292,1436894940655,-0.04917465,0.0012217305,-0.0061086523
293,1436894940677,-0.046120327,0.0143553335,-0.003970624
294,1436894940696,-0.031154128,0.014660766,0.002443461
295,1436894940716,-0.024740042,0.0015271631,0.0067195175
296,1436894940737,-0.029321533,-0.0067195175,0.0012217305
297,1436894940757,-0.040927973,-0.010995574,-0.0030543262
298,1436894940777,-0.039095376,-0.0067195175,-0.0018325958
299,1436894940798,-0.03604105,-0.0009162979,-0.006414085
300,1436894940818,-0.03756821,-0.0061086523,-0.00030543262
301,1436894940838,-0.04153884,-0.00030543262,-0.00030543262
302,1436894940858,-0.036651913,0.003970624,0.0012217305
303,1436894940878,-0.03145956,0.007941248,-0.002443461
304,1436894940898,-0.027794369,0.002443461,-0.002443461
305,1436894940918,-0.032070424,-0.0009162979,-0.0018325958
306,1436894940936,-0.032986723,-0.0033597588,-0.0012217305
307,1436894940957,-0.03481932,-0.0021380284,-0.009162978
308,1436894940979,-0.03573562,-0.003970624,-0.011911872
309,1436894940999,-0.034513887,-0.002443461,-0.004581489
310,1436894941017,-0.03573562,0.004276057,-0.003970624
311,1436894941038,-0.040011674,0.007330383,-0.0067195175
312,1436894941059,-0.03604105,0.0036651916,-0.0009162979
313,1436894941077,-0.032986723,-0.0036651916,-0.0027488936
314,1436894941097,-0.032070424,-0.005497787,-0.004581489
315,1436894941117,-0.037873644,-0.0036651916,-0.00580322
316,1436894941139,-0.03940081,0.007330383,-0.006414085
317,1436894941157,-0.03604105,0.009773844,-0.003970624
318,1436894941177,-0.023823744,0.008552114,-0.0015271631
319,1436894941196,-0.02076942,0.004886922,0.0
320,1436894941222,-0.029321533,0.004886922,0.0027488936
321,1436894941277,-0.02687807,0.0012217305,0.00030543262
322,1436894941278,-0.030848695,-0.00030543262,0.00061086525
323,1436894941279,-0.028405234,0.00061086525,-0.0036651916
324,1436894941303,-0.025350908,0.0009162979,-0.004276057
325,1436894941316,-0.030848695,0.008857546,0.0027488936
326,1436894941344,-0.03359759,0.010079277,0.007330383
327,1436894941356,-0.023518313,0.009468411,0.007330383
328,1436894941376,-0.021991149,0.01038471,-0.00061086525
329,1436894941397,-0.02443461,0.012217305,-0.0009162979
330,1436894941416,-0.026572637,0.010995574,-0.0018325958
331,1436894941438,-0.02687807,0.00580322,-0.0012217305
332,1436894941457,-0.02076942,-0.018325957,0.0070249503
333,1436894941476,-0.021380283,-0.035124753,0.0067195175
334,1436894941499,-0.022602014,-0.03359759,0.004581489
335,1436894941519,-0.033292156,-0.025045475,0.0015271631
336,1436894941539,-0.027488936,-0.02076942,0.0033597588
337,1436894941559,-0.023518313,-0.030543262,0.0
338,1436894941579,-0.021991149,-0.024129177,-0.002443461
339,1436894941599,-0.026572637,-0.007330383,-0.0070249503
340,1436894941619,-0.034513887,0.003970624,-0.010079277
341,1436894941639,-0.026267206,0.0143553335,-0.005192355
342,1436894941659,-0.022296581,0.0125227375,-0.003970624
343,1436894941677,-0.018020526,0.0033597588,-0.007330383
344,1436894941697,-0.025961773,-0.009162978,-0.007941248
345,1436894941719,-0.025350908,-0.027488936,-0.009162978
346,1436894941736,-0.026572637,-0.039095376,-0.0070249503
347,1436894941758,-0.022296581,-0.049480084,-0.008552114
348,1436894941777,-0.02443461,-0.03726278,-0.006414085
349,1436894941800,-0.029932396,-0.02321288,-0.0061086523
350,1436894941819,-0.024740042,0.005497787,-0.003970624
351,1436894941841,-0.022907447,0.03023783,0.002443461
352,1436894941859,-0.018936822,0.05681047,0.004581489
353,1436894941877,-0.018020526,0.051923547,0.013744468
354,1436894941897,-0.01740966,0.0290161,0.025045475
355,1436894941918,-0.018936822,-0.01282817,0.036957346
356,1436894941937,-0.00580322,-0.0571159,0.03970624
357,1436894942012,0.0030543262,-0.1001819,0.035124753
358,1436894942034,0.014966198,-0.14080444,0.036651913
359,1436894942035,0.019242255,-0.18936823,0.040317107
360,1436894942036,0.019547688,-0.21777347,0.059253927
