id,attr_time,attr_x,attr_y,attr_z
1,1436963023623,-0.0260925,0.0131378,0.0304871
2,1436963023642,-0.0357056,0.00672913,0.0283508
3,1436963023663,-0.0292969,0.00245666,0.0123291
4,1436963023684,-0.0164795,-0.00288391,-0.00582886
5,1436963023702,0.0177002,0.00245666,-0.0229187
6,1436963023721,0.043335,0.0131378,-0.0303955
7,1436963023742,0.043335,0.0142059,-0.0325317
8,1436963023761,0.0454712,0.0131378,-0.026123
9,1436963023782,0.0508118,0.0110016,-0.0186462
10,1436963023801,0.0636291,0.0131378,-0.0101013
11,1436963023819,0.0839233,0.0163422,-0.000488281
12,1436963023840,0.0871277,0.0248871,0.00698853
13,1436963023859,0.080719,0.033432,0.0155334
14,1436963023882,0.0732422,0.0291595,0.0187378
15,1436963023900,0.0732422,0.0216827,0.0219421
16,1436963023919,0.0753784,0.00993347,0.0176697
17,1436963023939,0.0775147,0.00138855,0.00805664
18,1436963023959,0.0775147,0.00245666,-0.00369263
19,1436963023979,0.0636291,-0.00288391,-0.0101013
20,1436963023998,0.0422668,-0.0135651,-0.01651
21,1436963024019,0.0273132,-0.0114288,-0.0197144
22,1436963024036,-0.00900269,-0.0135651,-0.0250549
23,1436963024058,-0.0175476,-0.0114288,-0.0271912
24,1436963024078,0.00488281,-0.00395203,-0.0229187
25,1436963024097,0.0294495,-0.0018158,-0.0133057
26,1436963024117,0.0401306,-0.000747681,-0.000488281
27,1436963024136,0.0358582,-0.00395203,0.0133972
28,1436963024157,0.0379944,-0.00395203,0.0230103
29,1436963024175,0.0582886,-0.0018158,0.020874
30,1436963024197,0.080719,0.00138855,0.0166016
31,1436963024216,0.0764465,-0.00608826,0.00592041
32,1436963024235,0.0540161,-0.0114288,-0.00369263
33,1436963024256,0.0572205,-0.00502014,-0.0111694
34,1436963024276,0.0582886,0.00138855,-0.0122375
35,1436963024295,0.0444031,-0.0018158,-0.00796509
36,1436963024315,0.025177,-0.00502014,-0.00369263
37,1436963024334,0.0315857,0.000320435,-0.000488281
38,1436963024353,0.0326538,0.00245666,-0.000488281
39,1436963024374,0.0219727,0.00779724,-0.000488281
40,1436963024395,0.0177002,0.00993347,0.00164795
41,1436963024413,0.0144958,0.0131378,0.00805664
42,1436963024434,0.00488281,0.0131378,0.00698853
43,1436963024451,0.00274658,0.015274,0.00592041
44,1436963024475,0.000610352,0.0184784,-0.0015564
45,1436963024492,0.00274658,0.0248871,-0.0090332
46,1436963024513,0.0187683,0.0312958,-0.0133057
47,1436963024532,0.03479,0.0345001,-0.0133057
48,1436963024552,0.0219727,0.0323639,-0.0122375
49,1436963024572,0.0112915,0.023819,-0.0122375
50,1436963024592,0.025177,0.023819,-0.0101013
51,1436963024612,0.052948,0.0206146,-0.0101013
52,1436963024631,0.0508118,0.0195465,-0.0133057
53,1436963024653,0.0241089,0.00886536,-0.0101013
54,1436963024670,0.0177002,0.00886536,-0.00476074
55,1436963024691,0.00808716,0.00352478,-0.00369263
56,1436963024710,-0.00579834,0.00352478,-0.00262451
57,1436963024731,-0.000457764,0.000320435,-0.00262451
58,1436963024752,-0.00686645,-0.00715637,0.00164795
59,1436963024768,-0.020752,-0.00288391,0.000579834
60,1436963024790,-0.0260925,0.0045929,-0.00262451
61,1436963024809,-0.0357056,0.00566101,-0.00582886
62,1436963024829,-0.0463867,0.00352478,-0.00796509
63,1436963024851,-0.0506592,0.00672913,-0.0111694
64,1436963024869,-0.0495911,0.00886536,-0.0143738
65,1436963024888,-0.0538635,0.00886536,-0.0218506
66,1436963024909,-0.048523,0.00779724,-0.0207825
67,1436963024928,-0.0239563,0.0045929,-0.0154419
68,1436963024946,-0.00900269,0.000320435,-0.00689697
69,1436963024968,-0.00366211,-0.00395203,0.00378418
70,1436963024986,-0.00473022,-0.00822449,0.00805664
71,1436963025007,-0.00579834,-0.00715637,0.0048523
72,1436963025027,0.00167847,-0.00608826,-0.00262451
73,1436963025046,0.0134277,-0.00395203,-0.00476074
74,1436963025066,0.015564,-0.00395203,-0.0101013
75,1436963025085,-0.0100708,-0.0092926,-0.0090332
76,1436963025106,-0.0463867,-0.0103607,-0.0101013
77,1436963025125,-0.0517273,-0.00822449,-0.0101013
78,1436963025148,-0.0442505,-0.00288391,-0.0090332
79,1436963025165,-0.0613403,-0.00395203,-0.00689697
80,1436963025185,-0.0656128,0.000320435,-0.00369263
81,1436963025205,-0.0592041,0.00352478,-0.00689697
82,1436963025224,-0.058136,0.00566101,-0.0015564
83,1436963025245,-0.0527954,0.000320435,0.00592041
84,1436963025263,-0.0634766,-0.0103607,0.0133972
85,1436963025284,-0.0666809,-0.00715637,0.0198059
86,1436963025302,-0.0517273,0.00245666,0.0123291
87,1436963025324,-0.0538635,0.00779724,0.00805664
88,1436963025343,-0.0624084,0.00352478,-0.00262451
89,1436963025362,-0.0517273,0.00886536,-0.00369263
90,1436963025381,-0.0645447,0.0195465,-0.0154419
91,1436963025402,-0.107269,0.00245666,-0.0229187
92,1436963025421,-0.126495,0.00245666,-0.0325317
93,1436963025444,-0.104065,0.00352478,-0.026123
94,1436963025462,-0.0527954,0.00672913,-0.0122375
95,1436963025482,-0.012207,0.015274,-0.0015564
96,1436963025501,-0.00366211,0.0174103,0.00164795
97,1436963025521,-0.0186157,0.0142059,-0.0015564
98,1436963025541,-0.0196838,0.015274,-0.00796509
99,1436963025560,-0.00152588,0.0174103,-0.0143738
100,1436963025579,0.0177002,0.0184784,-0.0143738
101,1436963025600,0.0198364,0.0206146,-0.0143738
102,1436963025619,0.0166321,0.0195465,-0.0133057
103,1436963025640,0.0187683,0.0184784,-0.0090332
104,1436963025659,0.015564,0.015274,-0.0122375
105,1436963025682,0.0038147,0.015274,-0.0143738
106,1436963025698,0.00488281,0.0163422,-0.0101013
107,1436963025719,0.00915527,0.0163422,-0.00476074
108,1436963025739,0.00167847,0.0206146,-0.00262451
109,1436963025758,-0.00366211,0.00886536,0.000579834
110,1436963025778,-0.00686645,0.00138855,0.00805664
111,1436963025797,-0.00900269,0.0045929,0.00698853
112,1436963025818,-0.0239563,0.00245666,0.00164795
113,1436963025838,-0.039978,0.0045929,-0.00262451
114,1436963025858,-0.0367737,0.00138855,-0.00582886
115,1436963025877,-0.0357056,-0.00395203,-0.00262451
116,1436963025895,-0.048523,0.00138855,-0.000488281
117,1436963025917,-0.0592041,-0.00395203,0.00164795
118,1436963025935,-0.0762939,-0.00288391,-0.00262451
119,1436963025956,-0.0762939,-0.00395203,0.00164795
120,1436963025976,-0.067749,-0.0157013,0.00378418
121,1436963025996,-0.0666809,-0.0114288,0.00698853
122,1436963026015,-0.0666809,-0.0124969,0.0144653
123,1436963026034,-0.0666809,-0.0135651,0.0198059
124,1436963026055,-0.0613403,-0.0157013,0.0219421
125,1436963026077,-0.0389099,-0.0135651,0.0176697
126,1436963026095,-0.00473022,-0.00822449,0.0155334
127,1436963026113,0.015564,-0.00822449,0.0123291
128,1436963026134,0.00274658,-0.0092926,0.00912476
129,1436963026154,0.00595093,-0.00715637,0.00698853
130,1436963026176,0.0305176,-0.00395203,0.00378418
131,1436963026193,0.0411987,0.00138855,-0.000488281
132,1436963026212,0.0315857,-0.000747681,0.00164795
133,1436963026233,0.0241089,-0.00288391,0.00271606
134,1436963026252,0.0123596,0.00566101,0.00378418
135,1436963026275,0.00274658,0.00352478,0.00378418
136,1436963026292,0.000610352,-0.0018158,0.00805664
137,1436963026312,0.000610352,0.00245666,0.00592041
138,1436963026332,0.000610352,0.00566101,0.0048523
139,1436963026351,-0.0196838,0.00672913,0.00164795
140,1436963026369,-0.0250244,0.0110016,0.000579834
141,1436963026389,-0.012207,0.0131378,0.00378418
142,1436963026410,0.00274658,0.0216827,0.00592041
143,1436963026430,0.0038147,0.0163422,0.0048523
144,1436963026450,-0.00152588,0.0131378,0.00378418
145,1436963026472,0.00488281,0.0142059,0.00592041
146,1436963026490,0.0219727,0.00886536,0.00912476
147,1436963026510,0.0230408,0.00779724,0.00592041
148,1436963026529,0.0198364,0.0045929,0.0048523
149,1436963026548,0.0198364,0.00352478,0.00592041
150,1436963026571,0.0144958,0.000320435,0.0048523
151,1436963026589,0.00701904,0.00138855,0.00912476
152,1436963026608,0.0102234,0.00138855,0.0155334
153,1436963026628,0.0144958,0.0045929,0.0187378
154,1436963026648,-0.00366211,0.00138855,0.0176697
155,1436963026667,-0.00473022,0.000320435,0.0144653
156,1436963026688,0.0187683,0.00245666,0.0123291
157,1436963026706,0.025177,0.000320435,0.00805664
158,1436963026727,0.0144958,-0.00395203,0.0101929
159,1436963026746,0.015564,-0.0018158,0.00805664
160,1436963026767,0.0134277,-0.00288391,0.00164795
161,1436963026786,0.0102234,0.00138855,-0.0015564
162,1436963026809,0.000610352,-0.00715637,-0.00689697
163,1436963026826,-0.0100708,-0.00822449,-0.00369263
164,1436963026846,-0.0132751,0.000320435,-0.00369263
165,1436963026866,-0.0250244,-0.000747681,-0.00476074
166,1436963026885,-0.0357056,0.00566101,-0.00689697
167,1436963026907,-0.0367737,0.00352478,-0.00369263
168,1436963026925,-0.0656128,-0.0189056,-0.0111694
169,1436963026944,-0.0891113,-0.00502014,-0.0090332
170,1436963026964,-0.0730896,0.0163422,-0.00796509
171,1436963026984,-0.00686645,0.015274,-0.0143738
172,1436963027006,0.00595093,0.0195465,-0.0154419
173,1436963027021,0.00595093,0.0163422,-0.0186462
174,1436963027043,0.043335,0.0323639,-0.0111694
175,1436963027062,0.0946045,0.0654755,0.00271606
176,1436963027083,0.104218,0.079361,0.0187378
177,1436963027105,0.0614929,0.0206146,0.0155334
178,1436963027122,0.0817871,0.0782928,0.0272827
179,1436963027142,0.0978088,0.0590668,0.0326233
180,1436963027162,0.0828552,0.0558624,0.0379639
181,1436963027182,0.0219727,0.0302277,0.039032
182,1436963027203,-0.0132751,0.0216827,0.0422363
183,1436963027376,0.00595093,0.0398407,0.039032
184,1436963027377,-0.0720215,0.00672913,0.0283508
185,1436963027378,-0.048523,0.061203,0.0465088
186,1436963027379,-0.0357056,0.079361,0.0272827
187,1436963027380,-0.131836,0.0900421,0.0133972
188,1436963027381,-0.0506592,0.112473,0.0101929
189,1436963027382,0.106354,0.178696,-0.00689697
190,1436963027383,0.177917,0.225693,-0.0111694
191,1436963027384,0.173645,0.245987,-0.0133057
192,1436963027402,0.169373,0.23317,0.00912476
193,1436963027418,0.211029,0.210739,0.066803
194,1436963027439,0.223846,0.162674,0.133026
195,1436963027458,0.1651,0.117813,0.207794
196,1436963027478,0.101013,0.0697479,0.292175
197,1436963027498,0.0657654,0.0302277,0.364807
198,1436963027518,0.0315857,0.00245666,0.44812
199,1436963027538,0.0572205,-0.0541534,0.525024
200,1436963027556,0.140533,-0.0701752,0.572021
201,1436963027578,0.224915,-0.0477448,0.539978
202,1436963027598,0.230255,0.033432,0.490845
203,1436963027617,0.071106,0.0676117,0.338104
204,1436963027637,0.090332,0.0280914,0.253723
205,1436963027655,0.265503,0.0921783,0.162933
206,1436963027676,0.390472,0.144516,0.0956421
207,1436963027695,0.325317,0.179764,0.0358276
208,1436963027716,0.10849,0.182968,0.00592041
209,1436963027735,-0.107269,0.148788,-0.0154419
210,1436963027756,-0.0827026,0.145584,-0.00582886
211,1436963027774,0.0914001,0.15947,0.0166016
212,1436963027795,0.191803,0.162674,0.0475769
213,1436963027815,0.154419,0.138107,0.0806885
214,1436963027832,0.139465,0.146652,0.129822
215,1436963027854,0.197144,0.16481,0.186432
216,1436963027875,0.254822,0.153061,0.253723
217,1436963027893,0.307159,0.128494,0.314606
218,1436963027913,0.376587,0.113541,0.358398
219,1436963027933,0.395813,0.0932465,0.386169
220,1436963027953,0.292206,0.0409088,0.379761
221,1436963027973,0.25589,-0.000747681,0.387238
222,1436963027993,0.263367,-0.0253143,0.37442
223,1436963028012,0.211029,-0.0701752,0.355194
224,1436963028031,0.145874,-0.115036,0.350922
225,1436963028052,0.0572205,-0.116104,0.342377
226,1436963028074,-0.0741577,-0.134262,0.330627
227,1436963028091,-0.196991,-0.229324,0.322083
228,1436963028111,-0.189514,-0.293411,0.342377
229,1436963028130,-0.122223,-0.337204,0.324219
230,1436963028149,-0.104065,-0.436539,0.326355
231,1436963028173,-0.00473022,-0.446152,0.202454
232,1436963028189,0.267639,-0.397018,-0.0154419
233,1436963028210,0.487671,-0.384201,-0.340149
234,1436963028230,0.515442,-0.415176,-0.795166
235,1436963028249,0.608368,-0.33934,-1.25446
236,1436963028271,0.713043,-0.240006,-1.61655
237,1436963028289,0.518646,-0.340408,-1.93164
238,1436963028309,0.000610352,-0.48674,-2.1709
239,1436963028328,-0.705414,-0.589279,-2.33859
240,1436963028348,-1.30463,-0.602097,-2.45395
241,1436963028366,-1.61652,-0.509171,-2.4892
242,1436963028388,-1.70517,-0.450424,-2.40909
243,1436963028408,-1.61972,-0.461105,-2.24139
244,1436963028427,-1.34415,-0.46431,-2.04059
245,1436963028447,-0.916901,-0.468582,-1.77463
246,1436963028469,-0.608215,-0.456833,-1.50546
247,1436963028486,-0.466156,-0.492081,-1.24484
248,1436963028505,-0.461884,-0.525192,-1.02054
249,1436963028526,-0.590057,-0.525192,-0.795166
250,1436963028545,-0.736389,-0.492081,-0.533478
251,1436963028568,-0.825043,-0.466446,-0.209839
252,1436963028585,-0.859222,-0.460037,0.173615
253,1436963028605,-0.907288,-0.427994,0.638245
254,1436963028625,-0.966034,-0.376724,1.25775
255,1436963028645,-1.03867,-0.287003,1.92105
256,1436963028667,-1.14655,-0.188736,2.55444
257,1436963028683,-1.38794,-0.0434723,3.11734
258,1436963028704,-1.69876,0.0686798,3.5809
259,1436963028724,-2.74979,-0.0861969,3.73792
260,1436963028743,-4.01016,-0.708908,4.10214
261,1436963028764,-2.65366,-0.977005,3.78812
262,1436963028781,-0.238647,-0.987686,3.21454
263,1436963028803,0.783539,-0.640549,2.39957
264,1436963028822,3.237,0.148788,1.60489
265,1436963028842,4.65546,0.316483,0.977905
266,1436963028862,4.80926,0.240646,0.0999146
267,1436963028882,3.73581,0.0131378,-0.474731
268,1436963028904,2.85461,-0.0926056,-0.939362
269,1436963028921,2.12936,-0.0744476,-1.2598
270,1436963028941,1.21078,-0.253891,-1.47021
271,1436963028959,0.636139,-0.164169,-1.46167
272,1436963028981,-0.178833,0.0377045,-1.38156
273,1436963029002,-1.22772,0.0355682,-1.63364
274,1436963029019,-1.79916,0.111404,-1.62936
275,1436963029040,-1.85577,0.202194,-1.6785
276,1436963029060,-1.41998,0.265213,-1.69345
277,1436963029080,-0.706482,0.31221,-1.64645
278,1436963029101,-0.000457764,0.335709,-1.54605
279,1436963029119,0.554962,0.3293,-1.38904
280,1436963029138,0.954437,0.292984,-1.15833
281,1436963029159,1.20972,0.228897,-0.877411
282,1436963029179,1.19904,0.124222,-0.5495
283,1436963029199,0.871124,0.0110016,-0.152161
284,1436963029218,0.433197,-0.0904694,0.205658
285,1436963029238,0.115967,-0.183395,0.500458
286,1436963029258,-0.122223,-0.253891,0.713013
287,1436963029276,-0.161743,-0.273117,0.904205
288,1436963029298,0.109558,-0.331863,1.10181
289,1436963029316,0.262299,-0.43013,1.27911
290,1436963029337,-0.0143433,-0.53801,1.43506
291,1436963029356,-0.496063,-0.662979,1.4874
292,1436963029376,-0.792999,-0.713181,1.35388
293,1436963029398,-0.749207,-0.609573,1.0014
294,1436963029415,-0.447998,-0.376724,0.581635
295,1436963029435,-0.189514,-0.221848,0.155457
296,1436963029455,-0.151062,-0.158829,-0.272858
297,1436963029475,-0.2771,-0.117172,-0.664856
298,1436963029498,-0.388184,-0.0894012,-0.973541
299,1436963029515,-0.419159,-0.0669708,-1.10706
300,1436963029535,-0.544128,-0.0958099,-1.11667
301,1436963029553,-1.07071,-0.321182,-1.12949
302,1436963029574,-1.56952,-0.45256,-1.06967
303,1436963029595,-1.76285,-0.457901,-0.804779
304,1436963029613,-1.61758,-0.405563,-0.526001
305,1436963029632,-1.3324,-0.311569,-0.301697
306,1436963029653,-1.25122,-0.476059,-0.181
307,1436963029673,-0.783386,-0.499557,-0.120117
308,1436963029692,-0.190582,-0.439743,0.0678711
309,1436963029713,0.0679016,-0.367111,0.167206
310,1436963029732,0.0123596,-0.360702,0.353058
311,1436963029751,-0.133972,-0.332932,0.548523
312,1436963029772,-0.308075,-0.261368,0.811279
313,1436963029792,-0.569763,-0.13533,1.12958
314,1436963029810,-0.937195,0.0451813,1.45535
315,1436963029831,-1.26083,0.104996,1.72879
316,1436963029850,-1.39221,0.0569305,1.81317
317,1436963029870,-1.26724,0.0900421,1.83347
318,1436963029891,-1.02051,0.189377,1.65509
319,1436963029908,-0.716095,0.304733,1.45535
320,1436963029932,-0.763092,0.830246,1.50021
321,1436963029949,-0.472565,0.590988,1.22998
322,1436963029969,0.207825,-0.0562897,0.757874
323,1436963029989,1.63803,-0.377792,-0.0357361
324,1436963030009,2.83218,-0.132126,-0.453369
325,1436963030028,2.2821,0.676437,0.0774841
326,1436963030048,1.65833,-0.0691071,-0.176727
327,1436963030068,2.15713,-0.139603,-0.219452
328,1436963030086,2.94327,0.070816,-0.299561
329,1436963030105,2.36969,-0.0146332,-0.346558
330,1436963030129,1.30264,-0.0808563,-0.412781
331,1436963030147,0.341339,0.0163422,-0.617859
332,1436963030167,0.205688,0.0462494,-0.686218
333,1436963030187,0.291138,0.0857697,-0.956451
334,1436963030206,0.36911,0.0569305,-1.11667
335,1436963030227,0.592346,0.116745,-1.26727
336,1436963030246,0.801697,0.155197,-1.38904
337,1436963030265,0.887146,0.176559,-1.4873
338,1436963030285,0.866852,0.182968,-1.56741
339,1436963030306,0.778198,0.168015,-1.61548
340,1436963030328,0.589142,0.148788,-1.63043
341,1436963030345,0.349884,0.131699,-1.59946
342,1436963030364,0.135193,0.131699,-1.52576
343,1436963030385,0.025177,0.141312,-1.38263
344,1436963030402,0.00274658,0.123154,-1.20959
345,1436963030424,-0.0154114,0.113541,-0.956451
346,1436963030443,-0.0592041,0.0686798,-0.59436
347,1436963030463,-0.0923157,-0.0092926,-0.190613
348,1436963030484,-0.171356,-0.1129,0.254791
349,1436963030503,-0.295258,-0.214371,0.684174
350,1436963030525,-0.342255,-0.304092,1.08578
351,1436963030542,-0.241852,-0.279526,1.44147
352,1436963030562,-0.0250244,-0.237869,1.77151
353,1436963030582,0.181122,-0.279526,2.02679
354,1436963030602,0.256958,-0.370316,2.13895
355,1436963030624,0.236664,-0.379929,2.08127
356,1436963030641,0.473785,-0.285934,1.87619
357,1436963030661,0.88501,-0.142807,1.48633
358,1436963030680,0.96405,-0.059494,1.05161
359,1436963030701,0.584869,-0.0552216,0.630768
360,1436963030722,0.0134277,-0.0947418,0.208862
361,1436963030740,-0.582581,-0.125717,-0.190613
362,1436963030759,-1.12625,-0.138535,-0.483276
363,1436963030780,-1.48727,-0.136398,-0.661652
364,1436963030800,-1.56418,-0.132126,-0.713989
365,1436963030822,-1.55243,-0.0755158,-0.691559
366,1436963030839,-1.87714,-0.247482,-0.734283
367,1436963030859,-2.20932,-0.251755,-0.830414
368,1436963030878,-2.54898,-0.411972,-0.930817
369,1436963030898,-2.09396,-0.515579,-1.06433
370,1436963030919,-0.863495,-0.329727,-0.861389
371,1436963030937,-0.0891113,-0.181259,-0.801575
372,1436963030959,0.209961,-0.236801,-0.618927
373,1436963030977,0.0881958,-0.206894,-0.415985
374,1436963030998,-0.243988,-0.175919,-0.210907
375,1436963031017,-0.593262,-0.117172,0.086029
376,1436963031035,-0.825043,-0.0146332,0.43103
377,1436963031057,-0.972443,0.103928,0.836914
378,1436963031076,-1.00983,0.187241,1.24066
379,1436963031099,-0.886993,0.314346,1.67111
380,1436963031116,-0.670166,0.376297,1.94241
381,1436963031136,-0.732117,0.375229,2.5726
382,1436963031156,-0.946808,-0.359634,1.78967
383,1436963031175,0.458832,-0.415176,1.56857
384,1436963031198,2.02789,0.464951,1.43079
385,1436963031214,2.74139,0.525833,1.05267
386,1436963031234,2.73712,0.403,0.768555
387,1436963031253,2.5972,0.427567,0.4823
388,1436963031274,1.87408,-0.0755158,-0.0197144
389,1436963031296,1.45752,-0.153488,-0.433075
390,1436963031314,1.40732,-0.122513,-0.618927
391,1436963031333,1.18088,-0.0829925,-0.777008
392,1436963031352,0.467377,-0.0861969,-0.88916
393,1436963031373,-0.294189,-0.115036,-1.00879
394,1436963031393,-0.784454,-0.11824,-1.16687
395,1436963031412,-0.819702,-0.0573578,-1.22775
396,1436963031432,-0.522766,0.0227509,-1.30573
397,1436963031452,-0.0709534,0.0782928,-1.37408
398,1436963031472,0.432129,0.121017,-1.42642
399,1436963031494,0.851898,0.139175,-1.45847
400,1436963031511,1.03348,0.121017,-1.46487
401,1436963031529,1.00357,0.110336,-1.42001
402,1436963031551,0.864716,0.0911102,-1.31641
403,1436963031570,0.668182,0.0879059,-1.1861
404,1436963031593,0.434265,0.114609,-0.994904
405,1436963031610,0.219574,0.101791,-0.740692
406,1436963031630,0.0038147,0.0345001,-0.482208
407,1436963031650,-0.170288,-0.0520172,-0.181
408,1436963031668,-0.250397,-0.121445,0.0892334
409,1436963031689,-0.224762,-0.176987,0.379761
410,1436963031710,-0.174561,-0.220779,0.633972
411,1436963031729,-0.0656128,-0.202621,0.866821
412,1436963031749,0.0946045,-0.184464,1.0687
413,1436963031768,0.192871,-0.194077,1.24066
414,1436963031791,0.186462,-0.231461,1.34534
415,1436963031808,0.146942,-0.242142,1.36136
416,1436963031828,0.283661,-0.179123,1.28445
417,1436963031846,0.721588,-0.115036,1.10181
418,1436963031867,1.21078,-0.0509491,0.819824
