id,attr_time,attr_x,attr_y,attr_z
1,1436970288137,0.23223756,10.151415,-0.23163901
2,1436970288159,0.27712885,10.176555,-0.23104046
3,1436970288179,0.34955344,10.198102,-0.14185645
4,1436970288199,0.415394,10.126875,-0.1352724
5,1436970288219,0.4950012,10.007165,-0.20590134
6,1436970288240,0.51116204,9.93893,-0.23283611
7,1436970288261,0.40581718,9.974244,-0.10354923
8,1436970288279,0.30107087,10.247183,0.008978256
9,1436970288301,0.15442601,10.404602,-0.08738836
10,1436970288321,0.062249243,10.401609,-0.15502456
11,1436970288339,0.16220717,10.306439,-0.1400608
12,1436970288361,0.25797522,10.1621895,-0.130484
13,1436970288381,0.35553896,10.160394,-0.065242
14,1436970288398,0.36391866,10.111312,-0.07182605
15,1436970288420,0.35793316,10.229825,-0.12389994
16,1436970288439,0.31304187,10.316615,-0.15502456
17,1436970288457,0.23343466,10.340557,-0.11731588
18,1436970288481,0.15263036,10.235212,-0.060453594
19,1436970288497,0.14065935,10.17416,-0.061052144
20,1436970288520,0.19812019,10.175956,-0.108936176
21,1436970288538,0.24899697,10.225037,-0.108936176
22,1436970288560,0.27353755,10.306439,-0.035314474
23,1436970288581,0.25558102,10.320805,-0.059855044
24,1436970288597,0.18794483,10.248381,-0.08798691
25,1436970288621,0.142455,10.134057,-0.08259996
26,1436970288640,0.08439561,10.144831,0.017357962
27,1436970288658,0.046686932,10.144831,-0.020949265
28,1436970288678,0.107739076,10.19092,-0.0724246
29,1436970288699,0.25318682,10.207679,-0.13227965
30,1436970288721,0.2825158,10.157401,-0.0664391
31,1436970288782,0.25558102,10.1382475,-0.022146367
32,1436970288783,0.24720132,10.196905,-0.038307227
33,1436970288784,0.26036942,10.279505,-0.0724246
34,1436970288801,0.25079262,10.268132,-0.049081136
35,1436970288827,0.26276365,10.190321,-0.088585466
36,1436970288839,0.24181437,10.203489,-0.0676362
37,1436970288872,0.21188685,10.177153,-0.05686229
38,1436970288879,0.20709845,10.2495775,-0.05207389
39,1436970288902,0.18914193,10.235212,-0.074818805
40,1436970288920,0.20111294,10.2417965,-0.051475335
41,1436970288939,0.19752164,10.189124,-0.054468088
42,1436970288962,0.16220717,10.199299,-0.0724246
43,1436970288978,0.17477672,10.200497,-0.073023155
44,1436970289001,0.19991584,10.200497,-0.0664391
45,1436970289022,0.24181437,10.172963,-0.0700304
46,1436970289040,0.31004912,10.17416,-0.06404489
47,1436970289059,0.29508537,10.222643,-0.10594343
48,1436970289080,0.30825347,10.233417,-0.11312603
49,1436970289101,0.33159694,10.278308,-0.002992752
50,1436970289122,0.3184288,10.225636,0.029927522
51,1436970289141,0.41120413,10.203489,-0.08259996
52,1436970289159,0.40761283,10.168773,-0.15622166
53,1436970289182,0.37110126,10.193314,-0.10654198
54,1436970289201,0.31244332,10.233417,-0.05746084
55,1436970289222,0.2765303,10.272323,-0.0700304
56,1436970289242,0.34476504,10.257957,-0.076614454
57,1436970289260,0.43634325,10.286089,-0.04249708
58,1436970289281,0.480636,10.284293,-0.12270284
59,1436970289301,0.4818331,10.251971,-0.15861586
60,1436970289320,0.38965634,10.18254,-0.06284779
61,1436970289342,0.29927522,10.157999,-0.06703765
62,1436970289362,0.2124854,10.146626,-0.076015905
63,1436970289382,0.20231004,10.159795,-0.08200141
64,1436970289403,0.19033903,10.158598,-0.09816227
65,1436970289427,0.23283611,10.192716,-0.10414778
66,1436970289484,0.31004912,10.277111,-0.0700304
67,1436970289485,0.40402153,10.271125,-0.039504327
68,1436970289486,0.45489833,10.190321,-0.01436521
69,1436970289501,0.4261679,10.129269,-0.090381116
70,1436970289520,0.34117374,10.1304655,-0.142455
71,1436970289544,0.25139117,10.235811,-0.12389994
72,1436970289561,0.2184709,10.306439,-0.074818805
73,1436970289578,0.25258827,10.327389,-0.11552023
74,1436970289601,0.29269117,10.316016,-0.02813187
75,1436970289618,0.25677812,10.205883,0.04309563
76,1436970289642,0.2220622,10.187328,-0.10474633
77,1436970289662,0.20590134,10.156802,-0.20410569
78,1436970289679,0.24241292,10.139444,-0.14844051
79,1436970289702,0.2777274,10.150218,-0.059855044
80,1436970289723,0.320823,10.141838,-0.091578215
81,1436970289742,0.3321955,10.1544075,-0.1328782
82,1436970289762,0.3752911,10.183737,-0.08259996
83,1436970289783,0.40521863,10.238804,-0.093373865
84,1436970289802,0.4285621,10.238205,-0.11791443
85,1436970289822,0.41599256,10.244789,-0.08140286
86,1436970289841,0.362123,10.201694,-0.05267244
87,1436970289862,0.33518824,10.199898,-0.035913024
88,1436970289883,0.34715924,10.187328,-0.093373865
89,1436970289899,0.3477578,10.1621895,-0.10235212
90,1436970289922,0.31663316,10.1939125,-0.08738836
91,1436970289942,0.2896984,10.25257,-0.10594343
92,1436970289962,0.29209262,10.248381,-0.08738836
93,1436970289982,0.32680854,10.210073,-0.092176765
94,1436970290002,0.3369839,10.197504,-0.1340753
95,1436970290022,0.35553896,10.226832,-0.18555063
96,1436970290042,0.3513491,10.26933,-0.17956513
97,1436970290062,0.36152446,10.25257,-0.11671733
98,1436970290082,0.33877954,10.247782,-0.12988544
99,1436970290103,0.32621,10.247782,-0.12749124
100,1436970290123,0.3333926,10.201095,-0.14604631
101,1436970290142,0.3693056,10.175357,-0.1448492
102,1436970290162,0.38307226,10.127473,-0.12749124
103,1436970290226,0.37349546,10.213664,-0.04129998
104,1436970290227,0.36032736,10.226234,-0.0676362
105,1436970290228,0.31364042,10.266336,-0.14185645
106,1436970290240,0.25977087,10.274118,-0.06404489
107,1436970290264,0.18136078,10.220248,-0.010773907
108,1436970290286,0.20171149,10.247782,-0.16340427
109,1436970290303,0.24959552,10.222044,-0.22744916
110,1436970290319,0.31364042,10.148422,-0.130484
111,1436970290340,0.32441434,10.166978,-0.10354923
112,1436970290359,0.29328972,10.222643,-0.12808979
113,1436970290384,0.26036942,10.251971,-0.1376666
114,1436970290409,0.30346507,10.248381,-0.089184016
115,1436970290425,0.30526072,10.187328,-0.11192893
116,1436970290443,0.28072014,10.137649,-0.14844051
117,1436970290463,0.2633622,10.164583,-0.11971009
118,1436970290483,0.23104046,10.15381,-0.08379706
119,1436970290503,0.26036942,10.1861315,-0.05805939
120,1436970290523,0.27353755,10.21127,-0.0676362
121,1436970292110,0.30047232,10.222044,-0.08319851
122,1436970292111,0.33638534,10.20289,-0.08798691
123,1436970292112,0.39085343,10.216059,-0.08379706
124,1436970292113,0.38965634,10.196905,-0.09696517
125,1436970292114,0.36631286,10.184934,-0.10414778
126,1436970292115,0.3441665,10.189124,-0.095169514
127,1436970292116,0.27353755,10.242993,-0.12629414
128,1436970292117,0.24899697,10.270527,-0.14185645
129,1436970292118,0.22325931,10.278308,-0.14963761
130,1436970292119,0.19632454,10.248381,-0.15023616
131,1436970292120,0.22984336,10.202292,-0.15502456
132,1436970292121,0.272939,10.224439,-0.17956513
133,1436970292122,0.29867667,10.25257,-0.18794483
134,1436970292123,0.31423897,10.235212,-0.20171149
135,1436970292124,0.320823,10.147824,-0.05805939
136,1436970292125,0.29867667,10.199898,-0.06703765
137,1436970292126,0.23283611,10.281899,-0.1412579
138,1436970292127,0.24660277,10.235811,-0.14185645
139,1436970292128,0.22026655,10.218452,-0.02633622
140,1436970292129,0.16639702,10.183737,0.011971008
141,1436970292130,0.28491,10.195109,-0.04309563
142,1436970292131,0.4249708,10.201694,-0.075417355
143,1436970292132,0.51116204,10.1939125,0.012569559
144,1436970292133,0.504578,10.16578,0.06404489
145,1436970292134,0.43634325,10.168773,-0.029927522
146,1436970292135,0.3597288,10.253169,-0.05686229
147,1436970292136,0.2657564,10.282497,-0.091578215
148,1436970292137,0.219668,10.238804,-0.08798691
149,1436970292138,0.23343466,10.230424,-0.10594343
150,1436970292139,0.2124854,10.204686,-0.14903906
151,1436970292140,0.25438392,10.19092,-0.13467385
152,1436970292141,0.34476504,10.21546,-0.14544775
153,1436970292142,0.38486794,10.226832,-0.10594343
154,1436970292143,0.3752911,10.254965,-0.108936176
155,1436970292144,0.32561144,10.227431,-0.092176765
156,1436970292145,0.29029694,10.216059,-0.05805939
157,1436970292146,0.3286042,10.23222,-0.02932897
158,1436970292147,0.35673606,10.235212,-0.04249708
159,1436970292148,0.35913026,10.226832,-0.076015905
160,1436970292149,0.3693056,10.192716,-0.076015905
161,1436970292150,0.3585317,10.17416,-0.035314474
162,1436970292151,0.34237084,10.152613,-0.06703765
163,1436970292152,0.30047232,10.205883,-0.093972415
164,1436970292153,0.25438392,10.171167,-0.077811554
165,1436970292154,0.2741361,10.214263,-0.060453594
166,1436970292155,0.33638534,10.223241,-0.06703765
167,1436970292156,0.40521863,10.222643,-0.079008654
168,1436970292157,0.39803603,10.230424,-0.07182605
169,1436970292158,0.3453636,10.235811,-0.035314474
170,1436970292159,0.29568392,10.184336,-0.038307227
171,1436970292160,0.30585927,10.199898,-0.08200141
172,1436970292161,0.27952304,10.228628,-0.12689269
173,1436970292162,0.24420857,10.228029,-0.076015905
174,1436970292163,0.20590134,10.208876,-0.08559271
175,1436970292164,0.18375498,10.190321,-0.109534726
176,1436970292165,0.2172738,10.175956,-0.05686229
177,1436970292166,0.219668,10.198102,-0.05267244
178,1436970292167,0.19273324,10.179547,-0.090381116
179,1436970292168,0.2124854,10.301053,-0.09636662
180,1436970292169,0.21787235,10.271125,-0.017956512
181,1436970292170,0.22445641,10.244789,-0.0011971008
182,1436970292171,0.20350714,10.190321,-0.062249243
183,1436970292172,0.11492168,10.14543,-0.10235212
184,1436970292173,0.011372458,10.137649,-0.11791443
185,1436970292174,-0.06584055,10.21127,-0.10474633
186,1436970292175,-0.05686229,10.286089,-0.10474633
187,1436970292176,0.022744916,10.323798,-0.077811554
188,1436970292177,0.077213004,10.410587,-0.10235212
189,1436970292178,0.17238252,10.358514,-0.077811554
190,1436970292179,0.2681506,10.338761,-0.054468088
191,1436970292180,0.40222588,10.262746,-0.0011971008
192,1436970292181,0.4854244,10.204087,0.09876082
193,1436970292182,0.587178,10.176555,0.06404489
194,1436970292183,0.6428431,10.209475,-0.017956512
195,1436970292184,0.59017074,10.159795,-0.03172317
196,1436970292185,0.43754035,10.013748,0.075417355
197,1436970292186,0.31543607,9.848549,0.061650693
198,1436970292187,0.26755205,9.646837,-0.048482586
199,1436970292188,0.16579847,9.394848,-0.14903906
200,1436970292189,0.0688333,9.083003,-0.18914193
201,1436970292190,-0.01316811,8.497621,-0.19632454
202,1436970292191,0.05686229,7.651869,-0.07182605
203,1436970292192,0.26276365,6.7869635,0.15442601
204,1436970292200,0.40162733,6.3793507,0.2645593
205,1436970292220,0.76195467,5.755661,0.19871874
206,1436970292240,1.1599907,5.7323174,-0.030526072
207,1436970292260,1.6741456,6.855198,-0.42916065
208,1436970292280,2.1990743,9.059659,-0.7858967
209,1436970292312,2.4390929,11.577163,-0.770933
210,1436970292320,2.9508536,14.174871,-0.39983168
211,1436970292340,2.3349452,16.54154,0.4950012
212,1436970292360,1.7465701,19.165585,1.2910733
213,1436970292382,1.8752584,19.608511,1.3587095
214,1436970292401,1.5622166,19.608511,1.3335704
215,1436970292431,0.4237737,19.608511,0.49320555
216,1436970292440,-0.8690952,19.608511,-0.6877344
217,1436970292462,-1.5328877,19.097948,-1.0875661
218,1436970292482,-1.1965023,15.963939,-1.18094
219,1436970292504,-1.1875241,11.736976,-0.08140286
220,1436970292524,-0.9391256,7.6147585,0.6015432
221,1436970292545,0.015562311,3.9731777,0.83856916
222,1436970292565,1.417966,0.23822308,0.5674258
223,1436970292582,2.594716,-2.919729,0.789488
224,1436970292602,3.5230677,-4.1455603,0.8810662
225,1436970292622,3.259107,-2.967613,0.74519527
226,1436970292643,2.5019407,-0.32202014,0.4770447
227,1436970292663,1.6130934,2.1278467,-0.089184016
228,1436970292685,0.94211835,3.3620577,-0.22026655
229,1436970292701,0.52133745,2.879626,0.54168814
230,1436970292721,0.53450555,2.6408045,0.59256494
231,1436970292741,1.1719618,5.3857565,-0.78769237
232,1436970292761,2.6126726,11.901577,-3.2279825
233,1436970292785,0.60214174,14.364612,0.6464345
234,1436970292802,-2.6641479,17.763779,3.9444473
235,1436970292821,-2.758719,19.608511,0.5494693
236,1436970292846,-0.79367787,19.608511,-0.89423436
237,1436970292866,0.80564886,19.608511,2.211644
238,1436970292885,2.2768857,19.608511,3.1908724
239,1436970292901,3.1902738,19.608511,2.5893292
240,1436970292925,3.6032736,19.608511,1.7872716
241,1436970292946,1.4652514,16.08784,0.75477207
242,1436970292966,-1.5520413,10.675147,0.81402856
243,1436970292984,-2.2996306,5.4498014,0.86131406
244,1436970293003,-0.37110126,1.2162545,0.12689269
245,1436970293023,2.2732944,-1.982399,0.009576807
246,1436970293043,3.7553053,-4.5154643,0.7445967
247,1436970293063,3.2249897,-4.5914803,1.441908
248,1436970293087,2.1763294,-2.2182279,1.323395
249,1436970293103,1.3012487,0.88765025,0.46746787
250,1436970293123,0.741604,3.4153287,-0.4830302
251,1436970293143,0.2172738,4.074931,-0.6823475
252,1436970293163,0.026934769,3.1549592,-0.24181437
253,1436970293185,0.093972415,2.1691468,-0.29688102
254,1436970293206,0.5847838,2.8048072,-1.4239515
255,1436970293222,2.8341362,8.767567,-3.0765493
256,1436970293243,5.1966147,16.547525,-2.2828712
257,1436970293262,0.9816227,17.836803,5.370793
258,1436970293282,-3.177704,19.608511,3.330933
259,1436970293303,-4.2281604,19.608511,-1.9195513
260,1436970293359,-1.2360066,19.608511,-0.85652566
261,1436970293362,0.7661445,19.608511,2.1990743
262,1436970293363,3.1789012,19.608511,2.456451
263,1436970293383,3.9845502,19.608511,1.4012065
264,1436970293404,1.5071499,16.232687,0.35075054
265,1436970293422,-1.4197617,10.954071,0.7613561
266,1436970293443,-2.4851813,6.4416,0.9343372
267,1436970293464,-1.5634137,2.3391352,-0.011372458
268,1436970293484,0.46866497,-0.80325466,-0.9564836
269,1436970293504,2.4211364,-3.7774518,-0.55485624
270,1436970293523,3.3063924,-5.1642933,0.59376204
271,1436970293559,3.0591912,-3.3357215,1.4041992
272,1436970293563,2.3439236,0.075417355,0.61530983
273,1436970293587,1.590947,3.304597,-0.53689975
274,1436970293606,0.557849,4.061165,-0.4914099
275,1436970293626,0.17657238,3.4284968,0.1448492
276,1436970293646,0.02813187,1.7280151,1.0073603
277,1436970293666,0.10654198,0.76554596,0.110133275
278,1436970293686,0.76315176,2.082357,-1.2234371
279,1436970293706,2.541445,7.951742,-2.3463178
280,1436970293725,3.3435028,15.266028,-0.5057751
281,1436970293743,0.17118542,18.515558,4.7285485
282,1436970293765,-2.6312277,19.608511,2.8419175
283,1436970293784,-3.2902317,19.608511,-1.1899183
284,1436970293805,-0.38067806,19.608511,0.83258367
285,1436970293825,2.154183,19.608511,3.9588125
286,1436970293845,4.221576,19.608511,3.9091327
287,1436970293866,3.916914,19.608511,2.48578
288,1436970293887,1.6723499,16.778566,1.5358804
289,1436970293907,-0.5279215,11.419744,1.0803835
290,1436970293926,-1.7052702,6.52001,0.6422446
291,1436970293945,-0.9223662,2.9221232,-0.05566519
292,1436970293964,1.1833342,-0.04129998,-0.32022446
293,1436970293986,2.7389667,-3.1352072,0.20111294
294,1436970294005,2.8904,-4.9057193,0.7326257
295,1436970294117,2.260725,-3.3261447,0.82360536
296,1436970294118,1.2605472,-0.11133038,0.29867667
297,1436970294119,-0.06284779,2.3157916,-0.08259996
298,1436970294120,-1.2180501,2.7730842,-0.17238252
299,1436970294121,-1.3371617,2.2319946,-0.1945289
300,1436970294136,-0.31483752,1.4987702,-0.05686229
301,1436970294144,0.9552865,0.9127894,-0.09876082
302,1436970294163,2.1978772,1.276708,-0.6835446
303,1436970294183,3.9438488,5.0014873,-1.6723499
304,1436970294206,6.6905966,14.61301,-2.8401217
305,1436970294223,4.426879,18.645445,2.6198552
306,1436970294244,-2.630629,19.602526,6.232107
307,1436970294264,-6.284181,19.608511,-1.1270704
308,1436970294285,-3.152565,19.608511,-2.8383262
309,1436970294304,0.7577648,19.608511,0.8559271
310,1436970294326,3.426701,19.608511,3.3243492
311,1436970294347,4.433463,19.608511,3.3028011
312,1436970294366,4.3993454,19.608511,1.7531542
313,1436970294386,1.2336124,16.886904,0.581791
314,1436970294406,-1.4520833,11.876437,0.38067806
315,1436970294427,-2.184709,7.1287355,0.19871874
316,1436970294447,-1.6819267,3.2746694,0.19153613
317,1436970294466,-0.2777274,-0.08259996,-0.31783026
318,1436970294486,1.1875241,-3.6577415,-0.12988544
319,1436970294504,1.785476,-5.4743423,0.5823896
320,1436970294527,1.9644425,-3.8660371,1.1959038
321,1436970294546,1.7495629,-0.6847417,0.55964464
322,1436970294564,0.84335756,1.8201919,-0.30346507
323,1436970294587,-0.16101007,2.7551277,-0.6697779
324,1436970294607,-0.81283146,2.2523453,-0.521936
325,1436970294627,-0.7260417,1.5298948,-0.044292733
326,1436970294646,-0.15682021,1.1366472,0.19393034
327,1436970294666,0.6943185,1.8567034,-0.38307226
328,1436970294687,2.2134395,5.703587,-1.6101006
329,1436970294707,4.856638,15.152903,-3.0256724
330,1436970294726,2.9765913,18.859726,2.5767596
331,1436970294744,-2.4648306,19.608511,5.543774
332,1436970294764,-5.193622,19.608511,-0.35314476
333,1436970294784,-2.5851393,19.608511,-2.309806
334,1436970294832,0.97384155,19.608511,1.2707225
335,1436970294833,3.690662,19.608511,3.3961751
336,1436970294851,5.3833623,19.608511,2.9514523
337,1436970294864,3.8043866,18.83339,1.2276269
338,1436970294884,0.22864626,12.949039,0.20530279
339,1436970294903,-2.6485856,7.5764513,-0.026934769
340,1436970294934,-2.7257986,3.3315318,0.1436521
341,1436970294944,-0.96785605,0.023343466,-0.16340427
342,1436970294964,1.1701661,-2.7814639,-0.11133038
343,1436970294984,2.344522,-5.1397524,-0.073023155
344,1436970295006,2.2852654,-4.325125,1.0348936
345,1436970295026,1.7950528,-0.7978677,0.943914
346,1436970295044,1.3503298,1.0139444,0.22924481
347,1436970295066,0.1364695,3.1878796,-0.7374141
348,1436970295085,-0.8882488,3.1376014,-0.55725044
349,1436970295105,-0.6859388,2.131438,0.110731825
350,1436970295127,0.43754035,1.1875241,0.51714754
351,1436970295147,1.5071499,0.44113165,0.33997664
352,1436970295165,1.9351135,1.0319009,-0.3172317
353,1436970295187,3.3758245,7.28376,-1.8590976
354,1436970295207,6.3033347,17.139492,-1.6089035
355,1436970295225,0.15083471,17.266384,6.3542113
356,1436970295247,-3.716998,19.608511,3.2878375
357,1436970295267,-4.4406457,19.608511,-2.147599
358,1436970295287,-1.4634558,19.608511,-0.45669398
359,1436970295307,0.760159,19.608511,2.3989902
360,1436970295327,2.5133133,19.608511,3.4398694
361,1436970296724,3.29502,19.608511,2.3870192
362,1436970296725,1.5735891,19.259558,1.0414777
363,1436970296726,-0.48722005,13.756484,0.6344634
364,1436970296727,-1.3796587,8.08462,0.74998367
365,1436970296728,-0.35254622,3.5326445,0.57520694
366,1436970296729,1.8656816,0.47165772,0.076614454
367,1436970296730,3.6296098,-2.5258827,-0.05746084
368,1436970296731,3.1429882,-4.8745947,0.56203884
369,1436970296732,1.7932571,-3.816956,1.5891514
370,1436970296733,0.8002619,-0.3824737,0.985214
371,1436970296734,-0.089782566,2.415151,-0.44532153
372,1436970296735,-0.90620536,2.944868,-0.98341835
373,1436970296736,-0.96905315,1.9985598,-0.6242881
374,1436970296737,-0.19812019,1.0702082,0.10354923
375,1436970296738,0.7020996,0.47165772,0.3854665
376,1436970296739,1.5179238,0.5746084,0.29927522
377,1436970296740,2.2002714,2.3133974,-0.4357447
378,1436970296741,4.6154222,9.670779,-3.1052797
379,1436970296742,6.315904,19.284098,-3.7612908
380,1436970296743,-1.9895816,18.039711,7.8236527
381,1436970296744,-6.6804214,19.608511,6.417658
382,1436970296745,-5.6670756,19.608511,0.14544775
383,1436970296746,-0.19871874,19.608511,-2.9472623
384,1436970296747,2.3876176,19.608511,3.9516299
385,1436970296748,3.5392287,19.608511,4.6244006
386,1436970296749,4.0503907,19.608511,2.231396
387,1436970296750,1.6741456,17.205332,-0.3309984
388,1436970296751,-1.6932992,11.495759,-0.64942724
389,1436970296752,-3.2052376,6.6067996,1.4209588
390,1436970296753,-2.146402,2.7204118,1.6041151
391,1436970296754,-0.5279215,-1.0588357,-0.054468088
392,1436970296755,1.0336965,-4.5681367,-0.89184016
393,1436970296756,1.9446903,-6.0387754,-0.12749124
394,1436970296757,2.1404164,-3.8630445,1.158195
395,1436970296758,2.0841527,-0.18555063,0.8774749
396,1436970296759,1.0151415,2.2744915,-0.6679823
397,1436970296760,-0.42317516,2.6671407,-1.2539631
398,1436970296761,-1.0313023,1.8842367,-0.6931214
399,1436970296762,-0.3866636,0.94451255,0.16938977
400,1436970296763,0.4985925,0.52612585,0.26276365
401,1436970296764,1.6071079,1.4532804,-0.11611878
