id,attr_time,attr_x,attr_y,attr_z
1,1436970288127,0.47465047,9.533711,0.439336
2,1436970288142,0.4429273,9.583391,0.37349546
3,1436970288160,0.4333505,9.623494,0.45070848
4,1436970288186,0.46208093,9.614515,0.47465047
5,1436970288250,0.4878186,9.596559,0.44831428
6,1436970288251,0.50876784,9.560047,0.44771573
7,1436970288252,0.48123455,9.467871,0.4405331
8,1436970288260,0.4794389,9.478046,0.49559975
9,1436970288283,0.54288524,9.534908,0.52852005
10,1436970288302,0.5674258,9.582193,0.48003745
11,1436970288338,0.52971715,9.654618,0.4225766
12,1436970288355,0.46208093,9.581595,0.4237737
13,1436970288362,0.4854244,9.506777,0.480636
14,1436970288382,0.57161564,9.522339,0.53689975
15,1436970288401,0.58119243,9.556456,0.5177461
16,1436970288421,0.54647654,9.575011,0.42916065
17,1436970288441,0.50158525,9.536704,0.40521863
18,1436970288465,0.5422867,9.570223,0.42676646
19,1436970288483,0.57400984,9.624092,0.46806642
20,1436970288504,0.55246204,9.604341,0.49919105
21,1436970288524,0.57041854,9.520543,0.46806642
22,1436970288543,0.56802434,9.469068,0.42796355
23,1436970288564,0.5722142,9.481039,0.37469256
24,1436970288584,0.5835867,9.576807,0.41180268
25,1436970288603,0.5722142,9.627085,0.44232875
26,1436970288623,0.5470751,9.560047,0.45310268
27,1436970288643,0.492607,9.482236,0.43754035
28,1436970288663,0.5201403,9.511565,0.38486794
29,1436970288681,0.54168814,9.612122,0.46866497
30,1436970288701,0.53570265,9.601347,0.46208093
31,1436970288721,0.5315128,9.537302,0.4830302
32,1436970288743,0.4961983,9.494805,0.45070848
33,1436970288767,0.48482585,9.555259,0.439336
34,1436970288783,0.49081135,9.606135,0.49200845
35,1436970288804,0.5129577,9.626487,0.51235914
36,1436970288820,0.5398925,9.575011,0.4902128
37,1436970288841,0.5291186,9.5253315,0.44232875
38,1436970288876,0.5482722,9.515755,0.42197806
39,1436970288881,0.54288524,9.498995,0.41120413
40,1436970288945,0.50397944,9.569026,0.48482585
41,1436970288946,0.53809685,9.589376,0.47764325
42,1436970288947,0.5746084,9.561843,0.43634325
43,1436970288961,0.5291186,9.5385,0.4297592
44,1436970288981,0.50278234,9.531317,0.41958386
45,1436970289001,0.5255273,9.642648,0.43514615
46,1436970289022,0.52373165,9.640852,0.41958386
47,1436970289072,0.5638345,9.601347,0.40462008
48,1436970289094,0.50158525,9.510367,0.415394
49,1436970289095,0.45070848,9.46009,0.48841715
50,1436970289104,0.45489833,9.471462,0.4902128
51,1436970289126,0.48722005,9.545084,0.55844754
52,1436970289141,0.54767364,9.565434,0.54168814
53,1436970289170,0.5722142,9.522937,0.4854244
54,1436970289182,0.54408234,9.524733,0.47884035
55,1436970289201,0.545878,9.564836,0.49919105
56,1436970289222,0.53689975,9.603143,0.4782418
57,1436970289241,0.4818331,9.622296,0.4914099
58,1436970289261,0.47465047,9.561244,0.4997896
59,1436970289284,0.4890157,9.489418,0.4997896
60,1436970289304,0.504578,9.474455,0.4866215
61,1436970289323,0.5638345,9.559449,0.492607
62,1436970289343,0.5979519,9.635465,0.51954174
63,1436970289364,0.5907693,9.595961,0.5141548
64,1436970289384,0.53689975,9.566033,0.55006784
65,1436970289404,0.54887074,9.539098,0.49200845
66,1436970289424,0.504578,9.494805,0.46387658
67,1436970289440,0.4333505,9.52593,0.46866497
68,1436970289461,0.45370123,9.583391,0.48841715
69,1436970289483,0.45729253,9.643845,0.49081135
70,1436970289502,0.4938041,9.60015,0.4938041
71,1436970289524,0.48841715,9.543886,0.4985925
72,1436970289544,0.4429273,9.531916,0.49200845
73,1436970289565,0.480636,9.576807,0.50038815
74,1436970289581,0.5506664,9.61272,0.4902128
75,1436970289607,0.5770026,9.533711,0.46148238
76,1436970289638,0.50996494,9.472659,0.4417302
77,1436970289647,0.45190558,9.466674,0.4417302
78,1436970289667,0.4213795,9.533711,0.4417302
79,1436970289681,0.46028528,9.569026,0.45489833
80,1436970289703,0.5201403,9.557653,0.5398925
81,1436970289725,0.51954174,9.5492735,0.5907693
82,1436970289743,0.49919105,9.565434,0.52373165
83,1436970289762,0.42796355,9.632472,0.50757074
84,1436970289785,0.47345337,9.658808,0.55844754
85,1436970289805,0.48841715,9.609129,0.54049104
86,1436970289824,0.5105635,9.565434,0.4842273
87,1436970289841,0.5446809,9.569026,0.4213795
88,1436970289862,0.52852005,9.531916,0.39145198
89,1436970289884,0.52373165,9.537901,0.4261679
90,1436970289905,0.55485624,9.536704,0.46267948
91,1436970289924,0.5895722,9.51336,0.43634325
92,1436970289944,0.57161564,9.515156,0.43035775
93,1436970289966,0.5859809,9.54209,0.45250413
94,1436970289983,0.55844754,9.586384,0.44951138
95,1436970290004,0.52073884,9.594165,0.46507367
96,1436970290028,0.50397944,9.561244,0.45848963
97,1436970290046,0.5267244,9.55047,0.44532153
98,1436970290068,0.5189432,9.547478,0.46267948
99,1436970290084,0.53091425,9.580399,0.45908818
100,1436970290102,0.53929394,9.615114,0.47105917
101,1436970290123,0.53330845,9.582792,0.480636
102,1436970290142,0.5398925,9.527127,0.4357447
103,1436970290162,0.5363012,9.519346,0.44532153
104,1436970290182,0.52732295,9.542689,0.45669398
105,1436970290202,0.5638345,9.596559,0.46686932
106,1436970290223,0.59256494,9.568427,0.44711718
107,1436970290243,0.51595044,9.510367,0.44592008
108,1436970290300,0.5069722,9.572019,0.43514615
109,1436970290301,0.533907,9.56723,0.45070848
110,1436970290302,0.5374983,9.56304,0.4309563
111,1436970290322,0.5327099,9.527127,0.47165772
112,1436970290343,0.52852005,9.510966,0.46746787
113,1436970290362,0.4902128,9.519346,0.44232875
114,1436970290383,0.46627077,9.55885,0.45549688
115,1436970290402,0.49320555,9.616311,0.46627077
116,1436970290426,0.54647654,9.619304,0.46208093
117,1436970290450,0.5303157,9.560646,0.45489833
118,1436970290463,0.48961425,9.54209,0.43394905
119,1436970290484,0.49559975,9.5385,0.44951138
120,1436970290502,0.53809685,9.5809965,0.47105917
121,1436970290522,0.5470751,9.584588,0.46208093
122,1436970290542,0.54168814,9.57142,0.4818331
123,1436970290574,0.5201403,9.541492,0.46208093
124,1436970290582,0.51714754,9.572019,0.45070848
125,1436970290603,0.53809685,9.610326,0.44352585
126,1436970290623,0.54408234,9.574412,0.4381389
127,1436970290643,0.53929394,9.528923,0.45190558
128,1436970290663,0.52253455,9.503185,0.3681085
129,1436970290683,0.48722005,9.483433,0.3854665
130,1436970290703,0.51834464,9.588778,0.46088383
131,1436970290723,0.56802434,9.630676,0.44651863
132,1436970290743,0.581791,9.594764,0.41479546
133,1436970290763,0.5758055,9.528923,0.40043023
134,1436970290783,0.5542577,9.536704,0.39923313
135,1436970290803,0.5446809,9.564238,0.4357447
136,1436970290823,0.5650316,9.586384,0.45549688
137,1436970290846,0.56563014,9.546281,0.439336
138,1436970290862,0.5434838,9.558251,0.44891283
139,1436970290886,0.54288524,9.534908,0.43873745
140,1436970290906,0.5243302,9.559449,0.48003745
141,1436970290927,0.5722142,9.607333,0.45489833
142,1436970290943,0.5895722,9.580399,0.42796355
143,1436970290968,0.55006784,9.54209,0.41958386
144,1436970290987,0.52133745,9.510367,0.43993455
145,1436970291002,0.5117606,9.532514,0.4818331
146,1436970291022,0.5422867,9.594764,0.46986207
147,1436970291043,0.5177461,9.561244,0.42197806
148,1436970291064,0.5117606,9.558251,0.4261679
149,1436970291083,0.51475334,9.547478,0.41000703
150,1436970291103,0.5351041,9.533711,0.4417302
151,1436970291125,0.52852005,9.55885,0.46627077
152,1436970291144,0.53091425,9.580399,0.46986207
153,1436970291167,0.545878,9.562442,0.45489833
154,1436970291187,0.53450555,9.583391,0.43754035
155,1436970291202,0.5614403,9.564238,0.4285621
156,1436970291227,0.55246204,9.5732155,0.45669398
157,1436970291247,0.53689975,9.572617,0.45669398
158,1436970291266,0.53570265,9.581595,0.44951138
159,1436970291287,0.55844754,9.578603,0.41240123
160,1436970291307,0.59017074,9.601347,0.39264908
161,1436970291326,0.6206968,9.592968,0.39564183
162,1436970291342,0.60453594,9.549872,0.43035775
163,1436970291365,0.5931635,9.56304,0.4141969
164,1436970291387,0.5518635,9.548675,0.4165911
165,1436970291408,0.5530606,9.503185,0.34835634
166,1436970291425,0.55126494,9.554661,0.40701428
167,1436970291446,0.5895722,9.589376,0.38486794
168,1436970291466,0.6147113,9.594165,0.39803603
169,1436970291486,0.55844754,9.540894,0.4297592
170,1436970291506,0.54168814,9.539098,0.43634325
171,1436970291526,0.5554548,9.564238,0.46028528
172,1436970291547,0.5518635,9.55885,0.41060558
173,1436970291567,0.5177461,9.507375,0.40521863
174,1436970291585,0.52612585,9.554062,0.39085343
175,1436970291605,0.5374983,9.5732155,0.40581718
176,1436970291675,0.5494693,9.627684,0.46327803
177,1436970291676,0.5686229,9.618706,0.45190558
178,1436970291677,0.60214174,9.559449,0.44113165
179,1436970291685,0.5009867,9.500193,0.48602295
180,1436970291704,0.4429273,9.545682,0.53211135
181,1436970291726,0.49919105,9.648633,0.4758476
182,1436970291743,0.5303157,9.560047,0.45549688
183,1436970291764,0.52253455,9.481637,0.40462008
184,1436970291785,0.5722142,9.496601,0.41000703
185,1436970291807,0.6003461,9.533113,0.4261679
186,1436970291825,0.58119243,9.464878,0.45789108
187,1436970291846,0.5931635,9.503783,0.56084174
188,1436970291869,0.6967127,9.658808,0.7685388
189,1436970291887,0.78170687,9.7324295,0.6631939
190,1436970291906,0.59256494,9.625888,0.6428431
191,1436970291927,0.5093664,9.524135,0.65062433
192,1436970291947,0.3669114,9.564238,0.8451532
193,1436970291967,0.39983168,9.8437605,1.1899183
194,1436970291987,0.41060558,9.713276,1.115698
195,1436970292004,0.3597288,9.485229,0.6159084
196,1436970292026,0.3333926,9.297882,0.66379243
197,1436970292046,0.45669398,9.294291,0.6877344
198,1436970292067,0.51954174,9.24102,0.64463884
199,1436970292086,0.45070848,9.109938,0.61890113
200,1436970292107,0.33758244,9.194932,0.694917
201,1436970292126,0.31483752,9.223662,0.60932434
202,1436970292149,0.29568392,9.144054,0.52732295
203,1436970292171,0.49919105,8.8884735,0.39324763
204,1436970292184,0.82480246,8.239047,0.2621651
205,1436970292210,0.985214,7.144298,0.01436521
206,1436970292227,0.6919243,6.4619503,-0.29209262
207,1436970292247,-0.2669535,6.6205664,0.21308395
208,1436970292266,-0.50158525,8.267777,2.154183
209,1436970292287,-0.6398504,7.541735,1.4317327
210,1436970292305,-0.4189853,6.030994,1.6867151
211,1436970292328,-1.1988965,7.405266,4.8500543
212,1436970292392,-1.9686323,11.382035,6.8348475
213,1436970292393,-4.899135,13.458406,5.142745
214,1436970292394,-1.2425907,14.268245,4.8003745
215,1436970292405,-0.94331545,16.588226,6.2500634
216,1436970292431,-1.352724,17.634493,6.2243257
217,1436970292466,-1.8752584,17.979856,6.0639143
218,1436970292467,-1.7830818,17.63928,6.2925606
219,1436970292484,-1.2366052,16.785149,5.018845
220,1436970292506,-0.4189853,14.933234,2.7700913
221,1436970292526,-0.25857377,12.925696,0.4902128
222,1436970292546,-0.088585466,10.808025,-0.3477578
223,1436970292567,-0.21428105,7.86196,-0.023942016
224,1436970292585,0.82360536,4.747702,0.748188
225,1436970292606,1.5316905,2.367267,0.84814596
226,1436970292625,1.0402806,-0.8439561,-0.362123
227,1436970292648,-0.007182605,-3.514688,-1.2551602
228,1436970292668,-0.5955577,-3.0382419,-0.94211835
229,1436970292688,-0.44113165,-0.5470751,0.16101007
230,1436970292707,-0.20590134,-0.008978256,0.825401
231,1436970292726,-0.11252748,-0.46088383,0.3184288
232,1436970292748,-0.6757634,-0.60693014,0.17956513
233,1436970292766,0.020949265,1.8549078,-0.8888474
234,1436970292788,0.45609543,7.1083846,-1.8537107
235,1436970292808,0.99658644,17.3005,3.1316159
236,1436970292828,-0.5422867,19.608511,6.2021794
237,1436970292847,-4.305373,19.608511,3.8660371
238,1436970292868,-3.9600096,19.608511,9.139266
239,1436970292887,-0.3453636,19.608511,3.702633
240,1436970292908,-0.1448492,18.227655,3.2363622
241,1436970292929,-0.80804306,18.818426,4.923077
242,1436970292947,-1.0995371,19.608511,3.8367083
243,1436970292967,-2.2385786,18.374899,3.9498343
244,1436970292988,-2.4319103,12.353482,2.156577
245,1436970293006,-0.7757214,9.221867,-0.092176765
246,1436970293027,-0.37948096,3.2004492,0.20590134
247,1436970293157,-0.17896658,-0.24001873,-0.3854665
248,1436970293169,0.866701,-2.7281928,-1.4682442
249,1436970293170,1.2695254,-4.1240125,-1.5454572
250,1436970293171,0.50637364,-4.243124,-0.6991069
251,1436970293172,-0.42676646,-1.4694413,0.75477207
252,1436970293173,-0.2777274,1.0079589,-0.007182605
253,1436970293174,-0.75596917,2.0386627,0.5662287
254,1436970293246,-1.7417817,1.6226702,1.2503718
255,1436970293247,-0.99658644,-0.16460137,0.82779527
256,1436970293248,0.7410054,0.16220717,-1.4203602
257,1436970293249,2.4199393,4.1395745,-2.0440497
258,1436970293265,1.7902644,11.75553,1.4269443
259,1436970293290,0.748188,19.608511,7.216124
260,1436970293307,-5.529409,19.608511,5.144541
261,1436970293334,-6.9503675,19.608511,8.578424
262,1436970293345,-4.3819876,19.608511,5.183447
263,1436970293365,-0.557849,19.608511,3.976769
264,1436970293410,0.53091425,18.47785,4.8745947
265,1436970293411,-1.0911574,18.629883,4.89315
266,1436970293424,-2.006341,17.933168,3.4883518
267,1436970293445,-3.2172086,12.539632,1.7244238
268,1436970293465,-1.8171991,9.00579,0.11911154
269,1436970293489,-1.151611,5.668871,-0.11971009
270,1436970293509,-0.27353755,1.8776526,-0.47225627
271,1436970293529,0.6769605,-1.0803835,-0.32621
272,1436970293548,2.3056161,-3.127426,-1.0426749
273,1436970293567,2.9041667,-4.392163,-0.6997054
274,1436970293589,0.4333505,-3.198055,0.19512744
275,1436970293607,-0.8583213,-0.50158525,0.9600749
276,1436970293626,-1.0307038,1.0582372,0.22505496
277,1436970293647,-1.4646529,1.4520833,0.02932897
278,1436970293669,-1.483208,0.6913257,0.26635495
279,1436970293689,-0.38367084,-0.31423897,-0.16340427
280,1436970293709,1.0456676,0.63087213,-1.5753847
281,1436970293729,1.9045875,3.8935704,-1.3311762
282,1436970293746,-0.18674773,17.406445,7.4310036
283,1436970293766,-5.3857565,19.608511,6.265626
284,1436970293786,-5.5030727,19.608511,4.8733974
285,1436970293806,-1.4466964,19.608511,5.499481
286,1436970293828,-2.0991163,19.608511,5.566519
287,1436970293855,-2.2242134,19.608511,7.515399
288,1436970293870,-3.5727475,19.608511,5.3995233
289,1436970293886,-3.8720226,19.608511,5.483919
290,1436970293906,-2.4720132,17.085024,4.663306
291,1436970293927,-1.1049241,12.892178,2.2122424
292,1436970293947,-0.40102878,9.696517,-0.44113165
293,1436970293967,-0.2801216,6.576872,-0.6290765
294,1436970293986,-0.95708215,2.7629087,-0.20649989
295,1436970294009,-0.3238158,-0.7882909,-0.5638345
296,1436970294036,0.62249243,-4.0198646,-1.8656816
297,1436970294047,2.641403,-5.3288946,-0.9816227
298,1436970294071,2.8048072,-3.9432502,-0.05805939
299,1436970294087,0.3609259,-1.4095862,0.20111294
300,1436970294107,-0.8870517,1.6968905,0.3645172
301,1436970294127,-1.5634137,2.9340942,0.5506664
302,1436970294148,-1.7890673,1.453879,0.9923966
303,1436970294168,-0.47405192,-0.5859809,-0.45669398
304,1436970294189,1.186327,-0.14425065,-2.2469583
305,1436970294209,2.420538,2.6210523,-1.5388732
306,1436970294229,1.0426749,7.533954,2.03148
307,1436970294249,-1.3922282,19.194914,9.357738
308,1436970294268,-7.9673047,19.608511,1.9698294
309,1436970294289,-5.9519854,19.608511,7.1047935
310,1436970294309,-3.1531637,19.608511,6.569091
311,1436970294326,-1.240795,19.608511,5.3366756
312,1436970294346,-0.46746787,19.566015,7.597999
313,1436970294366,-2.5785553,19.586365,7.101202
314,1436970294391,-4.999093,19.608511,4.8219223
315,1436970294411,-5.398925,18.076223,3.8744168
316,1436970294431,-3.4261026,12.893973,1.2198458
317,1436970294449,-1.1761516,10.098145,-0.8559271
318,1436970294466,0.7152678,4.6513352,0.24540567
319,1436970294486,1.7980455,1.6112977,1.0139444
320,1436970294506,2.0859482,-1.4879963,0.02813187
321,1436970294526,1.9393034,-3.3596635,-2.621651
322,1436970294648,0.4225766,-4.549582,-2.0769699
323,1436970294649,-0.6434417,-2.2637177,-0.84575176
324,1436970294650,-0.25258827,-0.33279404,-0.011372458
325,1436970294651,-0.545878,0.7134721,0.4441244
326,1436970294652,-1.0073603,1.1109096,1.1677719
327,1436970294653,-0.9696517,0.62967503,1.0737995
328,1436970294689,-0.35075054,-0.3513491,0.6979098
329,1436970294690,1.4215573,0.52612585,-1.0055647
330,1436970294706,0.78410107,3.5853171,-1.6681601
331,1436970294726,-0.15143326,8.676587,-0.6817489
332,1436970294749,-3.6601357,19.591154,7.827244
333,1436970294768,-8.794501,19.608511,3.3997664
334,1436970294787,-3.448249,19.608511,7.454347
335,1436970294808,-2.5683799,19.608511,4.1455603
336,1436970294829,-2.6539726,19.608511,7.4866686
337,1436970294849,-2.6928782,19.608511,6.5230026
338,1436970294870,-3.4554317,19.608511,6.5146227
339,1436970294887,-3.5625722,18.526932,4.338892
340,1436970294910,-3.2531216,14.107235,2.1535845
341,1436970294930,-2.1894975,10.697892,0.38965634
342,1436970294949,-1.0869676,7.419631,-0.17657238
343,1436970294970,-0.3429694,3.277662,0.6859388
344,1436970294989,1.039682,0.29867667,-0.29867667
345,1436970295010,1.8579005,-2.1871033,-0.3633201
346,1436970295027,2.6641479,-3.0424318,-2.168548
347,1436970295049,1.7932571,-3.168726,-1.8375498
348,1436970295070,0.2765303,-2.4211364,-0.36391866
349,1436970295088,-0.29508537,-1.0749966,-0.24480712
350,1436970295109,-1.1593921,0.20290859,-0.08439561
351,1436970295127,-1.785476,1.4628572,1.4742297
352,1436970295151,-1.9470845,0.6823475,1.5801731
353,1436970295171,0.81402856,-0.5710171,-0.6099229
354,1436970295192,2.883816,2.3104045,-1.4209588
355,1436970295210,1.0097545,7.4645224,-0.557849
356,1436970295230,-2.7922378,17.304691,4.8799815
357,1436970295247,-7.9834657,19.608511,7.15567
358,1436970295269,-6.997653,19.608511,4.3999443
359,1436970295287,-4.4603977,19.608511,6.5744777
360,1436970295311,-2.384625,19.608511,3.5470097
361,1436970295361,-2.3092074,19.608511,7.1065893
362,1436970295374,-2.445677,19.608511,8.804677
363,1436970295375,-3.5098996,19.608511,6.4338183
364,1436970295387,-3.655946,19.267937,3.9827545
365,1436970295421,-2.6270378,14.673464,2.1481974
366,1436970295430,-1.8393455,11.101315,-0.45669398
367,1436970295484,-0.86969376,8.260594,-0.6422446
368,1436970295485,0.08439561,4.542998,0.7368156
369,1436970295488,0.40342298,0.6194997,1.1528081
370,1436970295507,1.1055226,-2.3840263,-0.943914
371,1436970295527,2.6539726,-4.735731,-3.6541502
372,1436970295547,1.127669,-3.4440591,-0.9307459
373,1436970295568,-0.13946225,-1.1881226,0.2873042
374,1436970295590,-0.7158663,0.42437226,0.79367787
375,1436970295610,-1.3180081,2.2948422,1.3928268
376,1436970295630,-1.7256209,2.594716,1.2605472
377,1436970295650,-0.51235914,0.12569559,-0.42078096
378,1436970295670,-0.27832595,-1.1067197,-1.0265139
379,1436970295690,1.2180501,-0.59855044,-1.2814964
380,1436970295711,2.4366987,2.4558525,-1.644218
381,1436970295731,-0.27353755,10.647015,2.9658175
382,1436970295750,-4.074931,19.608511,11.252748
383,1436970295771,-9.399037,19.608511,-0.11911154
384,1436970295787,-5.8364654,19.608511,9.768343
385,1436970295815,-1.9207484,19.608511,5.2744265
386,1436970295827,-1.3227965,19.608511,7.867347
387,1436970295850,-2.8550856,19.608511,9.306262
388,1436970295872,-4.2700586,19.608511,6.405088
389,1436970295896,-4.177882,16.345814,2.6372132
390,1436970295911,-3.1723173,10.421362,-0.48362875
391,1436970295929,-0.91697925,7.073669,-1.8710686
392,1436970295948,0.30526072,2.4313118,0.49919105
393,1436970295967,1.2808979,-1.2378023,-0.9115923
394,1436970296114,2.5917234,-3.2746694,-2.5133133
395,1436970296115,3.9959226,-3.2333694,-1.2114661
396,1436970296116,3.7553053,-2.5007436,-0.43275195
397,1436970296117,0.6596026,-1.42455,-1.1073183
398,1436970296118,-1.4203602,0.14305355,-1.0199299
399,1436970296119,-1.9560628,1.3365631,0.29328972
400,1436970296120,-2.0949266,1.6412252,0.5021838
401,1436970296175,-1.988983,-0.037110128,0.7835025
402,1436970296176,-0.044292733,-0.9379285,-0.089782566
403,1436970296177,1.2030864,-0.61171854,-0.12569559
404,1436970296195,2.5450363,1.2270284,-0.7344214
405,1436970296216,0.80445176,5.8987145,0.55844754
406,1436970296228,-2.1015105,13.882778,5.834071
407,1436970296248,-7.3867106,19.608511,-1.7052702
408,1436970296268,-10.388441,19.608511,11.905168
409,1436970296289,-6.8168907,19.608511,8.546701
410,1436970296438,-3.433884,19.608511,8.409634
411,1436970296439,-0.9008184,19.608511,4.8404775
412,1436970296440,-3.132813,19.608511,6.3512187
