id,attr_time,attr_x,attr_y,attr_z
1,1436970288123,-9.062652,3.1920695,0.53570265
2,1436970288143,-9.0716305,3.2160115,0.52133745
3,1436970288163,-9.057863,3.244742,0.49320555
4,1436970288184,-9.217078,3.1890767,0.53689975
5,1436970288200,-9.244612,3.1986535,0.54288524
6,1436970288223,-9.108741,3.2531216,0.53330845
7,1436970288242,-9.022549,3.268684,0.5153519
8,1436970288263,-9.121908,3.2740707,0.5542577
9,1436970288283,-8.9279785,3.366846,0.52852005
10,1436970288303,-9.003994,3.4512417,0.49559975
11,1436970288323,-9.118318,3.457826,0.54288524
12,1436970288343,-8.90643,3.5075054,0.46088383
13,1436970288362,-8.991425,3.5458126,0.44711718
14,1436970288382,-9.043498,3.5368345,0.4177882
15,1436970288403,-9.068039,3.5170822,0.39145198
16,1436970288423,-9.054871,3.457826,0.427365
17,1436970288443,-8.986037,3.459023,0.4345476
18,1436970288470,-9.136872,3.4243069,0.4345476
19,1436970288530,-9.028535,3.4332852,0.427365
20,1436970288531,-9.156026,3.3967736,0.46686932
21,1436970288532,-9.145252,3.3991678,0.48841715
22,1436970288542,-9.001001,3.4051533,0.48841715
23,1436970288561,-9.036914,3.3836055,0.5201403
24,1436970288593,-9.090185,3.393781,0.5506664
25,1436970288600,-9.117719,3.3680432,0.5566519
26,1436970288620,-8.874707,3.4249055,0.5129577
27,1436970288650,-9.157223,3.3369186,0.52852005
28,1436970288667,-9.1829605,3.3381157,0.5315128
29,1436970288680,-9.1272955,3.2704794,0.5662287
30,1436970288703,-9.056067,3.3279405,0.51834464
31,1436970288723,-9.074024,3.3602622,0.55725044
32,1436970288740,-9.036914,3.341707,0.56922144
33,1436970288762,-9.069236,3.3728316,0.5931635
34,1436970288780,-9.038112,3.4207156,0.58298814
35,1436970288803,-8.990228,3.4003649,0.5823896
36,1436970288823,-9.071032,3.3997664,0.59136784
37,1436970288843,-8.956709,3.4422636,0.5434838
38,1436970288863,-9.133281,3.4434607,0.5674258
39,1436970288881,-8.993818,3.4542346,0.5033809
40,1436970288903,-8.974067,3.4620156,0.47465047
41,1436970288926,-9.032125,3.4572272,0.4818331
42,1436970288944,-9.039309,3.470994,0.45310268
43,1436970288963,-9.082404,3.4123359,0.48482585
44,1436970288984,-9.121908,3.3758245,0.4830302
45,1436970289001,-9.109938,3.328539,0.50158525
46,1436970289021,-9.085397,3.2842462,0.52133745
47,1436970289046,-9.081805,3.2998085,0.49440265
48,1436970289066,-9.069236,3.323152,0.4345476
49,1436970289087,-8.941745,3.4099417,0.45429978
50,1436970289102,-9.163208,3.4290953,0.39683893
51,1436970289121,-9.054871,3.4835634,0.3705027
52,1436970289140,-9.018359,3.5272577,0.30166942
53,1436970289162,-9.046491,3.57993,0.31543607
54,1436970289183,-9.081207,3.6092591,0.31663316
55,1436970289204,-9.000402,3.5817258,0.3393781
56,1436970289273,-9.024344,3.5697548,0.33518824
57,1436970289274,-8.957906,3.5781345,0.34835634
58,1436970289275,-8.99322,3.6164417,0.3669114
59,1436970289282,-9.022549,3.6846764,0.31902736
60,1436970289302,-9.013571,3.7457285,0.28191724
61,1436970289322,-9.072827,3.7672763,0.25258827
62,1436970289340,-8.990228,3.7774518,0.19991584
63,1436970289361,-8.968081,3.757101,0.22146365
64,1436970289383,-8.95611,3.7008374,0.23762453
65,1436970289403,-8.920795,3.5913026,0.2837129
66,1436970289421,-8.962694,3.4925418,0.31184477
67,1436970289445,-9.086594,3.4476504,0.3597288
68,1436970289464,-9.093178,3.406949,0.3728969
69,1436970289484,-9.069835,3.3913867,0.4213795
70,1436970289502,-9.102157,3.390788,0.44113165
71,1436970289524,-9.013571,3.394978,0.46627077
72,1436970289544,-9.09258,3.4494462,0.45010993
73,1436970289564,-8.950125,3.5104983,0.46507367
74,1436970289584,-8.941745,3.6056678,0.43155485
75,1436970289601,-9.01417,3.70383,0.3716998
76,1436970289624,-9.006389,3.7966053,0.36152446
77,1436970289646,-8.854955,3.8432922,0.30346507
78,1436970289663,-8.892065,3.8133647,0.34117374
79,1436970289684,-8.881889,3.7792473,0.31902736
80,1436970289705,-8.895657,3.7606924,0.34356794
81,1436970289724,-8.881889,3.6727054,0.3250129
82,1436970289744,-8.890269,3.5913026,0.3238158
83,1436970289764,-9.024344,3.550601,0.31423897
84,1436970289786,-9.029133,3.5051112,0.350152
85,1436970289803,-8.965088,3.4781766,0.3172317
86,1436970289823,-8.998607,3.4931402,0.2861071
87,1436970289845,-9.029133,3.5476084,0.24959552
88,1436970289865,-8.992023,3.5697548,0.19692309
89,1436970289885,-8.996213,3.6290112,0.16699557
90,1436970289905,-9.033921,3.6463692,0.16460137
91,1436970289929,-9.053674,3.6942532,0.13467385
92,1436970290003,-9.0237465,3.6978445,0.12210429
93,1436970290004,-9.053674,3.7325604,0.108936176
94,1436970290005,-9.001001,3.7523127,0.14425065
95,1436970290006,-9.0429,3.7259765,0.14544775
96,1436970290022,-8.981848,3.714604,0.19871874
97,1436970290044,-8.971672,3.6565444,0.19512744
98,1436970290061,-8.92738,3.6373909,0.21667525
99,1436970290090,-8.975264,3.6170402,0.18734628
100,1436970290101,-8.938153,3.5936968,0.15562311
101,1436970290122,-9.015965,3.5422213,0.15562311
102,1436970290150,-9.060258,3.5392287,0.15143326
103,1436970290161,-8.996812,3.5631707,0.17058687
104,1436970290181,-8.983644,3.5553896,0.16759412
105,1436970290201,-8.989629,3.5763388,0.14903906
106,1436970290224,-8.885481,3.6379895,0.15023616
107,1436970290244,-9.101558,3.678691,0.12868834
108,1436970290263,-9.139865,3.7163997,0.1921347
109,1436970290284,-9.020754,3.7349546,0.15263036
110,1436970290305,-8.881291,3.787627,0.17058687
111,1436970290322,-8.969278,3.7630866,0.2160767
112,1436970290344,-8.950125,3.693056,0.24001873
113,1436970290367,-8.847773,3.618836,0.21188685
114,1436970290385,-8.990826,3.5476084,0.24600422
115,1436970290405,-9.01776,3.4931402,0.22984336
116,1436970290423,-9.077616,3.484162,0.22984336
117,1436970290442,-9.017162,3.4913447,0.10474633
118,1436970290462,-9.105149,3.4494462,0.19632454
119,1436970290487,-9.010578,3.4153287,0.11971009
120,1436970290507,-9.081805,3.405752,0.11492168
121,1436970290529,-9.066243,3.3848026,0.08080431
122,1436970290544,-9.096769,3.3692403,0.07062895
123,1436970290561,-9.139865,3.4302924,0.077213004
124,1436970290582,-9.150639,3.457826,0.0724246
125,1436970290602,-9.081805,3.5541923,0.05805939
126,1436970290623,-9.085996,3.608062,0.04249708
127,1436970290644,-9.013571,3.6475663,0.051475335
128,1436970290723,-8.996213,3.6649241,0.061650693
129,1436970290724,-8.966884,3.7175968,0.08439561
130,1436970290725,-8.978855,3.6996403,0.05566519
131,1436970290726,-8.957307,3.690662,0.095169514
132,1436970290743,-9.018359,3.6577415,0.11911154
133,1436970290764,-9.005191,3.6176388,0.11372458
134,1436970290782,-8.965088,3.6050692,0.15442601
135,1436970290802,-8.950125,3.6601357,0.17357962
136,1436970290827,-8.762179,3.6858735,0.1921347
137,1436970290843,-8.800487,3.7134068,0.19393034
138,1436970290866,-8.835801,3.709217,0.12509704
139,1436970290886,-8.897452,3.6170402,0.061650693
140,1436970290903,-9.205107,3.4745853,0.05327099
141,1436970290924,-9.370307,3.3542767,0.06584055
142,1436970290942,-9.273342,3.277662,0.005985504
143,1436970290964,-9.239224,3.347094,-0.11432313
144,1436970290985,-9.288904,3.390788,-0.11372458
145,1436970291005,-9.169194,3.41473,-0.06943185
146,1436970291025,-8.995016,3.493739,-0.107739076
147,1436970291044,-9.098565,3.5661635,-0.09636662
148,1436970291064,-8.966286,3.5739446,-0.05566519
149,1436970291086,-9.101558,3.6194344,-0.006584055
150,1436970291106,-8.934562,3.6421793,-0.024540568
151,1436970291122,-8.992023,3.6966474,0.029927522
152,1436970291145,-8.998009,3.6332011,0.08798691
153,1436970291163,-8.938752,3.6391866,0.10414778
154,1436970291182,-8.944139,3.6355953,0.088585466
155,1436970291203,-8.967483,3.6134489,0.10235212
156,1436970291227,-9.042301,3.5410242,0.11731588
157,1436970291249,-9.068039,3.5033157,0.073621705
158,1436970291267,-9.09258,3.4703953,0.05925649
159,1436970291286,-9.088988,3.478775,0.05207389
160,1436970291303,-9.111733,3.4422636,0.0700304
161,1436970291323,-9.111733,3.4560301,0.05207389
162,1436970291344,-8.994417,3.4093432,0.08619126
163,1436970291364,-9.074623,3.3931823,0.10175357
164,1436970291438,-9.1255,3.3686419,0.109534726
165,1436970291443,-9.057863,3.304597,0.1340753
166,1436970291445,-9.11293,3.2788591,0.110731825
167,1436970291446,-9.141661,3.269881,0.13587095
168,1436970291473,-9.071032,3.268684,0.077811554
169,1436970291482,-9.243414,3.2986114,0.090979666
170,1436970291512,-9.226655,3.3141737,0.11671733
171,1436970291523,-9.179369,3.2956185,0.13587095
172,1436970291543,-9.053075,3.318962,0.11492168
173,1436970291563,-9.02614,3.3506854,0.107739076
174,1436970291583,-9.085996,3.4039562,0.12569559
175,1436970291606,-9.144054,3.4021606,0.12449849
176,1436970291625,-9.093178,3.3925838,0.11252748
177,1436970291644,-9.060856,3.4075475,0.108337626
178,1436970291664,-9.122507,3.3399115,0.12389994
179,1436970291685,-9.044097,3.289633,0.14604631
180,1436970291706,-9.14226,3.2429461,0.1448492
181,1436970291726,-9.258977,3.2172086,0.20350714
182,1436970291746,-9.18715,3.2034419,0.17118542
183,1436970291763,-9.208099,3.1896753,0.19812019
184,1436970291784,-9.173384,3.163339,0.18076223
185,1436970291805,-9.169194,3.1507695,0.20350714
186,1436970291826,-9.1668,3.156755,0.22445641
187,1436970291844,-9.214684,3.1316159,0.1933318
188,1436970291870,-9.202713,3.1010897,0.21787235
189,1436970291884,-9.293094,3.0681696,0.2136825
190,1436970291904,-9.328408,2.9747956,0.21188685
191,1436970291926,-9.232041,2.9712043,0.15143326
192,1436970291946,-9.341577,2.926313,0.17417817
193,1436970291966,-9.284714,2.9149406,0.14724341
194,1436970291984,-9.406818,2.854487,0.16998832
195,1436970292006,-9.256582,2.8862102,0.16160862
196,1436970292026,-9.303867,2.8054059,0.24540567
197,1436970292046,-8.938153,2.9029696,0.25857377
198,1436970292072,-9.176975,2.955642,0.3429694
199,1436970292084,-9.090784,2.9334955,0.40402153
200,1436970292105,-8.574833,2.9119477,0.41838676
201,1436970292133,-8.352771,2.8401217,0.40402153
202,1436970292192,-8.182184,2.7694929,0.40043023
203,1436970292193,-7.7649946,2.6491842,0.3716998
204,1436970292194,-6.9246297,2.5091233,0.3333926
205,1436970292216,-5.965752,2.3546975,0.11671733
206,1436970292243,-5.245696,2.2720973,-0.053869538
207,1436970292244,-5.4767365,2.1709423,-0.18435353
208,1436970292263,-6.623559,2.2188265,-0.011971008
209,1436970292287,-7.548918,2.3505075,-0.013766659
210,1436970292303,-8.201937,2.456451,0.15622166
211,1436970292323,-8.826823,2.4546554,0.26755205
212,1436970292357,-10.598533,2.558803,0.30107087
213,1436970292365,-13.654132,2.8592753,0.599149
214,1436970292385,-17.013796,3.068768,0.82001406
215,1436970292405,-19.59714,2.6551697,1.2749124
216,1436970292427,-19.60911,2.355296,1.3239936
217,1436970292447,-19.60911,2.0566192,1.2210429
218,1436970292464,-19.60911,1.5652094,1.5149311
219,1436970292484,-19.585768,1.240795,1.5544355
220,1436970292505,-16.45475,1.2563573,1.3730747
221,1436970292526,-12.887389,1.0229226,1.027711
222,1436970292547,-9.100959,1.0193313,0.6937199
223,1436970292567,-5.4863133,0.8146271,0.41359833
224,1436970292586,-2.4013844,0.31124622,0.035913024
225,1436970292604,0.4441244,0.11671733,-0.45070848
226,1436970292625,2.8814218,0.4345476,-0.700304
227,1436970292647,2.0147207,0.33518824,-0.65541273
228,1436970292667,-1.6543933,-0.2801216,-0.30526072
229,1436970292687,-1.4149733,-0.2208651,-0.109534726
230,1436970292706,0.6853402,-0.30945057,-0.10354923
231,1436970292727,1.0773908,-0.36511576,-0.16220717
232,1436970292757,-0.06284779,-0.110133275,0.25438392
233,1436970292764,-3.1627405,0.14305355,0.81043726
234,1436970292807,-8.169615,0.28909984,1.4748282
235,1436970292808,-12.813767,0.3286042,2.0165164
236,1436970292825,-13.579313,1.376666,2.7521348
237,1436970292844,-17.304691,0.1316811,3.2429461
238,1436970292864,-19.60911,-1.2162545,4.4208937
239,1436970292884,-19.60911,-1.6729485,4.755483
240,1436970292904,-19.60911,-2.980781,5.1876364
241,1436970292953,-19.60911,-3.1441853,4.831499
242,1436970292954,-19.60911,-2.349909,3.816956
243,1436970292971,-17.362751,-1.809418,3.1112652
244,1436970292984,-12.030265,-1.0648212,2.2936451
245,1436970293004,-6.5948286,-0.29987377,1.5849615
246,1436970293024,-2.0811598,0.1448492,1.0145429
247,1436970293044,0.8858546,0.1933318,0.53330845
248,1436970293072,2.472612,0.2693477,0.260968
249,1436970293084,2.1152773,0.45130703,0.22565351
250,1436970293104,-0.7469909,-0.008978256,0.44711718
251,1436970293124,-1.0540473,-0.20290859,0.5895722
252,1436970293145,0.8882488,-0.1592144,0.3854665
253,1436970293164,1.3706805,-0.2220622,0.25318682
254,1436970293186,1.292869,-0.05805939,0.031124622
255,1436970293205,0.9103952,0.12270284,-0.093373865
256,1436970293235,-1.5562311,0.12270284,0.079008654
257,1436970293279,-6.4284315,0.17298107,0.52073884
258,1436970293280,-13.512276,-0.7398083,0.9804256
259,1436970293284,-16.938976,0.012569559,2.3062148
260,1436970293304,-19.400814,-1.2844892,2.6521769
261,1436970293326,-19.60911,-2.0638018,4.1742907
262,1436970293344,-19.60911,-2.2649148,4.3897686
263,1436970293364,-19.60911,-3.2184057,4.685453
264,1436970293384,-19.60911,-2.8006175,3.9258924
265,1436970293404,-19.5313,-1.7741034,2.7730842
266,1436970293424,-14.942811,-0.6937199,1.9734207
267,1436970293445,-9.53012,0.3489549,1.0265139
268,1436970293464,-5.319318,0.97982705,0.7721301
269,1436970293483,-2.6821043,0.7870938,0.41359833
270,1436970293503,-0.87208796,0.64703304,0.079008654
271,1436970293524,0.7679402,0.6895301,-0.22565351
272,1436970293545,1.6472107,0.6799533,-0.23163901
273,1436970293564,0.19752164,0.15023616,-0.15203181
274,1436970293585,-0.5009867,0.107140526,-0.1364695
275,1436970293609,0.3633201,0.09995792,-0.10534488
276,1436970293647,0.76315176,-0.08439561,-0.05566519
277,1436970293648,0.89184016,0.02932897,-0.3669114
278,1436970293664,1.1899183,0.2124854,-0.55126494
279,1436970293685,-0.061052144,0.29388827,-0.1921347
280,1436970293704,-3.912724,-0.0688333,0.5351041
281,1436970293724,-9.710283,-0.48602295,1.721431
282,1436970293746,-15.175648,-0.80804306,2.8820202
283,1436970293764,-16.934788,0.2717419,3.8355112
284,1436970293789,-19.582176,-1.0498575,4.1772833
285,1436970293807,-19.60911,-2.469619,5.741296
286,1436970293824,-19.60911,-2.9574378,5.753267
287,1436970293845,-19.60911,-3.180697,5.619191
288,1436970293864,-19.60911,-2.8927941,5.0403934
289,1436970293886,-19.60911,-1.8363527,4.1539397
290,1436970293905,-17.14428,-0.7308301,3.2393548
291,1436970293925,-10.683527,0.19093758,2.4091654
292,1436970293944,-5.0798974,0.8571242,1.5867572
293,1436970293968,-0.86729956,0.9983821,0.7625532
294,1436970293985,1.1246762,0.6452374,0.16460137
295,1436970294009,1.6250644,0.4938041,0.017357962
296,1436970294026,0.78050977,0.31902736,0.044292733
297,1436970294047,-1.1803415,-0.110133275,0.08080431
298,1436970294067,-0.44232875,0.12569559,0.09636662
299,1436970294088,0.9923966,0.095169514,-0.089184016
300,1436970294107,1.5155296,0.04129998,-0.088585466
301,1436970294126,1.158195,0.061650693,-0.05686229
302,1436970294145,0.7637503,0.059855044,-0.1388637
303,1436970294165,0.7433996,0.17657238,-0.25558102
304,1436970294189,-0.5662287,0.15263036,-0.11312603
305,1436970294207,-4.3640313,0.15502456,0.41180268
306,1436970294224,-11.51192,-0.58298814,1.0839748
307,1436970294245,-18.287512,-0.55126494,2.2918496
308,1436970294265,-19.60911,-0.29328972,2.9550436
309,1436970294285,-19.60911,-1.6944963,4.2281604
310,1436970294306,-19.60911,-1.9434932,5.337274
311,1436970294325,-19.60911,-2.0272903,5.015254
312,1436970294345,-19.60911,-2.1146786,4.88477
313,1436970294365,-19.60911,-1.6005238,3.7726634
314,1436970294389,-19.60911,-0.7068881,2.4193408
315,1436970294405,-16.886305,0.130484,1.6394296
316,1436970294426,-11.063007,0.52971715,1.1935096
317,1436970294445,-5.3420625,0.80325466,0.82360536
318,1436970294468,-0.38187516,0.81761986,0.39145198
319,1436970294488,2.1613655,0.46627077,0.24839842
320,1436970294506,2.2457612,0.23762453,0.33997664
321,1436970294528,0.8265981,0.036511578,0.42916065
322,1436970294547,-0.70509243,-0.34117374,0.53091425
323,1436970294568,-0.35553896,-0.28311434,0.48482585
324,1436970294589,0.6739678,-0.17956513,0.23523031
325,1436970294610,0.8912416,-0.12030864,0.13347675
326,1436970294628,0.8643068,0.044292733,-0.10534488
327,1436970294647,0.8984242,0.20649989,-0.29987377
328,1436970294666,0.3824737,0.24121583,-0.2681506
329,1436970294686,-1.5496471,0.19093758,-0.09935937
330,1436970294709,-5.4887075,0.26396075,0.4950012
331,1436970294727,-12.865841,-0.4405331,1.0348936
332,1436970294748,-18.5401,0.1340753,2.5169046
333,1436970294768,-19.60911,0.015562311,3.0657754
334,1436970294788,-19.60911,-1.8746599,4.7381253
335,1436970294809,-19.60911,-1.678934,5.373187
336,1436970294827,-19.60911,-2.1745336,5.502474
337,1436970294847,-19.60911,-2.5300727,5.060744
338,1436970294866,-19.60911,-2.3259668,3.9402575
339,1436970294889,-19.60911,-1.5412674,2.5133133
340,1436970294909,-15.922638,-0.7080852,1.4640543
341,1436970294926,-9.409213,-0.05746084,0.830788
342,1436970295000,-3.1651347,0.20051439,0.23463176
343,1436970295001,1.3670892,0.15322891,-0.22325931
344,1436970295002,3.4105403,0.037110128,-0.40043023
345,1436970295009,2.9466639,0.37708676,-0.27593175
346,1436970295031,0.5129577,0.29927522,-0.2837129
347,1436970295070,-1.2096704,-0.15143326,-0.034715924
348,1436970295071,-0.006584055,-0.04249708,-0.017956512
349,1436970295129,0.94451255,-0.05865794,-0.2837129
350,1436970295130,0.32441434,0.054468088,-0.25438392
351,1436970295133,0.0017956513,0.3429694,-0.3842694
352,1436970295154,0.27114335,0.4345476,-0.47644615
353,1436970295170,-0.08140286,0.44891283,-0.29568392
354,1436970295190,-2.5570073,0.29508537,0.12389994
355,1436970295207,-7.8068933,0.21188685,0.7092823
356,1436970295229,-14.671069,-0.05925649,1.441908
357,1436970295250,-17.594988,0.94211835,2.731784
358,1436970295266,-18.889055,0.30166942,2.9502552
359,1436970295286,-19.60911,-1.6603789,4.378995
360,1436970295306,-19.60911,-1.7615339,4.621408
361,1436970295329,-19.60911,-2.1374235,4.672883
362,1436970295350,-19.60911,-2.2679076,4.3317094
363,1436970295367,-19.60911,-2.4349031,3.6858735
364,1436970295390,-19.60911,-1.8339585,2.9203274
365,1436970295406,-15.410279,-1.3970166,2.303222
366,1436970295434,-8.971672,-0.7098808,1.4957775
367,1436970295449,-2.854487,-0.061650693,0.5895722
368,1436970295466,1.4053963,0.20350714,-0.025737667
369,1436970295489,2.879626,0.20231004,-0.26874915
370,1436970295512,2.2182279,0.31543607,-0.08080431
371,1436970295529,0.13706805,-0.005985504,0.0796072
372,1436970295546,-1.0450691,-0.37349546,0.26994625
373,1436970295567,0.3669114,-0.20410569,0.18255788
374,1436970295586,1.3108255,-0.24001873,-0.11192893
375,1436970295609,1.2096704,-0.11971009,-0.2124854
376,1436970295629,0.62728083,-0.035913024,-0.34835634
377,1436970295652,0.24540567,0.075417355,-0.43754035
378,1436970295670,0.24839842,0.12988544,-0.47105917
379,1436970295692,-0.89782566,0.004189853,-0.19812019
380,1436970295775,-4.5082817,-0.23822308,0.58777654
381,1436970295776,-11.663952,-1.1264719,1.234211
382,1436970295777,-19.455881,-1.4508862,2.996942
383,1436970295778,-19.60911,-1.5388732,3.2782607
384,1436970295793,-19.60911,-2.7623103,4.1826706
385,1436970295814,-19.60911,-4.5406036,4.772841
386,1436970295827,-19.60911,-5.6161985,5.029619
387,1436970295847,-19.60911,-4.4903255,4.2155905
388,1436970295877,-19.60911,-3.9456444,2.9251158
389,1436970295888,-17.475279,-3.063381,1.946486
390,1436970295912,-10.067019,-1.38325,1.1575965
391,1436970295931,-3.6122518,-0.2873042,0.11611878
392,1436970295951,0.5674258,0.40102878,-0.11252748
393,1436970295970,1.9794062,0.3238158,-0.1316811
394,1436970295987,1.7866731,0.017357962,-0.13108255
395,1436970296010,0.5494693,0.008379706,-0.065242
396,1436970296032,-0.48961425,-0.25079262,0.11611878
397,1436970296048,0.32142156,-0.4309563,0.2669535
398,1436970296070,1.050456,-0.5033809,0.23223756
399,1436970296092,1.2042835,-0.3854665,0.12868834
400,1436970296110,0.7811083,-0.37349546,0.047884032
401,1436970296135,0.60214174,-0.40940848,-0.11611878
402,1436970296171,0.37469256,-0.480636,-0.17537527
403,1436970296172,-0.533907,-0.50757074,-0.08798691
404,1436970296230,-2.8526914,-0.581791,0.3405752
405,1436970296231,-8.305486,-0.7918822,1.1234791
406,1436970296232,-16.111181,-1.6663644,2.8532898
