id,attr_time,attr_x,attr_y,attr_z
1,1436621318016,0.007981095,-0.01487324,0.012270423
2,1436621318037,0.008897394,-0.013346077,0.009216096
3,1436621318057,0.010424556,-0.010597183,0.009521529
4,1436621318076,0.008897394,-0.0047939643,0.009826962
5,1436621318097,0.011646286,-0.0047939643,0.008910664
6,1436621318116,0.016533209,-0.0026559345,0.005856338
7,1436621318136,0.019587534,0.002230987,0.009521529
8,1436621318156,0.020503832,0.0031472854,0.011659558
9,1436621318176,0.023252726,0.0049798805,0.012881288
10,1436621318197,0.018671237,0.00620161,0.011964991
11,1436621318217,0.0201984,0.009866804,0.015935615
12,1436621318237,0.020809265,0.008645073,0.019295372
13,1436621318256,0.018671237,0.0068124756,0.02021167
14,1436621318276,0.025085323,0.00620161,0.016851911
15,1436621318296,0.039440654,0.0046744477,0.018073643
16,1436621318316,0.0024833083,-0.0084591545,0.025709458
17,1436621318336,-0.024089333,0.0007038228,0.019600805
18,1436621318356,-0.0054579414,0.007728774,0.0214334
19,1436621318376,0.024474457,-0.020371027,0.024487726
20,1436621318396,-0.016758949,-0.01487324,0.024182294
21,1436621318417,-0.0079014,0.018724348,0.02479316
22,1436621318437,0.010119123,0.01994608,0.024182294
23,1436621318457,0.010119123,0.0055907443,0.023265997
24,1436621318477,0.036080897,-0.017011268,0.026625756
25,1436621318497,0.01103542,-0.011818914,0.02968008
26,1436621318517,-0.006068807,-0.012735211,0.017462777
27,1436621318537,-0.0024036132,-0.012124347,0.019906238
28,1436621318557,0.0024833083,-0.011208048,0.015935615
29,1436621318577,-0.002709046,-0.012735211,0.016546478
30,1436621318597,0.004926767,-0.007848289,0.019906238
31,1436621318617,0.0058430657,-0.019760162,0.02357143
32,1436621318637,0.00065071136,-0.019454729,0.013186721
33,1436621318657,0.007981095,0.0046744477,0.012270423
34,1436621318677,0.009202825,-0.0020450708,0.011048692
35,1436621318697,0.015922343,-0.01487324,0.010437828
36,1436621318717,0.014700612,-0.01853843,0.011659558
37,1436621318737,0.01317345,-0.0142623745,0.008299799
38,1436621318757,0.009508258,-0.01365151,0.010437828
39,1436621318777,0.016227776,-0.015178673,0.011964991
40,1436621318797,0.016227776,-0.020371027,0.012270423
41,1436621318817,0.0156169105,-0.025257949,0.011354125
42,1436621318837,0.012868017,-0.023730787,0.008299799
43,1436621318857,0.008591961,-0.035337225,0.005856338
44,1436621318877,0.008591961,-0.036253523,0.007994366
45,1436621318897,0.009813691,-0.035337225,0.008299799
46,1436621318917,0.021114698,-0.04297304,0.009826962
47,1436621318937,0.039440654,-0.04755453,0.017157344
48,1436621318957,0.043105848,-0.057633806,0.016241048
49,1436621318977,0.051352527,-0.0603827,0.013797586
50,1436621318997,0.069983914,-0.07046197,0.02021167
51,1436621319017,0.07242738,-0.077181496,0.020822536
52,1436621319037,0.053490557,-0.08267929,0.015935615
53,1436621319057,0.059904642,-0.07870866,0.018073643
54,1436621319077,0.069983914,-0.07931952,0.019295372
55,1436621319098,0.06631873,-0.08390102,0.022044266
56,1436621319117,0.063875265,-0.09398028,0.028458351
57,1436621319137,0.07853603,-0.09856178,0.026320323
58,1436621319157,0.0941131,-0.09764548,0.028458351
59,1436621319177,0.11396621,-0.1016161,0.025709458
60,1436621319197,0.098694585,-0.10589217,0.030290946
61,1436621319217,0.054712288,-0.09428573,0.02601489
62,1436621319238,0.063875265,-0.07382174,0.018684508
63,1436621319257,0.104497805,-0.09856178,0.02601489
64,1436621319277,0.07395454,-0.10741933,0.032428976
65,1436621319297,0.05837748,-0.06343703,0.026931187
66,1436621319317,0.07761973,-0.04266761,0.024182294
67,1436621319337,0.09380766,-0.060688134,0.026625756
68,1436621319357,0.107552126,-0.06404789,0.02968008
69,1436621319378,0.094418526,-0.06313159,0.035788734
70,1436621319398,0.06204267,-0.055190347,0.031512678
71,1436621319418,0.059293777,-0.057633806,0.022044266
72,1436621319438,0.07303824,-0.054884914,0.018684508
73,1436621319458,0.07151108,-0.049387127,0.020517103
74,1436621319478,0.07517627,-0.043583907,0.025709458
75,1436621319498,0.07792516,-0.042362176,0.02479316
76,1436621319518,0.068456754,-0.05641208,0.025404025
77,1436621319538,0.061126374,-0.047249097,0.029985514
78,1436621319558,0.055934016,-0.025868814,0.025404025
79,1436621319578,0.052268825,-0.032893766,0.02479316
80,1436621319598,0.03882979,-0.031672034,0.02479316
81,1436621319618,0.022336427,-0.030755736,0.023265997
82,1436621319639,-0.0033199117,-0.026785113,0.0067726355
83,1436621319658,-0.021035004,-0.01365151,0.00066398317
84,1436621319678,-0.02775452,-0.007542858,0.00066398317
85,1436621319698,-0.031114284,0.0016201213,0.00096941576
86,1436621319718,-0.032641444,0.0037581492,-0.010942456
87,1436621319738,-0.04027726,0.010783099,-0.0045283716
88,1436621319758,-0.04210986,0.013531994,-0.008804427
89,1436621319778,-0.048218507,0.017502617,-0.011858754
90,1436621319798,-0.05524346,0.019640647,-0.00910986
91,1436621319818,-0.058297787,0.023305837,-0.0106370235
92,1436621319838,-0.05341086,0.017197184,-0.013996783
93,1436621319858,-0.052799996,0.014448293,-0.01369135
94,1436621319878,-0.048218507,0.015364591,-0.011553322
95,1436621319898,-0.048523944,0.011699397,-0.013996783
96,1436621319923,-0.05677062,0.013226561,-0.016745677
97,1436621319938,-0.06471187,0.019029781,-0.025603224
98,1436621319958,-0.06898792,0.024527568,-0.02621409
99,1436621319978,-0.07937263,0.025138434,-0.02041087
100,1436621319998,-0.08945191,0.01994608,-0.023159763
101,1436621320018,-0.082426965,0.018113483,-0.019800004
102,1436621320038,-0.082426965,0.01994608,-0.02285433
103,1436621320058,-0.08334325,0.015364591,-0.024686925
104,1436621320078,-0.115719125,0.01200483,-0.024381492
105,1436621320098,-0.1511493,0.02941449,-0.027435819
106,1436621320119,-0.12793642,0.042242657,-0.021327166
107,1436621320138,-0.094033405,0.00620161,-0.016134812
108,1436621320158,-0.11999518,0.01200483,-0.015829379
109,1436621320179,-0.11846802,0.049573045,-0.013385917
110,1436621320198,-0.09617144,0.041020934,-0.009415293
111,1436621320218,-0.048829373,0.0257493,-0.007582697
112,1436621320238,-0.035084907,0.016586319,-0.0036120734
113,1436621320258,-0.05218913,0.012615696,-0.0036120734
114,1436621320278,-0.060741242,0.0037581492,0.008910664
115,1436621320298,-0.061352108,0.004063582,0.009521529
116,1436621320318,-0.050356533,-0.0066265594,0.004023742
117,1436621320338,-0.045775045,-0.009375453,0.013186721
118,1436621320358,-0.03477947,-0.005710261,0.012270423
119,1436621320378,-0.021951303,-0.011513481,0.025098592
120,1436621320398,-0.033863176,-0.02067646,0.025404025
121,1436621320419,-0.040888127,-0.007542858,0.021738833
122,1436621320439,-0.034168605,-0.012429779,0.027542053
123,1436621320459,-0.02592193,-0.020981893,0.027847486
124,1436621320479,-0.022562165,-0.018843863,0.025404025
125,1436621320499,-0.02164587,-0.01853843,0.022655131
126,1436621320519,-0.022867601,-0.013956943,0.02601489
127,1436621320539,-0.018896975,-0.01365151,0.034261573
128,1436621320559,-0.012482893,-0.017622134,0.026320323
129,1436621320579,-0.018286113,-0.009375453,0.028458351
130,1436621320599,-0.020118706,-0.016705837,0.027542053
131,1436621320619,-0.022562165,-0.017927567,0.024182294
132,1436621320639,-0.02897625,-0.013040644,0.029069217
133,1436621320659,-0.027143653,-0.007237425,0.023265997
134,1436621320679,-0.023783896,-0.009680886,0.024182294
135,1436621320699,-0.016758949,-0.00907002,0.022044266
136,1436621320719,-0.009428564,-0.008764587,0.02357143
137,1436621320739,-0.010650296,-0.007542858,0.018684508
138,1436621320759,-0.012482893,-0.00907002,0.020517103
139,1436621320779,-0.01217746,-0.0044885315,0.015324749
140,1436621320799,-0.015537217,-0.008764587,0.019600805
141,1436621320819,-0.016758949,-0.009680886,0.01898994
142,1436621320839,-0.015537217,-0.013040644,0.018684508
143,1436621320859,-0.016758949,-0.011208048,0.016241048
144,1436621320879,-0.018286113,-0.011513481,0.015324749
145,1436621320899,-0.01217746,-0.009375453,0.016546478
146,1436621320919,-0.0075959675,-0.009375453,0.013797586
147,1436621320939,0.015006045,-0.006015694,0.0144084515
148,1436621320959,0.00065071136,-0.015178673,0.015324749
149,1436621320979,-0.038750093,-0.007237425,0.0125758555
150,1436621320999,-0.024089333,0.014448293,0.013492154
151,1436621321019,0.02600162,-0.01487324,0.019295372
152,1436621321039,0.009202825,-0.011513481,0.01776821
153,1436621321059,0.012562584,0.011699397,0.022960564
154,1436621321079,0.042494982,0.016891751,0.025098592
155,1436621321099,0.07517627,-0.011818914,0.03395614
156,1436621321119,0.09716742,-0.03014487,0.03395614
157,1436621321139,0.094723955,-0.024341652,0.037315898
158,1436621321159,0.07609257,-0.028006842,0.03395614
159,1436621321179,0.07059478,-0.03014487,0.026931187
160,1436621321199,0.0773143,-0.025563382,0.018379075
161,1436621321219,0.080063194,-0.016094971,0.018684508
162,1436621321240,0.083117515,-0.009680886,0.016546478
163,1436621321259,0.08495012,-0.015789539,0.025709458
164,1436621321279,0.0782306,-0.028617708,0.025098592
165,1436621321299,0.06356983,-0.017011268,0.020517103
166,1436621321319,0.057155747,-0.01365151,0.02968008
167,1436621321339,0.065097,-0.017927567,0.023265997
168,1436621321359,0.064180695,-0.0173167,0.02021167
169,1436621321379,0.060515508,-0.015178673,0.022655131
170,1436621321399,0.060820937,-0.020371027,0.02479316
171,1436621321419,0.059599206,-0.022509055,0.023876863
172,1436621321439,0.068151325,-0.028617708,0.026320323
173,1436621321459,0.07487084,-0.03472636,0.025709458
174,1436621321479,0.07242738,-0.03503179,0.027847486
175,1436621321500,0.0623481,-0.037475254,0.02021167
176,1436621321520,0.05257426,-0.035642657,0.026931187
177,1436621321540,0.039440654,-0.030450303,0.025709458
178,1436621321560,0.03149941,-0.031061169,0.026320323
179,1436621321580,0.029055946,-0.03442093,0.028763784
180,1436621321600,0.022947293,-0.032893766,0.02357143
181,1436621321620,0.01317345,-0.035337225,0.0214334
182,1436621321640,0.0046213344,-0.03503179,0.025098592
183,1436621321660,-0.0014873184,-0.031061169,0.02937465
184,1436621321680,-0.0036253445,-0.029228574,0.02021167
185,1436621321700,0.0018724427,-0.027090546,0.025098592
186,1436621321720,-0.008206833,-0.022203622,0.021127969
187,1436621321740,-0.018286113,-0.017622134,0.024182294
188,1436621321760,-0.014315486,-0.014567807,0.02357143
189,1436621321780,-0.009428564,-0.013346077,0.018073643
190,1436621321800,-0.014926352,-0.0066265594,0.01898994
191,1436621321820,-0.030808847,-0.0044885315,0.014713884
192,1436621321840,-0.08059436,0.0007038228,0.0070780683
193,1436621321860,-0.092506245,0.025138434,-0.0036120734
194,1436621321880,-0.052799996,0.02361127,5.3117983e-05
195,1436621321900,-0.06715533,0.0013146885,0.0012748484
196,1436621321920,-0.08731389,0.023000404,-0.0066663995
197,1436621321940,-0.07479115,0.050794777,-0.011247889
198,1436621321960,-0.06379557,0.046824146,-0.01827284
199,1436621321980,-0.060435813,0.034912277,-0.018883705
200,1436621322000,-0.09800403,0.035523143,-0.026824953
201,1436621322020,-0.13587767,0.058125157,-0.040874854
202,1436621322040,-0.17924911,0.07431309,-0.051259562
203,1436621322060,-0.17466761,0.08439237,-0.059200812
204,1436621322080,-0.14229175,0.07858914,-0.048205238
205,1436621322100,-0.107167006,0.07003702,-0.03782053
206,1436621322120,-0.07754004,0.05904145,-0.028657548
207,1436621322140,-0.03447404,0.025443867,-0.016440244
208,1436621322161,-0.02317303,0.009866804,-0.0124696195
209,1436621322180,-0.022867601,0.016586319,-0.00788813
210,1436621322200,-0.01950784,-0.0032668002,0.002496579
211,1436621322220,0.0021778755,-0.01365151,0.00035855058
212,1436621322243,-0.0024036132,-0.010902616,0.0070780683
213,1436621322260,-0.0033199117,-0.022509055,0.011048692
214,1436621322280,0.0040104724,-0.023730787,0.011354125
215,1436621322300,0.015922343,-0.036253523,0.011048692
216,1436621322320,0.03547003,-0.046943665,0.011964991
217,1436621322340,0.036691763,-0.05916097,0.010132395
218,1436621322360,0.018365804,-0.057633806,0.0125758555
219,1436621322380,0.00737023,-0.05916097,0.0070780683
220,1436621322400,0.0043159015,-0.05916097,0.0031074442
221,1436621322420,0.0119517185,-0.059771836,5.3117983e-05
222,1436621322440,0.027528781,-0.071378276,-0.0026957758
223,1436621322460,0.036691763,-0.07687606,-0.0063609667
224,1436621322480,0.029972244,-0.08390102,-0.008193563
225,1436621322501,0.019282103,-0.08420645,-0.010942456
226,1436621322521,0.0156169105,-0.0884825,-0.018883705
227,1436621322541,0.017449506,-0.09123139,-0.017356543
228,1436621322561,0.015922343,-0.09214769,-0.01369135
229,1436621322581,0.008286528,-0.09825635,-0.0106370235
230,1436621322601,-0.0011818856,-0.09947808,-0.0036120734
231,1436621322621,-0.00637424,-0.107724756,0.0034128767
232,1436621322641,0.0076756626,-0.11688773,-0.0048338035
233,1436621322661,0.030277677,-0.11200081,-0.010026159
234,1436621322681,0.018365804,-0.12727244,-0.0026957758
235,1436621322701,-0.012788322,-0.12146923,-0.014607648
236,1436621322721,0.018365804,-0.106503025,-0.0106370235
237,1436621322741,0.056850314,-0.14956902,-0.007582697
238,1436621322761,0.027528781,-0.14712557,-0.008804427
239,1436621322781,0.021114698,-0.10589217,-0.008498996
240,1436621322801,0.043105848,-0.09856178,-0.012164187
241,1436621322821,0.08678271,-0.10955736,-0.010331591
242,1436621322841,0.0941131,-0.11597143,-0.010331591
243,1436621322861,0.07395454,-0.115055144,-0.004222939
244,1436621322881,0.05257426,-0.11322254,-0.008804427
245,1436621322901,0.04463301,-0.104670435,-0.014302216
246,1436621322921,0.051963393,-0.10222697,-0.01827284
247,1436621322941,0.055017717,-0.10375413,-0.016134812
248,1436621322961,0.0632644,-0.09917264,-0.0069718324
249,1436621322981,0.074259974,-0.10436499,-0.004222939
250,1436621323001,0.07028935,-0.11597143,0.00066398317
251,1436621323021,0.06021007,-0.09917264,-0.0011686126
252,1436621323041,0.054101422,-0.092758566,0.0070780683
253,1436621323061,0.059293777,-0.09795092,0.008910664
254,1436621323081,0.051352527,-0.094591156,0.013797586
255,1436621323101,0.04585474,-0.09367485,0.014713884
256,1436621323133,0.036997195,-0.093369424,0.021738833
257,1436621323141,0.033332,-0.0884825,0.025404025
258,1436621323161,0.040356953,-0.077181496,0.025709458
259,1436621323181,0.049825363,-0.06007727,0.024182294
260,1436621323202,0.048298202,-0.05060886,0.025098592
261,1436621323221,0.04218955,-0.039613284,0.02723662
262,1436621323241,0.041884117,-0.031061169,0.029985514
263,1436621323261,0.039746087,-0.021592759,0.031207245
264,1436621323281,0.033637434,-0.0173167,0.034872435
265,1436621323301,0.036997195,-0.017011268,0.030901812
266,1436621323321,0.03913522,-0.005404828,0.02968008
267,1436621323342,0.03913522,-0.0011287723,0.03059638
268,1436621323362,0.036997195,-0.0014342051,0.034567002
269,1436621323381,0.032415703,-0.0050993953,0.035788734
270,1436621323401,0.03058311,-0.0041830987,0.03181811
271,1436621323421,0.027834214,-0.0044885315,0.03273441
272,1436621323441,0.030277677,-0.0066265594,0.0354833
273,1436621323461,0.041884117,-0.011208048,0.040370222
274,1436621323481,0.045549307,-0.016400404,0.04342455
275,1436621323501,0.053185124,-0.011818914,0.040981088
276,1436621323522,0.053185124,-0.019760162,0.039453924
277,1436621323542,0.011646286,-0.017622134,0.036094166
278,1436621323562,0.01103542,-0.0002124738,0.036094166
279,1436621323582,0.05043623,-0.012429779,0.04128652
280,1436621323602,0.05043623,-0.04877626,0.042508252
281,1436621323622,0.017449506,-0.021898191,0.042813685
282,1436621323642,0.02264186,-0.007237425,0.038232196
283,1436621323662,0.05532315,-0.013346077,0.033345275
284,1436621323682,0.10174891,-0.037780687,0.039453924
285,1436621323702,0.09533483,-0.053968616,0.04464628
286,1436621323722,0.06479156,-0.055190347,0.0363996
287,1436621323742,0.05440685,-0.06252073,0.031512678
288,1436621323762,0.060820937,-0.05824467,0.027847486
289,1436621323782,0.065402426,-0.061299,0.024487726
290,1436621323802,0.064180695,-0.05183059,0.021738833
291,1436621323822,0.06784589,-0.04480564,0.022044266
292,1436621323842,0.06601329,-0.05916097,0.02723662
293,1436621323862,0.044327576,-0.058550104,0.026931187
294,1436621323882,0.044327576,-0.03472636,0.022655131
295,1436621323902,0.045549307,-0.04480564,0.02021167
296,1436621323922,0.046160173,-0.05244145,0.02357143
297,1436621323942,0.043105848,-0.051525153,0.019906238
298,1436621323962,0.038218923,-0.05060886,0.019295372
299,1436621323982,0.032415703,-0.043278474,0.02479316
300,1436621324002,0.02142013,-0.04175131,0.016546478
301,1436621324022,0.01317345,-0.0463328,0.009216096
302,1436621324042,0.0037050396,-0.03686439,0.008299799
303,1436621324062,-0.00423621,-0.031061169,0.007994366
304,1436621324082,-0.009733997,-0.027395977,0.0043291748
305,1436621324102,-0.009123132,-0.033810064,0.005550905
306,1436621324122,-0.014620919,-0.0313666,0.005550905
307,1436621324142,-0.024394762,-0.0313666,0.005550905
308,1436621324162,-0.029587116,-0.024952516,-0.008193563
309,1436621324182,-0.029587116,-0.02067646,-0.004222939
310,1436621324202,-0.026227359,-0.020371027,-0.0026957758
311,1436621324222,-0.025616493,-0.015178673,-0.007277265
312,1436621324242,-0.024394762,-0.011513481,-0.0048338035
313,1436621324262,-0.019813273,-0.00907002,-0.0030012082
314,1436621324282,-0.014010053,-0.0044885315,-0.0030012082
315,1436621324302,-0.013093755,-0.007542858,0.0018857137
316,1436621324322,-0.01584265,-0.0142623745,0.008299799
317,1436621324342,-0.01003943,-0.008764587,0.00096941576
318,1436621324362,-0.010650296,-0.013346077,0.00066398317
319,1436621324382,-0.04944024,-0.014567807,5.3117983e-05
320,1436621324402,-0.06837706,0.0074233413,-0.008193563
321,1436621324423,-0.030197982,0.00620161,0.0031074442
322,1436621324442,-0.021340437,-0.025563382,0.0018857137
323,1436621324462,-0.059824947,-0.0142623745,-0.0017794778
324,1436621324482,-0.054938022,0.024833001,-0.005750102
325,1436621324503,-0.036917504,0.020556945,-0.003917506
326,1436621324523,-0.01370462,0.0074233413,-0.0036120734
327,1436621324542,-0.014010053,0.008034207,-0.0008631798
328,1436621324563,-0.040888127,0.008645073,0.0012748484
329,1436621324583,-0.06715533,0.00620161,-0.0017794778
330,1436621324603,-0.07754004,0.011393964,-0.0106370235
331,1436621324623,-0.0799835,0.008645073,-0.0124696195
332,1436621324643,-0.08884105,0.016586319,-0.014607648
333,1436621324663,-0.082426965,0.030941654,-0.016440244
334,1436621324683,-0.069293365,0.025443867,-0.016134812
335,1436621324703,-0.07967807,0.02727646,-0.01705111
336,1436621324723,-0.0836487,0.05934689,-0.019189138
337,1436621324743,-0.07662374,0.05751429,-0.017967407
338,1436621324763,-0.0659336,0.05354367,-0.02285433
339,1436621324783,-0.05646519,0.053849097,-0.019189138
340,1436621324803,-0.05646519,0.051100206,-0.016745677
341,1436621324823,-0.059824947,0.049573045,-0.011553322
342,1436621324843,-0.06410101,0.03613401,-0.007277265
343,1436621324863,-0.044247884,0.032163385,-0.012775051
344,1436621324883,-0.030503418,0.039493766,-0.009415293
345,1436621324903,-0.027143653,0.03399598,-0.010942456
346,1436621324923,-0.024089333,0.026360165,-0.006055534
347,1436621324943,-0.028670821,0.030330788,-0.0063609667
348,1436621324963,-0.0378338,0.029109057,-0.0063609667
349,1436621324983,-0.042720724,0.03277425,-0.0030012082
350,1436621325003,-0.049745668,0.035523143,0.0021911464
351,1436621325023,-0.041498993,0.035828575,0.00494004
352,1436621325043,-0.03936096,0.039493766,0.002496579
353,1436621325063,-0.035390336,0.04010463,0.0031074442
354,1436621325083,-0.028365385,0.03735574,0.0031074442
355,1436621325103,-0.030197982,0.04193723,5.3117983e-05
356,1436621325123,-0.029587116,0.046518717,-0.002390343
357,1436621325143,-0.035695773,0.052016508,-0.003917506
358,1436621325163,-0.035084907,0.052321937,-0.0069718324
359,1436621325183,-0.02744909,0.05323823,-0.0066663995
360,1436621325203,-0.014315486,0.0547654,-0.0045283716
361,1436621325223,-0.0030144788,0.052321937,0.00494004
362,1436621325243,-0.042720724,0.039799202,0.0043291748
363,1436621325263,-0.055548888,0.05171107,-0.0030012082
364,1436621325283,-0.029281687,0.058736023,0.004023742
365,1436621325303,-0.008206833,0.019029781,0.007688933
