id,attr_time,attr_x,attr_y,attr_z
1,1436621318017,-0.03848451,0.004581489,0.009468411
2,1436621318039,-0.036651913,0.007330383,0.013744468
3,1436621318060,-0.042760566,0.00580322,0.00580322
4,1436621318079,-0.03726278,0.007941248,0.0125227375
5,1436621318098,-0.03390302,0.00580322,0.0125227375
6,1436621318117,-0.035124753,0.0030543262,0.0067195175
7,1436621318137,-0.03573562,-0.0009162979,0.012217305
8,1436621318158,-0.03756821,-0.010995574,0.013744468
9,1436621318179,-0.034208454,-0.018020526,0.018020526
10,1436621318200,-0.036957346,-0.013439035,0.018020526
11,1436621318220,-0.03390302,-0.015577064,0.013744468
12,1436621318237,-0.035124753,-0.019547688,0.0125227375
13,1436621318257,-0.03756821,-0.01985312,0.010079277
14,1436621318328,-0.03359759,-0.022296581,0.011301007
15,1436621318329,-0.034208454,-0.029626964,0.010079277
16,1436621318330,-0.03481932,-0.03359759,0.0036651916
17,1436621318344,-0.036651913,-0.029932396,0.006414085
18,1436621318360,-0.03268129,-0.027488936,0.0076358155
19,1436621318389,-0.035430185,-0.027183503,0.007941248
20,1436621318395,-0.03604105,-0.036957346,0.008552114
21,1436621318415,-0.034513887,-0.056199603,0.00580322
22,1436621318435,-0.03940081,-0.0720821,0.00061086525
23,1436621318456,-0.043982297,-0.08277224,-0.0021380284
24,1436621318476,-0.044593163,-0.0888809,-0.004581489
25,1436621318496,-0.040317107,-0.08368854,-0.010079277
26,1436621318516,-0.04520403,-0.065973446,-0.007941248
27,1436621318536,-0.049785517,-0.052534413,-0.013133603
28,1436621318556,-0.052839845,-0.04886922,-0.008552114
29,1436621318576,-0.04795292,-0.05589417,-0.002443461
30,1436621318596,-0.03970624,-0.06872234,0.0021380284
31,1436621318616,-0.03970624,-0.06566802,0.005192355
32,1436621318636,-0.042760566,-0.06627888,0.0
33,1436621318656,-0.045814894,-0.06627888,0.004276057
34,1436621318676,-0.0421497,-0.062002823,0.014049901
35,1436621318696,-0.04062254,-0.06383542,0.0061086523
36,1436621318716,-0.046731193,-0.054367006,0.0033597588
37,1436621318736,-0.05100725,-0.048258353,0.013744468
38,1436621318756,-0.044593163,-0.04795292,0.016798794
39,1436621318779,-0.047647487,-0.043676864,0.016187929
40,1436621318799,-0.040011674,-0.041233405,0.012217305
41,1436621318819,-0.046120327,-0.029932396,0.015882496
42,1436621318838,-0.04917465,-0.0143553335,0.016187929
43,1436621318859,-0.048563786,-0.015577064,0.020158553
44,1436621318880,-0.03970624,-0.02443461,0.022907447
45,1436621318899,-0.044593163,-0.032070424,0.029321533
46,1436621318921,-0.043982297,-0.03145956,0.036651913
47,1436621318940,-0.04520403,-0.025045475,0.041233405
48,1436621319047,-0.045814894,-0.027488936,0.03359759
49,1436621319048,-0.04153884,-0.024129177,0.04153884
50,1436621319049,-0.03970624,-0.0143553335,0.032986723
51,1436621319050,-0.034208454,-0.008857546,0.027794369
52,1436621319051,-0.036957346,-0.0067195175,0.021991149
53,1436621319084,-0.034208454,-0.0036651916,0.014049901
54,1436621319085,-0.036957346,0.0106901415,0.00580322
55,1436621319116,-0.032375857,0.030543262,0.004276057
56,1436621319117,-0.03604105,0.032375857,0.004581489
57,1436621319136,-0.029321533,0.03390302,0.0036651916
58,1436621319156,-0.02687807,0.03359759,-0.004276057
59,1436621319176,-0.028099801,0.02565634,-0.0070249503
60,1436621319197,-0.027488936,0.00580322,-0.004276057
61,1436621319215,-0.023518313,-0.004581489,-0.0061086523
62,1436621319235,-0.015882496,0.0021380284,-0.005192355
63,1436621319255,-0.017715093,0.01985312,-0.0076358155
64,1436621319275,-0.019242255,0.030848695,-0.005192355
65,1436621319295,-0.021380283,0.041233405,-0.008246681
66,1436621319315,-0.0143553335,0.0421497,-0.00580322
67,1436621319335,-0.015271631,0.032375857,-0.01038471
68,1436621319355,-0.008552114,0.015577064,-0.002443461
69,1436621319375,-0.01282817,0.015577064,-0.0036651916
70,1436621319396,-0.009162978,0.008246681,-0.0015271631
71,1436621319416,-0.015577064,0.027183503,0.0033597588
72,1436621319436,-0.02107485,0.05222898,-0.0030543262
73,1436621319456,-0.02107485,0.06078109,-0.005192355
74,1436621319476,-0.022602014,0.06688975,-0.007941248
75,1436621319497,-0.02107485,0.061391957,-0.009773844
76,1436621319520,-0.025961773,0.050396383,-0.012217305
77,1436621319539,-0.021380283,0.042760566,-0.008552114
78,1436621319560,-0.022602014,0.036651913,-0.009468411
79,1436621319582,-0.028710667,0.04153884,-0.013439035
80,1436621319601,-0.03145956,0.039095376,-0.0106901415
81,1436621319622,-0.029321533,0.034513887,-0.0076358155
82,1436621319636,-0.027488936,0.020158553,-0.005192355
83,1436621319677,-0.022602014,0.007330383,0.00061086525
84,1436621319680,-0.022602014,-0.004581489,-0.0061086523
85,1436621319696,-0.03268129,0.008552114,-0.01160644
86,1436621319718,-0.043676864,0.022907447,-0.014966198
87,1436621319736,-0.04062254,0.023518313,-0.0143553335
88,1436621319756,-0.043066,0.016798794,-0.021380283
89,1436621319776,-0.04428773,0.019242255,-0.019547688
90,1436621319810,-0.04734206,0.025350908,-0.018936822
91,1436621319825,-0.05222898,0.035124753,-0.015882496
92,1436621319838,-0.053145275,0.036651913,-0.01160644
93,1436621319856,-0.050701816,0.029932396,-0.0067195175
94,1436621319876,-0.047647487,0.017715093,-0.005192355
95,1436621319896,-0.054061573,0.003970624,-0.005497787
96,1436621319916,-0.0580322,0.0015271631,-0.0070249503
97,1436621319937,-0.057726767,0.0033597588,-0.0067195175
98,1436621319957,-0.050396383,0.010995574,-0.0070249503
99,1436621319976,-0.049785517,0.02107485,-0.011301007
100,1436621319996,-0.050701816,0.02321288,-0.009162978
101,1436621320016,-0.054061573,0.032375857,-0.0143553335
102,1436621320039,-0.054367006,0.03604105,-0.013744468
103,1436621320058,-0.04917465,0.03848451,-0.013439035
104,1436621320080,-0.047647487,0.029932396,-0.01038471
105,1436621320100,-0.052534413,0.020463986,-0.009773844
106,1436621320120,-0.05009095,0.011301007,-0.007330383
107,1436621320137,-0.049785517,0.009773844,-0.006414085
108,1436621320159,-0.05100725,-0.00061086525,-0.004276057
109,1436621320177,-0.05009095,-0.004581489,-0.008246681
110,1436621320198,-0.045814894,-0.002443461,-0.013744468
111,1436621320217,-0.048258353,0.0018325958,-0.0125227375
112,1436621320241,-0.048258353,0.008552114,-0.017104227
113,1436621320261,-0.049785517,0.022296581,-0.016798794
114,1436621320280,-0.050396383,0.024740042,-0.013133603
115,1436621320299,-0.048258353,0.024129177,-0.009468411
116,1436621320323,-0.042760566,0.015577064,-0.004276057
117,1436621320352,-0.04184427,0.0106901415,0.00030543262
118,1436621320358,-0.035430185,0.0012217305,0.0012217305
119,1436621320380,-0.0421497,-0.002443461,0.0009162979
120,1436621320399,-0.043066,-0.0061086523,-0.004886922
121,1436621320419,-0.0421497,-0.0033597588,-0.0021380284
122,1436621320441,-0.039095376,-0.0018325958,-0.0030543262
123,1436621320459,-0.04520403,0.013439035,-0.009468411
124,1436621320478,-0.050396383,0.03176499,-0.007941248
125,1436621320501,-0.04642576,0.03940081,-0.003970624
126,1436621320521,-0.042760566,0.046731193,0.00061086525
127,1436621320541,-0.040011674,0.032070424,-0.005497787
128,1436621320563,-0.0421497,0.018936822,-0.0070249503
129,1436621320579,-0.049480084,0.03390302,-0.009773844
130,1436621320601,-0.050396383,0.04337143,-0.008246681
131,1436621320621,-0.04734206,0.021991149,-0.011301007
132,1436621320641,-0.037873644,0.00030543262,-0.005192355
133,1436621320661,-0.036957346,0.0036651916,-0.0036651916
134,1436621320681,-0.0421497,0.018020526,-0.005497787
135,1436621320701,-0.036957346,0.05009095,-0.010079277
136,1436621320719,-0.03573562,0.062308256,-0.007330383
137,1436621320741,-0.033292156,0.062308256,-0.004886922
138,1436621320758,-0.03756821,0.055283304,-0.006414085
139,1436621320780,-0.03970624,0.05222898,-0.008246681
140,1436621320798,-0.04184427,0.05131268,-0.003970624
141,1436621320823,-0.04550946,0.051923547,0.0
142,1436621320843,-0.04642576,0.058643065,0.003970624
143,1436621320864,-0.05222898,0.05375614,0.0061086523
144,1436621320881,-0.04795292,0.046731193,0.01038471
145,1436621320898,-0.050701816,0.030848695,0.013133603
146,1436621320920,-0.055588737,0.014049901,0.009468411
147,1436621320941,-0.0571159,-0.0067195175,0.0143553335
148,1436621320961,-0.056505036,-0.014966198,0.01038471
149,1436621320978,-0.054367006,-0.021991149,0.008552114
150,1436621321033,-0.05497787,-0.01863139,0.0027488936
151,1436621321034,-0.051618114,-0.0036651916,-0.0070249503
152,1436621321052,-0.057726767,0.0125227375,-0.008246681
153,1436621321058,-0.055588737,0.021685716,-0.0067195175
154,1436621321079,-0.0580322,0.034208454,-0.014049901
155,1436621321099,-0.05467244,0.021380283,-0.015882496
156,1436621321118,-0.05222898,0.021380283,-0.0106901415
157,1436621321143,-0.04917465,-0.007330383,-0.013439035
158,1436621321160,-0.05467244,-0.01985312,-0.015577064
159,1436621321180,-0.053145275,-0.030543262,-0.013439035
160,1436621321200,-0.04795292,-0.02687807,-0.007330383
161,1436621321218,-0.048563786,-0.013439035,-0.009468411
162,1436621321242,-0.047647487,-0.0021380284,-0.018325957
163,1436621321262,-0.044593163,0.014049901,-0.01740966
164,1436621321282,-0.04062254,0.0030543262,-0.01282817
165,1436621321302,-0.03604105,0.0070249503,-0.0070249503
166,1436621321322,-0.027794369,0.014660766,-0.0030543262
167,1436621321342,-0.03176499,0.026572637,0.0027488936
168,1436621321362,-0.03145956,0.034208454,0.015882496
169,1436621321382,-0.016187929,0.044593163,0.01985312
170,1436621321402,-0.016493361,0.050396383,0.01985312
171,1436621321420,-0.011301007,0.057726767,0.015577064
172,1436621321440,-0.01038471,0.08674286,0.018936822
173,1436621321460,-0.007330383,0.1301143,0.022296581
174,1436621321482,-0.0030543262,0.1414153,0.032375857
175,1436621321500,0.0021380284,0.12308934,0.03756821
176,1436621321519,0.008246681,0.09712757,0.05467244
177,1436621321538,0.0106901415,0.04520403,0.07422013
178,1436621321562,0.014660766,-0.013133603,0.08032878
179,1436621321582,0.014049901,-0.056199603,0.073303826
180,1436621321602,0.013133603,-0.0842994,0.069027774
181,1436621321622,0.003970624,-0.11209377,0.056199603
182,1436621321641,-0.00580322,-0.112399206,0.040927973
183,1436621321661,-0.024740042,-0.10048734,0.024129177
184,1436621321680,-0.034208454,-0.083383106,0.016187929
185,1436621321702,-0.04550946,-0.06658431,0.0061086523
186,1436621321723,-0.049785517,-0.06169739,-0.00030543262
187,1436621321774,-0.048563786,-0.057421334,0.0009162979
188,1436621321775,-0.047647487,-0.05100725,0.0012217305
189,1436621321793,-0.04550946,-0.0421497,0.0
190,1436621321800,-0.04062254,-0.03848451,-0.0018325958
191,1436621321819,-0.036651913,-0.048258353,0.004276057
192,1436621321842,-0.028710667,-0.05681047,0.012217305
193,1436621321859,-0.018936822,-0.06566802,0.014966198
194,1436621321879,-0.014660766,-0.06352998,0.0143553335
195,1436621321901,-0.005192355,-0.05955936,0.01740966
196,1436621321920,-0.0018325958,-0.06719518,0.014660766
197,1436621321942,0.005192355,-0.079107046,0.01740966
198,1436621321960,0.005192355,-0.09162979,0.02076942
199,1436621321983,0.007330383,-0.09712757,0.02321288
200,1436621322000,0.004276057,-0.10293079,0.02565634
201,1436621322022,0.0067195175,-0.11056661,0.026267206
202,1436621322042,0.003970624,-0.129198,0.025045475
203,1436621322063,-0.00061086525,-0.14477506,0.022296581
204,1436621322082,-0.011301007,-0.15821409,0.016493361
205,1436621322102,-0.021380283,-0.15424347,0.0143553335
206,1436621322122,-0.029626964,-0.1414153,0.007941248
207,1436621322142,-0.029321533,-0.13500121,0.018936822
208,1436621322163,-0.022602014,-0.13744467,0.02107485
209,1436621322179,-0.023823744,-0.15760323,0.014966198
210,1436621322203,-0.029321533,-0.17715092,0.018936822
211,1436621322220,-0.028405234,-0.18875736,0.026267206
212,1436621322240,-0.01985312,-0.1863139,0.024740042
213,1436621322259,-0.02076942,-0.16646078,0.019547688
214,1436621322285,-0.013133603,-0.15057829,0.0143553335
215,1436621322305,-0.015882496,-0.11942416,0.01282817
216,1436621322325,-0.018325957,-0.089186326,0.014049901
217,1436621322343,-0.015882496,-0.07880162,0.015882496
218,1436621322360,-0.018020526,-0.096516706,0.031154128
219,1436621322380,-0.014660766,-0.10873401,0.038179077
220,1436621322400,-0.018020526,-0.12186762,0.03970624
221,1436621322422,-0.025350908,-0.13225232,0.035124753
222,1436621322440,-0.03176499,-0.15210545,0.029626964
223,1436621322492,-0.03481932,-0.15821409,0.02565634
224,1436621322493,-0.040317107,-0.14782938,0.022907447
225,1436621322510,-0.048258353,-0.13164146,0.016798794
226,1436621322520,-0.049785517,-0.12644911,0.018325957
227,1436621322545,-0.05100725,-0.11636983,0.015882496
228,1436621322561,-0.05131268,-0.10720685,0.019547688
229,1436621322581,-0.054367006,-0.10934488,0.021991149
230,1436621322601,-0.04642576,-0.09865474,0.021991149
231,1436621322620,-0.050396383,-0.09285152,0.02443461
232,1436621322642,-0.04520403,-0.07941248,0.028099801
233,1436621322661,-0.047036625,-0.06505715,0.027488936
234,1436621322683,-0.04734206,-0.06352998,0.027488936
235,1436621322703,-0.043066,-0.05375614,0.03176499
236,1436621322723,-0.046120327,-0.036651913,0.03268129
237,1436621322743,-0.05100725,-0.040317107,0.038179077
238,1436621322763,-0.05100725,-0.022602014,0.038179077
239,1436621322783,-0.051618114,-0.0076358155,0.03940081
240,1436621322803,-0.050701816,0.003970624,0.02687807
241,1436621322823,-0.051923547,0.019547688,0.02443461
242,1436621322843,-0.055588737,0.03359759,0.024129177
243,1436621322863,-0.057421334,0.04428773,0.01863139
244,1436621322881,-0.057726767,0.049785517,0.016493361
245,1436621322903,-0.061391957,0.036957346,0.011911872
246,1436621322923,-0.052839845,0.013744468,0.015577064
247,1436621322941,-0.056199603,-0.0015271631,0.015271631
248,1436621322962,-0.05009095,-0.008246681,0.006414085
249,1436621322982,-0.052839845,-0.007941248,0.004276057
250,1436621323004,-0.053450707,-0.0009162979,0.004886922
251,1436621323024,-0.05131268,0.0027488936,-0.0067195175
252,1436621323045,-0.056199603,0.018325957,-0.011911872
253,1436621323063,-0.053145275,0.02565634,-0.0061086523
254,1436621323081,-0.048563786,0.016187929,0.0018325958
255,1436621323102,-0.047647487,0.011911872,0.005497787
256,1436621323123,-0.043676864,-0.0033597588,0.005497787
257,1436621323142,-0.044898596,-0.008552114,-0.0015271631
258,1436621323161,-0.046731193,0.00061086525,-0.008246681
259,1436621323211,-0.048563786,0.0009162979,-0.005497787
260,1436621323213,-0.047036625,-0.016798794,-0.008552114
261,1436621323231,-0.04184427,-0.029321533,-0.009468411
262,1436621323240,-0.038179077,-0.020158553,-0.013133603
263,1436621323265,-0.040317107,-0.011911872,-0.010995574
264,1436621323281,-0.03848451,-0.008552114,-0.016187929
265,1436621323301,-0.039095376,0.0015271631,-0.014966198
266,1436621323322,-0.036651913,0.006414085,-0.0143553335
267,1436621323342,-0.038789943,0.007330383,-0.010079277
268,1436621323361,-0.04337143,0.0030543262,-0.0143553335
269,1436621323381,-0.042760566,-0.004581489,-0.013133603
270,1436621323404,-0.04062254,-0.0061086523,-0.013744468
271,1436621323421,-0.044898596,-0.011301007,-0.014049901
272,1436621323444,-0.04062254,-0.017104227,-0.013744468
273,1436621323464,-0.038789943,-0.013133603,-0.016798794
274,1436621323484,-0.04520403,-0.008246681,-0.016187929
275,1436621323504,-0.03970624,-0.0033597588,-0.016798794
276,1436621323524,-0.043676864,0.005497787,-0.01740966
277,1436621323544,-0.042455133,-0.0027488936,-0.014660766
278,1436621323564,-0.038179077,-0.009468411,-0.0143553335
279,1436621323584,-0.03604105,-0.013439035,-0.017104227
280,1436621323601,-0.03634648,-0.0143553335,-0.01282817
281,1436621323624,-0.034513887,-0.011301007,-0.009468411
282,1436621323644,-0.030848695,-0.0061086523,-0.0018325958
283,1436621323665,-0.02321288,-0.0027488936,0.0033597588
284,1436621323684,-0.02321288,-0.0030543262,0.0027488936
285,1436621323704,-0.018936822,-0.0106901415,0.008246681
286,1436621323723,-0.016493361,-0.011911872,0.01740966
287,1436621323756,-0.018020526,-0.008857546,0.014049901
288,1436621323763,-0.016798794,0.0,0.015577064
289,1436621323784,-0.01740966,0.019242255,0.019547688
290,1436621323804,-0.02321288,0.027794369,0.018020526
291,1436621323823,-0.025045475,0.027183503,0.022296581
292,1436621323841,-0.023518313,0.014049901,0.02321288
293,1436621323861,-0.025961773,0.009773844,0.021380283
294,1436621323883,-0.036957346,0.018325957,0.016493361
295,1436621323936,-0.043982297,0.031154128,0.023518313
296,1436621323937,-0.041233405,0.032375857,0.028099801
297,1436621323951,-0.039095376,0.035430185,0.02687807
298,1436621323961,-0.038179077,0.02443461,0.019547688
299,1436621323984,-0.044593163,0.014966198,0.008857546
300,1436621324002,-0.04642576,0.022907447,0.00030543262
301,1436621324021,-0.044593163,0.034513887,-0.004276057
302,1436621324042,-0.040927973,0.036651913,-0.0061086523
303,1436621324062,-0.035124753,0.028710667,-0.005192355
304,1436621324085,-0.032070424,0.03176499,0.0033597588
305,1436621324104,-0.027183503,0.038789943,0.0027488936
306,1436621324122,-0.019547688,0.036651913,-0.0021380284
307,1436621324143,-0.013744468,0.026572637,-0.0018325958
308,1436621324164,-0.009468411,0.01740966,-0.00030543262
309,1436621324184,0.00030543262,0.012217305,-0.005192355
310,1436621324204,0.0012217305,0.020463986,-0.0076358155
311,1436621324225,0.0,0.042455133,-0.013133603
312,1436621324244,0.0015271631,0.063224554,-0.015882496
313,1436621324265,-0.01038471,0.07696902,-0.01985312
314,1436621324285,-0.020158553,0.07727446,-0.024129177
315,1436621324305,-0.02687807,0.08155051,-0.022296581
316,1436621324324,-0.032986723,0.07941248,-0.022907447
317,1436621324342,-0.03481932,0.077579886,-0.021685716
318,1436621324365,-0.043676864,0.06872234,-0.023823744
319,1436621324382,-0.03940081,0.051923547,-0.020463986
320,1436621324401,-0.04184427,0.050701816,-0.027794369
321,1436621324421,-0.03634648,0.065973446,-0.028405234
322,1436621324447,-0.030543262,0.08674286,-0.027794369
323,1436621324467,-0.033292156,0.1142318,-0.029321533
324,1436621324487,-0.030848695,0.13500121,-0.028405234
325,1436621324504,-0.025350908,0.13958271,-0.025045475
326,1436621324521,-0.023823744,0.13988814,-0.026572637
327,1436621324541,-0.020158553,0.1301143,-0.019547688
328,1436621324561,-0.021685716,0.11881329,-0.016493361
329,1436621324582,-0.022296581,0.11026118,-0.012217305
330,1436621324605,-0.023823744,0.11178834,-0.011301007
331,1436621324675,-0.021991149,0.11362094,-0.009468411
332,1436621324676,-0.027488936,0.11789699,-0.012217305
333,1436621324720,-0.028710667,0.116675265,-0.014966198
334,1436621324722,-0.031154128,0.10629055,-0.014660766
335,1436621324723,-0.03359759,0.09560041,-0.008246681
336,1436621324724,-0.034513887,0.09437868,-0.009468411
337,1436621324745,-0.035430185,0.099571034,-0.0143553335
338,1436621324769,-0.04184427,0.09896017,-0.0070249503
339,1436621324782,-0.040011674,0.08674286,-0.0012217305
340,1436621324810,-0.03145956,0.07880162,0.002443461
341,1436621324834,-0.024129177,0.058337633,0.007941248
342,1436621324909,-0.028405234,0.061391957,0.005497787
343,1436621324918,-0.036651913,0.09040806,0.003970624
344,1436621324919,-0.04550946,0.118507855,0.0070249503
345,1436621324920,-0.045814894,0.13103059,0.014966198
346,1436621324963,-0.042760566,0.14905111,0.025961773
347,1436621324964,-0.04886922,0.17104226,0.035430185
348,1436621324965,-0.053450707,0.19120082,0.041233405
349,1436621324982,-0.04917465,0.20433442,0.05100725
350,1436621325003,-0.04795292,0.21502456,0.07391469
351,1436621325022,-0.04153884,0.23884831,0.096516706
352,1436621325042,-0.040011674,0.27947086,0.112399206
353,1436621325062,-0.040317107,0.3399465,0.13622294
354,1436621325082,-0.048563786,0.39095375,0.1740966
355,1436621325103,-0.049480084,0.43188173,0.22052236
356,1436621325122,-0.054061573,0.45204028,0.27366763
357,1436621325142,-0.046731193,0.50488013,0.30726522
358,1436621325162,-0.032986723,0.57787853,0.3191771
359,1436621325182,-0.028405234,0.65209866,0.3231477
360,1436621325203,-0.026267206,0.68966687,0.3295618
361,1436621325222,-0.018020526,0.72265357,0.34513888
362,1436621325242,-0.019547688,0.7770206,0.36193767
363,1436621325262,-0.0070249503,0.81336707,0.3839288
364,1436621325282,0.008552114,0.8741482,0.41080686
