id,attr_time,attr_x,attr_y,attr_z
1,1436164600903,9.923966,-0.2172738,0.6745663
2,1436164600928,9.909002,-0.2088941,0.6410475
3,1436164600945,9.910199,-0.22685061,0.6476316
4,1436164600966,9.917382,-0.28191724,0.61112
5,1436164600986,9.969456,-0.21308395,0.6596026
6,1436164601006,9.970055,-0.18136078,0.6607997
7,1436164601026,9.940127,-0.24121583,0.61052144
8,1436164601046,9.913791,-0.25857377,0.6332663
9,1436164601066,9.908403,-0.24779987,0.6356605
10,1436164601086,9.953295,-0.1933318,0.66259533
11,1436164601106,9.9550905,-0.21068975,0.65242
12,1436164601126,9.958083,-0.22744916,0.6314707
13,1436164601144,9.924564,-0.25977087,0.60693014
14,1436164601165,9.905411,-0.20410569,0.5979519
15,1436164601187,9.93893,-0.14305355,0.6027403
16,1436164601211,9.951499,-0.15023616,0.6278794
17,1436164601230,9.951499,-0.21428105,0.6464345
18,1436164601245,9.933543,-0.23762453,0.6548142
19,1436164601263,9.911396,-0.27353755,0.6476316
20,1436164601284,9.922769,-0.22804771,0.682946
21,1436164601306,9.938332,-0.19512744,0.6955156
22,1436164601327,9.910798,-0.21906945,0.6512229
23,1436164601347,9.913791,-0.25019407,0.6075287
24,1436164601366,9.969456,-0.25019407,0.5967548
25,1436164601385,9.969456,-0.21308395,0.58298814
26,1436164601405,9.892242,-0.2645593,0.62967503
27,1436164601475,9.861118,-0.2789245,0.6853402
28,1436164601476,9.883265,-0.2741361,0.7015011
29,1436164601477,9.956886,-0.23223756,0.6739678
30,1436164601485,9.995792,-0.19692309,0.52852005
31,1436164601513,9.9712515,-0.16879122,0.52253455
32,1436164601527,9.93893,-0.17357962,0.6422446
33,1436164601543,9.922769,-0.23762453,0.6751649
34,1436164601565,9.898229,-0.29508537,0.66139823
35,1436164601584,9.905411,-0.29628247,0.6823475
36,1436164601608,9.913791,-0.26515785,0.623091
37,1436164601627,9.947908,-0.24121583,0.60094464
38,1436164601644,9.961675,-0.24779987,0.6087258
39,1436164601669,9.925761,-0.272939,0.61890113
40,1436164601686,9.916783,-0.22565351,0.7068881
41,1436164601707,9.93893,-0.28909984,0.6679823
42,1436164601727,9.9473095,-0.29508537,0.59735334
43,1436164601747,9.944916,-0.25558102,0.60812724
44,1436164601767,9.909601,-0.24061728,0.5650316
45,1436164601787,9.936536,-0.22026655,0.58657944
46,1436164601807,9.959879,-0.20709845,0.65062433
47,1436164601827,9.961076,-0.25198972,0.6739678
48,1436164601847,9.952098,-0.25737667,0.6386533
49,1436164601864,9.934141,-0.22026655,0.6242881
50,1436164601887,9.946113,-0.23882163,0.6362591
51,1436164601907,9.937134,-0.24480712,0.6242881
52,1436164601926,9.929952,-0.2088941,0.62608373
53,1436164601946,9.928755,-0.19692309,0.6290765
54,1436164601967,9.941922,-0.24301147,0.5955577
55,1436164601985,9.929952,-0.24540567,0.5883751
56,1436164602007,9.931149,-0.21787235,0.6039374
57,1436164602025,9.959281,-0.2172738,0.5859809
58,1436164602047,9.947908,-0.20290859,0.5979519
59,1436164602067,9.943718,-0.22325931,0.6548142
60,1436164602087,9.94312,-0.22565351,0.6727707
61,1436164602106,9.937134,-0.25917232,0.6703765
62,1436164602129,9.923966,-0.25857377,0.64463884
63,1436164602244,9.932944,-0.24001873,0.635062
64,1436164602245,9.97185,-0.2136825,0.6775591
65,1436164602246,9.916184,-0.25677812,0.6667852
66,1436164602247,9.869498,-0.2160767,0.712275
67,1436164602252,9.927557,-0.19871874,0.7015011
68,1436164602253,10.007165,-0.15981296,0.7541735
69,1436164602265,10.023924,-0.09876082,0.6769605
70,1436164602294,9.93893,-0.1376666,0.7469909
71,1436164602306,9.8916445,-0.24001873,0.83976626
72,1436164602326,9.857527,-0.32621,0.7589619
73,1436164602346,9.880871,-0.31124622,0.75716627
74,1436164602366,9.946711,-0.22804771,0.741604
75,1436164602387,9.985617,-0.14724341,0.7266402
76,1436164602408,10.001179,-0.20410569,0.8074445
77,1436164602427,9.972448,-0.2208651,0.82599956
78,1436164602447,9.850943,-0.26396075,0.86969376
79,1436164602467,9.803059,-0.2172738,0.8475474
80,1436164602488,9.8994255,-0.22565351,0.88286185
81,1436164602507,9.964667,-0.19153613,0.78888947
82,1436164602527,9.973646,-0.20470424,0.8242039
83,1436164602547,9.921572,-0.24121583,0.8295909
84,1436164602567,9.862914,-0.32680854,0.87927055
85,1436164602587,9.820416,-0.33159694,0.8487445
86,1436164602607,9.859323,-0.30705637,0.8182184
87,1436164602625,9.968858,-0.2172738,0.88286185
88,1436164602647,9.998785,-0.20709845,0.8643068
89,1436164602668,9.962872,-0.22026655,0.88944596
90,1436164602688,9.876082,-0.24420857,0.89303726
91,1436164602707,9.846154,-0.27832595,0.9367314
92,1436164602728,9.857527,-0.27832595,0.9151836
93,1436164602747,9.873089,-0.25498247,0.87567925
94,1436164602769,9.924564,-0.28191724,0.8858546
95,1436164602788,9.950302,-0.26755205,0.86969376
96,1436164602808,9.930551,-0.24540567,0.8559271
97,1436164602828,9.913791,-0.2765303,0.86011696
98,1436164602847,9.861717,-0.30286652,0.8595184
99,1436164602866,9.870096,-0.27114335,0.90261406
100,1436164602894,9.916184,-0.22625206,0.9588778
101,1436164602960,9.968858,-0.22625206,0.8319851
102,1436164602961,9.985617,-0.28790274,0.8690952
103,1436164602966,9.928156,-0.29688102,0.86729956
104,1436164602967,9.853337,-0.28431144,0.8774749
105,1436164602986,9.81922,-0.27353755,0.94930094
106,1436164603007,9.8994255,-0.23403321,0.9115923
107,1436164603025,9.9951935,-0.23403321,0.9020155
108,1436164603045,10.029311,-0.20410569,0.87089086
109,1436164603068,9.9790325,-0.2172738,0.8319851
110,1436164603086,9.911995,-0.260968,0.89662856
111,1436164603106,9.836577,-0.32022446,0.83856916
112,1436164603126,9.824008,-0.30466217,0.7703344
113,1436164603149,9.913791,-0.24959552,0.78649527
114,1436164603167,9.977237,-0.25917232,0.8182184
115,1436164603185,9.956886,-0.3309984,0.7990648
116,1436164603212,9.877279,-0.37588966,0.7164649
117,1436164603225,9.883863,-0.28670564,0.78649527
118,1436164603247,9.937733,-0.20410569,0.86370826
119,1436164603265,9.924564,-0.2873042,0.81522566
120,1436164603286,9.923966,-0.31603462,0.78649527
121,1436164603305,9.90601,-0.29448682,0.76315176
122,1436164603328,9.91798,-0.2825158,0.75237787
123,1436164603347,9.909601,-0.23642741,0.7787141
124,1436164603368,9.922769,-0.2112883,0.7918822
125,1436164603388,9.89763,-0.31543607,0.7745243
126,1436164603408,9.885659,-0.3609259,0.7667431
127,1436164603428,9.903017,-0.29388827,0.7344214
128,1436164603449,9.960478,-0.20590134,0.81402856
129,1436164603467,9.96347,-0.2184709,0.87089086
130,1436164603488,9.900622,-0.30107087,0.8487445
131,1436164603509,9.902418,-0.34715924,0.8798691
132,1436164603528,9.901221,-0.3321955,0.84335756
133,1436164603549,9.882666,-0.2873042,0.7745243
134,1436164603568,9.907805,-0.22146365,0.83737206
135,1436164603586,9.956886,-0.21308395,0.82899237
136,1436164603605,9.974244,-0.1933318,0.8571242
137,1436164603676,9.966463,-0.22984336,0.8822633
138,1436164603677,9.951499,-0.26874915,0.878672
139,1436164603678,9.884461,-0.32202014,0.8535329
140,1436164603747,9.878476,-0.31124622,0.8062474
141,1436164603748,9.868899,-0.28311434,0.7314286
142,1436164603749,9.882068,-0.29568392,0.75956047
143,1436164603750,9.8683,-0.24301147,0.82599956
144,1436164603791,9.930551,-0.23762453,0.88525605
145,1436164603792,10.028113,-0.2669535,0.8984242
146,1436164603823,9.9928,-0.30645782,0.8355764
147,1436164603827,9.889849,-0.26276365,0.83378077
148,1436164603845,9.890448,-0.22924481,0.9115923
149,1436164603867,9.907207,-0.22565351,0.8714894
150,1436164603886,9.923966,-0.20590134,0.8690952
151,1436164603906,9.938332,-0.27353755,0.8846575
152,1436164603931,9.907207,-0.3429694,0.80804306
153,1436164603946,9.880871,-0.3453636,0.81881696
154,1436164603969,9.919178,-0.23762453,0.93972415
155,1436164603987,9.911396,-0.17537527,0.8451532
156,1436164604009,9.898827,-0.15322891,0.88944596
157,1436164604026,9.937733,-0.19093758,0.8535329
158,1436164604049,9.847352,-0.21906945,0.78050977
159,1436164604069,9.812635,-0.23343466,0.7703344
160,1436164604089,9.927557,-0.2136825,0.8170213
161,1436164604109,10.044873,-0.19991584,0.9780314
162,1436164604128,10.016742,-0.23463176,0.85413146
163,1436164604152,9.950302,-0.12749124,0.770933
164,1436164604168,9.797672,-0.03232172,0.7799112
165,1436164604212,9.746795,0.027533319,0.7044938
166,1436164604219,9.894038,-0.037708677,0.7152678
167,1436164604230,9.941324,-0.15622166,0.94690675
168,1436164604246,9.815628,-0.13706805,1.0570401
169,1436164604266,9.6049385,0.21428105,1.0444705
170,1436164604286,9.548077,0.20111294,1.2521675
171,1436164604306,9.866506,-0.10055647,1.0570401
172,1436164604326,10.068216,-0.095768064,1.050456
173,1436164604350,10.016742,0.15382746,1.1025299
174,1436164604369,9.8515415,0.4237737,1.1091139
175,1436164604388,9.705495,0.47165772,0.93373865
176,1436164604408,9.727641,0.49679685,0.87687635
177,1436164604426,9.80665,0.32022446,0.99658644
178,1436164604492,9.909601,0.0023942017,1.033098
179,1436164604493,9.866506,-0.14844051,1.0271125
180,1436164604494,9.800665,-0.031124622,1.0169371
181,1436164604514,9.788693,0.12210429,0.82121116
182,1436164604526,9.668385,0.10414778,0.5291186
183,1436164604547,9.615712,-0.0011971008,0.33159694
184,1436164604566,9.626487,-0.1448492,0.27353755
185,1436164604587,9.91798,-0.049679685,0.50637364
186,1436164604609,9.982025,-0.320823,0.4441244
187,1436164604627,9.985617,-0.78888947,0.3393781
188,1436164604647,9.892242,-1.3299791,-0.076614454
189,1436164604666,9.572019,-1.6603789,-0.5590461
190,1436164604690,9.451111,-1.4550761,-0.20350714
191,1436164604708,9.841366,-1.0534488,1.0360907
192,1436164604730,10.787076,-0.90500826,1.9674352
193,1436164604746,11.3407345,-1.2024878,1.8171991
194,1436164604769,11.702259,-1.7124528,1.3910311
195,1436164604790,11.094132,-1.3443443,1.3425486
196,1436164604810,10.468048,-0.62488663,1.365892
197,1436164604830,9.67018,-0.4902128,0.24720132
198,1436164604847,8.835801,-0.7493851,-0.16280572
199,1436164604869,8.638878,-0.9528923,-0.08678981
200,1436164604886,9.051279,-1.3736732,0.19093758
201,1436164604910,9.771336,-1.5915456,0.47764325
202,1436164604930,9.958682,-1.2330139,0.5590461
203,1436164604949,9.524135,-0.89782566,0.6063316
204,1436164604969,9.272144,-1.1192893,0.9816227
205,1436164604990,9.421184,-1.4544775,1.01574
206,1436164605009,9.333796,-1.6154876,1.1408371
207,1436164605029,8.867524,-1.9315223,0.7517793
208,1436164605048,8.746018,-2.1883004,0.878672
209,1436164605069,9.007586,-2.2230163,0.97862995
210,1436164605090,9.156625,-2.0709844,0.9600749
211,1436164605109,9.507375,-2.0093338,1.3138182
212,1436164605126,10.266336,-2.1122844,1.489792
213,1436164605239,11.382035,-1.827973,0.8487445
214,1436164605240,11.745954,-1.5316905,0.045489833
215,1436164605241,12.438477,-0.9660604,-0.3842694
216,1436164605242,13.211205,-1.1857284,1.2910733
217,1436164605243,14.720749,-1.8579005,0.6075287
218,1436164605269,16.935387,-3.353678,-2.7030537
219,1436164605270,17.581223,-3.426701,-3.514688
220,1436164605290,16.153679,-1.3066356,-3.596091
221,1436164605307,11.787852,1.4562732,-2.2703018
222,1436164605327,7.1089835,3.0538042,-2.5659857
223,1436164605349,5.5725045,1.7465701,-2.7431567
224,1436164605368,8.429984,0.3776853,-2.1990743
225,1436164605389,12.454638,-0.8571242,-1.751957
226,1436164605408,14.451402,-1.2186487,-0.48003745
227,1436164605428,13.433268,-0.36152446,0.05925649
228,1436164605450,10.23222,0.65421563,-1.1917139
229,1436164605468,8.92319,0.7038953,-1.8435353
230,1436164605490,7.2634096,-0.049081136,-2.2918496
231,1436164605510,6.8282633,-0.961272,-1.3521254
232,1436164605530,6.921637,-1.620276,-0.7811083
233,1436164605550,6.5020533,-1.2437878,-0.84934306
234,1436164605570,6.0046577,-0.089782566,-0.9576807
235,1436164605589,5.5341973,0.45789108,-0.7350199
236,1436164605610,5.5683146,0.004189853,-0.12808979
237,1436164605630,5.6215854,-0.7870938,-0.25498247
238,1436164605648,6.10282,-0.17956513,-0.7098808
239,1436164605671,7.5267715,1.3670892,-0.65182143
240,1436164605688,8.996213,2.0644004,-0.58119243
241,1436164605711,10.001778,1.7531542,-0.80325466
242,1436164605728,11.162966,1.9758149,0.06823475
243,1436164605750,13.984532,3.104681,0.516549
244,1436164605772,15.24089,2.8808231,0.9588778
245,1436164605791,15.483901,1.6089035,0.5386954
246,1436164605810,13.363835,1.4975731,-1.4431051
247,1436164605830,12.295423,3.9109285,-3.5009215
248,1436164605848,14.141353,2.9364884,-1.6537948
249,1436164605870,14.709975,-3.9947255,-4.57113
250,1436164605888,11.153389,-6.217742,-7.2544312
251,1436164605910,9.148843,-1.5179238,-4.343082
252,1436164605980,10.592546,2.5629928,0.59136784
253,1436164605981,13.987525,3.9252937,2.3289597
254,1436164605982,14.541782,1.4736311,-1.2114661
255,1436164605987,11.900978,-1.6980876,-4.2263646
256,1436164606011,8.613739,-2.4169466,-3.1052797
257,1436164606029,6.593033,-1.1186907,-2.5881321
258,1436164606055,5.5509567,0.320823,-3.09271
259,1436164606068,4.595072,0.89423436,-2.0201077
260,1436164606088,4.019266,0.60453594,-1.401805
261,1436164606108,3.4087446,-0.21308395,-0.95109665
262,1436164606128,4.257489,-0.5363012,-0.28072014
263,1436164606149,5.7257333,-0.56323594,0.17118542
264,1436164606167,6.0244102,-0.49559975,0.11133038
265,1436164606188,5.7418942,-0.44232875,-0.30466217
266,1436164606208,6.139332,-0.75357497,-0.84694886
267,1436164606229,7.731476,-1.3479356,-0.39683893
268,1436164606248,9.904214,-3.0591912,-0.2088941
269,1436164606270,13.727754,-3.300407,-0.41359833
270,1436164606288,17.30529,-1.3652935,0.48602295
271,1436164606308,15.357008,0.9624691,-0.012569559
272,1436164606328,14.182652,0.45609543,-1.388637
273,1436164606349,16.194979,-1.541866,-2.160767
274,1436164606369,16.55351,-1.9542671,-2.9783869
275,1436164606389,14.960768,-1.5436616,-4.368221
276,1436164606408,10.213664,-0.51235914,-6.483498
277,1436164606431,6.3667808,-0.2717419,-6.8893156
278,1436164606448,7.9463553,0.3357868,-3.3997664
279,1436164606468,14.026431,1.1270704,1.0516531
280,1436164606488,17.925388,-0.741604,0.87089086
281,1436164606509,14.888343,-1.9009962,-1.0085574
282,1436164606532,9.79827,-1.371279,-3.0262709
283,1436164606554,5.828684,0.107739076,-3.8163576
284,1436164606569,4.602853,1.3305776,-2.4109612
285,1436164606588,4.775235,1.2234371,-0.62129533
286,1436164606608,4.8362875,0.30166942,-0.14903906
287,1436164606628,4.618415,-0.28670564,-0.19692309
288,1436164606649,4.3341036,-0.25258827,-0.39743748
289,1436164606673,4.035427,0.44532153,-0.4237737
290,1436164606739,4.0479965,0.7260417,-0.19033903
291,1436164606740,4.559159,0.94211835,-0.17896658
292,1436164606741,6.0124393,0.8038532,-0.0724246
293,1436164606748,7.7949224,0.5201403,0.41359833
294,1436164606774,10.03769,0.6254852,-0.110133275
295,1436164606789,13.189058,1.685518,-1.5699978
296,1436164606810,15.62456,2.5031378,-1.6633717
297,1436164606829,17.220295,2.930503,-0.47105917
298,1436164606850,17.68477,2.2780828,1.3461399
299,1436164606870,14.944607,1.0235212,-0.7386112
300,1436164606889,11.814188,1.7160441,-4.10845
301,1436164606912,10.509348,0.23822308,-5.650316
302,1436164606930,9.772532,-3.8480806,-4.9524064
303,1436164606949,11.137826,-4.8297033,-4.3035774
304,1436164606971,13.195642,-1.2737153,-1.4814123
305,1436164606989,13.753491,1.5029601,-0.6703765
306,1436164607012,13.861231,5.1062336,-0.05686229
307,1436164607029,14.498089,2.554613,0.10654198
308,1436164607049,13.253702,-1.6364368,-1.9111716
309,1436164607071,8.913613,-2.3900118,-4.608838
310,1436164607089,5.228338,-1.1486182,-3.1621418
311,1436164607110,4.0623617,-0.62728083,-3.145981
312,1436164607129,4.262876,-0.20530279,-1.8950106
313,1436164607152,3.86484,0.31783026,-1.30484
314,1436164607172,3.2734723,0.017357962,-0.878672
315,1436164607190,3.9211037,-0.17477672,-0.3274071
316,1436164607211,5.4043117,-0.2148796,-0.012569559
317,1436164607232,6.3967085,0.023942016,0.4441244
318,1436164607255,7.064092,-0.4297592,0.6206968
319,1436164607272,7.820061,-1.6861166,0.6715736
320,1436164607289,8.5700445,-2.2720973,1.407192
321,1436164607311,10.742783,-2.8245595,0.33399114
322,1436164607329,12.545018,-2.72939,-1.6346412
323,1436164607357,14.695011,-1.2066777,1.34195
324,1436164607380,15.501858,-0.26994625,1.6112977
325,1436164607434,17.18917,-0.88405895,-1.4885949
326,1436164607435,17.558477,-0.688333,-3.8684313
327,1436164607436,14.04319,-0.5057751,-5.3205147
328,1436164607454,9.812037,-0.91578215,-6.3063273
329,1436164607471,7.8386164,-1.282095,-7.068282
330,1436164607492,10.723629,0.18555063,-4.6405616
331,1436164607509,16.331448,2.208651,-0.20350714
332,1436164607531,17.253216,0.11552023,-0.08080431
333,1436164607551,13.5218525,-2.3157916,-1.5532384
334,1436164607571,8.734647,-2.308609,-2.7036524
335,1436164607590,5.4791307,-0.89184016,-3.0532057
336,1436164607609,4.644751,0.09816227,-2.77069
337,1436164607633,3.791817,1.3940239,-1.4209588
338,1436164607651,3.4769795,1.2210429,-0.3513491
339,1436164607672,3.5404258,0.15801731,0.1921347
340,1436164607692,3.767875,-0.5315128,-0.06284779
341,1436164607712,3.791817,-0.74519527,-0.40761283
342,1436164607732,3.7020345,-0.3878607,-0.5446809
343,1436164607750,4.3676224,0.5530606,-0.9235633
344,1436164607772,6.3284736,1.1569979,-0.90620536
345,1436164607792,9.259575,1.5753847,-0.58298814
346,1436164607810,12.849681,2.0278888,-1.0702082
347,1436164607831,17.009007,1.7836803,-1.6346412
348,1436164607851,19.506758,2.0111294,-1.4383167
349,1436164607870,19.085978,2.9538465,0.3878607
350,1436164607889,16.225506,2.843713,1.033098
351,1436164607909,13.998299,2.384625,-0.11552023
352,1436164607930,10.089765,1.5197195,-2.6420016
353,1436164607950,8.470686,0.80325466,-5.561132
354,1436164607976,7.7667904,-1.2036849,-7.27957
355,1436164607989,10.313622,-2.516306,-5.036802
356,1436164608010,15.103223,-2.0853498,-1.5490485
357,1436164608029,16.96292,1.9668367,-0.05865794
358,1436164608049,15.33127,4.483143,-0.14305355
359,1436164608070,12.185888,2.0901382,-1.5568297
360,1436164608090,8.371326,-1.2970588,-3.5565867
361,1436164608116,4.991312,-1.7729063,-3.482965
362,1436164608223,2.9963434,-0.65660983,-2.2278047
363,1436164608224,2.4911668,0.08200141,-1.3383588
364,1436164608225,2.6120741,0.2148796,-1.359308
365,1436164608226,3.0879216,-0.31483752,-1.3395559
366,1436164608227,3.5817258,-0.7433996,-1.1198878
367,1436164608238,5.421071,-1.198298,-0.37349546
368,1436164608250,6.1890116,-0.8583213,0.4297592
369,1436164608270,5.6802435,-0.57640404,0.18315643
370,1436164608290,5.216367,-0.93613285,-0.54049104
371,1436164608315,6.7731967,-1.8339585,-0.47046062
372,1436164608330,9.892841,-2.3888147,-1.2282255
373,1436164608350,15.160684,-1.8596961,-1.4281414
374,1436164608371,19.583372,-1.5472529,-0.23044191
375,1436164608393,19.379866,-1.7926586,0.5291186
376,1436164608411,17.466898,-1.7082629,-0.694917
377,1436164608433,16.842611,-0.6218939,-3.0532057
378,1436164608452,14.616003,-0.012569559,-4.4502225
379,1436164608471,11.4377,0.7206547,-6.2524576
380,1436164608493,8.474277,1.1061212,-5.6880245
381,1436164608512,7.349002,0.9636662,-5.3833623
382,1436164608533,9.039907,1.0187328,-1.905186
383,1436164608554,13.13459,-0.092176765,1.1869255
384,1436164608571,15.465944,-1.7782934,1.2617443
385,1436164608593,13.187861,-1.2802993,0.10414778
386,1436164608613,9.197925,0.008379706,-1.4341269
387,1436164608632,5.8759694,0.3657143,-2.6605566
388,1436164608652,3.9438488,0.18854338,-2.3702598
389,1436164608671,3.0142999,0.2789245,-1.4203602
390,1436164608695,3.5218706,0.6338649,-0.8463503
391,1436164608716,4.656722,0.31364042,-0.40462008
392,1436164608732,5.322909,-0.28191724,-0.19572599
393,1436164608750,4.905121,-0.23403321,-0.260968
394,1436164608770,4.208408,0.7326257,-0.38845924
395,1436164608795,5.0451818,1.7968484,-0.78410107
396,1436164608846,7.5363483,2.0841527,-0.32561144
397,1436164608871,9.437943,1.8183962,-0.074220255
398,1436164608872,13.554174,0.9696517,-0.3429694
399,1436164608873,17.530943,0.7314286,-1.0737995
400,1436164608893,19.30385,2.7180176,-0.29987377
401,1436164608917,17.468695,4.173094,2.2655134
402,1436164608983,13.814544,2.7551277,1.958457
403,1436164608984,11.7387705,2.355296,-0.98940384
404,1436164608985,11.707646,-0.7565677,-3.8546648
405,1436164608992,10.700885,-5.8107276,-6.9000893
406,1436164609019,11.603498,-4.7842135,-6.145916
407,1436164609032,13.842077,-0.54168814,-2.724003
408,1436164609052,16.07467,4.1162314,-0.25139117
