id,attr_time,attr_x,attr_y,attr_z
1,1436472360003,-3.3333273,8.978256,-1.3395559
2,1436472360023,-3.809175,8.853159,-1.2587515
3,1436472360042,-3.3129766,8.93935,-1.6927006
4,1436472360062,-3.5883098,8.726865,-1.1665748
5,1436472360088,-4.056975,8.622119,-1.5107412
6,1436472360171,-3.1346085,9.316438,-2.010531
7,1436472360180,-4.140772,8.561067,-1.1252748
8,1436472360185,-3.8708255,8.590994,-1.4215573
9,1436472360186,-3.1519666,9.25359,-1.1665748
10,1436472360187,-4.313753,8.321048,-1.7591397
11,1436472360199,-3.8714242,8.593389,-1.4239515
12,1436472360222,-3.530849,8.591593,-1.5855601
13,1436472360239,-3.3087866,8.732851,-1.6112977
14,1436472360262,-3.4626143,9.194932,-1.7184383
15,1436472360281,-3.3423057,8.467693,-1.9961656
16,1436472360301,-2.973,9.227852,-1.2838906
17,1436472360321,-3.728969,9.02614,-1.1713632
18,1436472360340,-3.7576995,8.382699,-1.5340848
19,1436472360364,-3.6284127,8.667608,-1.4879963
20,1436472360379,-3.5170822,8.78672,-1.3293805
21,1436472360400,-3.493739,9.054871,-1.5263035
22,1436472360420,-3.3626564,9.138668,-1.4879963
23,1436472360439,-3.1950622,9.053674,-1.299453
24,1436472360465,-3.072958,8.974665,-1.46585
25,1436472360484,-3.8055837,8.519767,-1.8632874
26,1436472360502,-3.3393128,8.540716,-1.763928
27,1436472360519,-2.955642,8.917204,-1.7190368
28,1436472360540,-1.8357542,9.7479925,-1.8459295
29,1436472360559,-2.4426842,9.315839,-1.8908207
30,1436472360580,-2.930503,9.147048,-1.5167267
31,1436472360603,-4.349067,8.638878,-1.8136078
32,1436472360659,-3.9426517,8.623915,-1.1546037
33,1436472360660,-3.477578,8.914211,-1.7274165
34,1436472360661,-3.0735564,9.046491,-1.6771383
35,1436472360690,-2.926313,8.877101,-1.5855601
36,1436472360703,-3.323152,8.920795,-1.4143747
37,1436472360722,-4.232949,8.634089,-2.011728
38,1436472360740,-4.0659533,8.620323,-1.638831
39,1436472360760,-3.518878,8.722675,-1.6059108
40,1436472360785,-3.3033998,8.901642,-1.6226702
41,1436472360802,-3.2992098,8.866327,-1.5574282
42,1436472360821,-3.3997664,8.820239,-1.5879543
43,1436472360845,-3.570952,8.9758625,-1.4850036
44,1436472360862,-3.8869865,8.918402,-1.7621324
45,1436472360880,-3.8061821,8.800487,-1.5227122
46,1436472360900,-3.7068229,8.5538845,-1.6555905
47,1436472360924,-3.6032736,8.522759,-1.5298948
48,1436472360945,-3.5643678,8.670602,-1.4999673
49,1436472360965,-3.630807,8.619126,-1.5370775
50,1436472360983,-3.7762547,8.635287,-1.5562311
51,1436472360999,-3.6092591,8.884883,-1.4616601
52,1436472361020,-3.2662897,9.115923,-1.6693572
53,1436472361042,-2.9628246,9.161413,-1.6472107
54,1436472361169,-2.818574,9.046491,-1.5580268
55,1436472361170,-2.938284,8.945336,-1.3916297
56,1436472361171,-3.2225955,9.0016,-1.5340848
57,1436472361172,-3.4123359,9.0476885,-1.5412674
58,1436472361173,-3.4171243,9.016563,-1.62686
59,1436472361174,-3.4087446,8.874707,-1.6633717
60,1436472361250,-3.4889505,8.59698,-1.6065093
61,1436472361251,-3.6349967,8.412027,-1.5514427
62,1436472361252,-4.0138793,8.45213,-1.5316905
63,1436472361253,-4.0677485,8.536526,-1.536479
64,1436472361269,-3.958214,8.805874,-1.5532384
65,1436472361285,-3.6367924,9.043498,-1.5077485
66,1436472361300,-3.2752678,9.0016,-1.6567876
67,1436472361320,-3.2237926,8.920795,-1.6256629
68,1436472361340,-3.2704794,8.842385,-1.6035166
69,1436472361360,-3.3357215,8.789713,-1.5699978
70,1436472361383,-3.2208,8.891466,-1.5233108
71,1436472361403,-3.164536,9.066243,-1.4891934
72,1436472361423,-3.0945058,9.057265,-1.5191209
73,1436472361443,-3.098097,8.981249,-1.6741456
74,1436472361465,-3.0484173,9.17099,-1.7190368
75,1436472361483,-4.0958805,8.470686,-2.0374656
76,1436472361503,-3.0131028,8.9519205,-0.3878607
77,1436472361523,-4.4298716,8.926183,-0.3890578
78,1436472361540,-4.084508,8.784326,-1.0109516
79,1436472361570,-3.767875,8.502409,-1.1779473
80,1436472361631,-3.3572693,8.631097,-1.6519991
81,1436472361632,-3.2106245,8.963891,-1.3940239
82,1436472361633,-3.58412,8.97287,-1.352724
83,1436472361651,-3.5523968,8.823831,-1.3437457
84,1436472361663,-3.5326445,8.74123,-1.1905168
85,1436472361705,-3.4883518,8.801684,-1.2360066
86,1436472361706,-3.4117374,8.863934,-1.0468647
87,1436472361721,-3.3369186,8.920197,-1.3377602
88,1436472361742,-3.3596635,8.921992,-1.2761095
89,1436472361761,-3.2680852,8.948928,-1.3455414
90,1436472361782,-3.1268275,9.077616,-1.1252748
91,1436472361802,-3.2375593,9.059659,-1.3497312
92,1436472361825,-3.6553473,8.893262,-1.5520413
93,1436472361842,-3.6421793,8.820239,-1.2186487
94,1436472361861,-3.7014358,8.686762,-1.3874398
95,1436472361881,-3.630807,8.652645,-1.3533225
96,1436472361904,-3.5284548,8.775348,-1.299453
97,1436472361924,-3.549404,8.945934,-1.5472529
98,1436472361944,-3.2980127,9.020155,-1.6879122
99,1436472361964,-3.4955344,8.900445,-1.1659763
100,1436472361982,-3.5380316,9.096769,-1.1935096
101,1436472362002,-3.8989575,9.069236,-1.4981717
102,1436472362023,-4.899135,8.819042,-1.0109516
103,1436472362042,-3.079542,8.16722,-1.1821371
104,1436472362144,-3.7511156,8.455123,-1.4431051
105,1436472362145,-3.2106245,9.300875,-1.1432313
106,1436472362146,-1.3748703,9.724648,-0.7858967
107,1436472362147,-2.1601684,9.075222,-1.5526398
108,1436472362148,-2.8401217,9.196129,-1.3389573
109,1436472362169,-3.5236664,8.985439,-1.0947487
110,1436472362230,-3.5703533,8.648455,-1.115698
111,1436472362231,-3.3812113,8.746018,-1.2593501
112,1436472362232,-3.2986114,8.96449,-1.2970588
113,1436472362243,-3.4081461,8.958505,-1.1354501
114,1436472362266,-3.2800562,8.99741,-1.0097545
115,1436472362282,-2.996942,9.083601,-1.0079589
116,1436472362303,-2.6360161,9.244612,-1.0265139
117,1436472362324,-2.208651,9.387665,-1.0049661
118,1436472362341,-2.6982653,9.115923,-1.0199299
119,1436472362364,-2.859874,9.012374,-1.0247183
120,1436472362383,-3.642778,8.943541,-1.0420763
121,1436472362403,-3.8594532,9.127894,-0.8571242
122,1436472362425,-3.3806129,9.076419,-0.93852705
123,1436472362445,-2.719813,9.19553,-1.050456
124,1436472362466,-2.2403743,9.114726,-1.0109516
125,1436472362485,-2.4355016,9.018359,-0.99658644
126,1436472362503,-2.7617116,8.878299,-0.8996213
127,1436472362522,-3.0292637,8.710106,-0.7697359
128,1436472362544,-2.6833014,8.851962,-0.8146271
129,1436472362562,-2.942474,8.96449,-0.94331545
130,1436472362581,-2.8389246,9.176975,-1.0660183
131,1436472362634,-2.3642743,9.153033,-1.1061212
132,1436472362645,-2.4510639,8.733449,-1.2078748
133,1436472362646,-2.926313,8.522759,-1.0019734
134,1436472362666,-3.29502,8.881291,-0.9427169
135,1436472362683,-3.4685998,9.182362,-0.7541735
136,1436472362716,-3.0945058,9.001001,-0.96785605
137,1436472362723,-2.8616695,8.692149,-1.4586674
138,1436472362742,-2.3942018,8.965687,-1.2808979
139,1436472362761,-2.202067,9.261371,-0.9151836
140,1436472362782,-2.5079262,8.905233,-1.1899183
141,1436472362805,-3.1627405,8.60117,-1.2497733
142,1436472362825,-3.6008794,8.850166,-1.003769
143,1436472362841,-3.6894648,8.926183,-0.9044097
144,1436472362867,-3.716998,9.122507,-0.89064306
145,1436472362886,-3.9845502,9.345766,-0.88405895
146,1436472362906,-4.150947,8.95611,-0.96306765
147,1436472362924,-4.0707417,9.142858,-0.9923966
148,1436472362944,-3.70383,9.122507,-0.919972
149,1436472362962,-3.3889925,8.8567505,-0.9498995
150,1436472362986,-3.2273839,8.655638,-1.0031705
151,1436472363008,-3.4320881,8.659827,-0.86011696
152,1436472363027,-3.9240966,9.25359,-0.94211835
153,1436472363043,-4.3580456,10.489596,-0.8110358
154,1436472363163,-3.6433764,9.782708,-0.8242039
155,1436472363164,-3.0011318,9.14226,-0.6404489
156,1436472363165,-3.0214825,9.836577,-0.98461545
157,1436472363166,-3.0442274,9.576208,-1.127669
158,1436472363189,-3.204639,9.217676,-1.043872
159,1436472363190,-3.4099417,9.072228,-0.6619968
160,1436472363191,-3.232771,9.7958765,-0.39025488
161,1436472363202,-3.4889505,9.412804,-0.65242
162,1436472363230,-3.544017,9.15842,-1.2306197
163,1436472363243,-2.7168205,7.5710645,-0.89902276
164,1436472363267,-2.9227216,7.4208283,-0.93732995
165,1436472363282,-3.241749,8.317456,-1.0241197
166,1436472363304,-3.8534677,8.93935,-0.96067345
167,1436472363322,-3.8977604,8.941146,-0.9876082
168,1436472363346,-3.696049,8.846576,-0.7422025
169,1436472363365,-3.654749,8.865729,-1.2228385
170,1436472363384,-4.582502,8.918402,-5.9543796
171,1436472363405,-3.4685998,8.783728,2.1823149
172,1436472363426,-2.6844985,9.140464,1.3844471
173,1436472363446,-3.108871,9.054273,-2.1278467
174,1436472363465,-3.6062663,9.239823,-1.0498575
175,1436472363486,-3.3087866,8.957906,-3.834314
176,1436472363505,-3.0783448,8.526351,0.99538934
177,1436472363525,-3.116652,8.731055,-0.81522566
178,1436472363544,-3.1148565,8.919599,-1.3988123
179,1436472363563,-2.4007857,9.297284,-0.97144735
180,1436472363586,-3.0184898,9.107543,-1.5155296
181,1436472363643,-3.5661635,8.881889,-1.4802152
182,1436472363644,-3.9252937,8.883087,-1.0265139
183,1436472363645,-3.857059,8.904634,-1.0654198
184,1436472363667,-3.4207156,8.93576,-1.3377602
185,1436472363714,-3.3213563,8.789713,-1.423353
186,1436472363715,-3.2842462,8.845378,-1.1258733
187,1436472363727,-3.2704794,9.117719,-0.9295488
188,1436472363747,-3.0615854,9.165603,-1.1049241
189,1436472363766,-2.9376855,9.006987,-1.2449849
190,1436472363784,-3.0532057,8.872313,-1.074398
191,1436472363805,-3.2740707,8.876503,-1.270124
192,1436472363825,-3.3482912,8.8884735,-0.83138657
193,1436472363842,-3.4326868,8.905233,-1.0151415
194,1436472363863,-3.3674448,9.099164,-0.9516952
195,1436472363883,-3.052607,9.141661,-1.3503298
196,1436472363908,-2.7952304,9.072827,-1.5610195
197,1436472363928,-2.77069,9.081805,-1.1408371
198,1436472363945,-3.1519666,8.963293,-1.3150153
199,1436472363966,-3.3225534,9.0081835,-1.2557588
200,1436472363983,-3.4919431,9.029133,-1.2898762
201,1436472364004,-3.426701,8.924387,-1.2413936
202,1436472364024,-3.4997244,8.727464,-1.5526398
203,1436472364047,-3.3961751,8.867524,-1.2132617
204,1436472364153,-3.4117374,8.999206,-1.2054806
205,1436472364154,-3.3464954,9.097966,-1.0827777
206,1436472364164,-3.1681273,8.974067,-1.2611457
207,1436472364165,-2.9370868,8.955511,-1.2084733
208,1436472364166,-2.779668,8.966286,-0.8355764
209,1436472364167,-3.0005333,9.0429,-1.1941081
210,1436472364196,-3.2184057,8.994417,-1.3497312
211,1436472364204,-3.4500446,9.029133,-1.1198878
212,1436472364231,-3.4757824,8.951322,-1.252766
213,1436472364244,-3.2249897,8.905233,-1.3563153
214,1436472364264,-3.293823,8.991425,-1.1097125
215,1436472364286,-3.2746694,9.128492,-0.9744401
216,1436472364303,-3.3865983,8.990826,-1.0085574
217,1436472364326,-3.3315318,8.9124155,-1.0630256
218,1436472364343,-3.2231941,8.895657,-0.99898064
219,1436472364364,-3.232771,8.889072,-1.0977415
220,1436472364384,-3.1950622,8.907627,-1.1767502
221,1436472364409,-3.3033998,8.990826,-1.1234791
222,1436472364426,-3.2632968,9.042301,-1.009156
223,1436472364446,-3.2279825,8.99741,-1.1971009
224,1436472364466,-3.116652,8.998607,-1.127669
225,1436472364483,-3.180697,8.934562,-1.2066777
226,1436472364560,-3.2902317,8.965088,-1.1552023
227,1436472364561,-3.3692403,8.981848,-1.1540052
228,1436472364562,-3.417723,8.941745,-1.1899183
229,1436472364565,-3.2501287,8.971672,-1.0941502
230,1436472364590,-3.1932666,9.000402,-1.0576386
231,1436472364648,-3.2231941,9.0315275,-1.0684125
232,1436472364649,-3.4021606,8.914211,-1.2150574
233,1436472364650,-3.436278,8.914211,-1.122282
234,1436472364670,-3.2519245,8.88608,-1.0696096
235,1436472364692,-3.2603042,8.946533,-1.1994951
236,1436472364705,-3.2674868,9.030331,-1.1204864
237,1436472364723,-3.3512838,8.973468,-1.2144588
238,1436472364749,-3.3925838,8.889671,-1.2186487
239,1436472364769,-3.37762,8.87351,-1.1976994
240,1436472364784,-3.3812113,8.90643,-1.0887632
241,1436472364810,-3.4674027,8.975264,-1.0241197
242,1436472364825,-3.54282,8.982447,-1.1162965
243,1436472364845,-3.6152446,8.933964,-1.2258313
244,1436472364865,-3.5954924,8.848371,-1.1785458
245,1436472364884,-3.426701,8.959103,-1.002572
246,1436472364903,-3.330933,8.93576,-1.0714053
247,1436472364924,-3.2363622,8.91062,-0.8900445
248,1436472364949,-3.2160115,8.982447,-1.1575965
249,1436472364970,-3.245939,9.053075,-1.1414356
250,1436472364990,-3.333926,8.897452,-1.2844892
251,1436472365007,-3.3734303,8.926183,-1.22224
252,1436472365024,-3.4883518,8.994417,-1.0289081
253,1436472365044,-3.2740707,8.9279785,-1.0869676
254,1436472365064,-3.3081882,8.901642,-1.4425066
255,1436472365158,-3.2345665,8.86932,-1.0726024
256,1436472365159,-3.2363622,8.895657,-0.878672
257,1436472365160,-3.3081882,8.942344,-1.0749966
258,1436472365161,-3.333926,9.044097,-1.1013328
259,1436472365208,-3.4332852,8.966884,-1.2563573
260,1436472365209,-3.4512417,8.773552,-1.3030443
261,1436472365210,-3.6661212,8.735844,-0.9223662
262,1436472365224,-3.413533,8.852561,-0.9888053
263,1436472365250,-2.7210102,9.232041,-1.0947487
264,1436472365265,-3.25372,9.118916,-1.1510124
265,1436472365291,-3.8600516,8.763377,-0.830788
266,1436472365306,-3.930082,8.593987,-0.6147113
267,1436472365325,-3.9384618,8.549096,-0.4782418
268,1436472365347,-3.6092591,8.836999,-0.89064306
269,1436472365365,-3.5607765,8.916606,-0.96306765
270,1436472365384,-3.6858735,8.863934,-0.46208093
271,1436472365404,-3.493739,8.820838,-0.46866497
272,1436472365429,-3.168726,9.008782,-0.8738836
273,1436472365450,-2.902371,9.28232,-0.96665895
274,1436472365470,-3.3375173,8.859145,-1.4221559
275,1436472365487,-3.2722752,9.120711,-1.3305776
276,1436472365504,-3.0825348,9.289502,-1.0013748
277,1436472365524,-3.3375173,8.875306,-1.0031705
278,1436472365544,-3.1370027,8.837597,-1.198298
279,1436472365565,-3.6260185,8.639477,-1.2545617
280,1436472365584,-3.1304188,9.160215,-1.1366472
281,1436472365630,-3.3411086,9.122507,-1.002572
282,1436472365631,-3.4733882,8.875904,-1.271321
283,1436472365649,-3.1866825,8.954913,-1.1797429
284,1436472365665,-3.4231098,8.859145,-1.1629834
285,1436472365685,-3.329736,8.895058,-1.1270704
286,1436472365704,-3.5476084,8.834604,-1.2617443
287,1436472365725,-3.2016463,9.037513,-1.3162124
288,1436472365745,-3.572149,8.863335,-1.0265139
289,1436472365765,-3.2010477,9.029133,-1.1869255
290,1436472365786,-2.9041667,9.128492,-1.2922704
291,1436472365805,-3.6601357,8.68796,-1.1821371
292,1436472365826,-2.847903,9.141062,-1.2916719
293,1436472365844,-3.3273418,8.947132,-1.1845313
294,1436472365870,-3.5452142,8.871116,-1.2880806
295,1436472365886,-3.5637693,8.944139,-1.2042835
296,1436472365906,-3.38181,8.823232,-1.0971429
297,1436472365926,-3.1603463,8.875904,-1.3239936
298,1436472365947,-2.9514523,9.124303,-1.395221
299,1436472365967,-2.9909565,9.124901,-1.2443863
300,1436472365986,-3.0974984,8.9998045,-1.1150994
301,1436472366007,-3.0579941,8.874108,-1.1617863
302,1436472366027,-3.1136594,8.796896,-1.1713632
303,1436472366046,-3.3315318,9.045294,-1.2234371
304,1436472366072,-3.3704374,9.271546,-1.2090719
305,1436472366147,-3.3381157,9.217078,-1.2443863
306,1436472366148,-3.3201592,9.152434,-1.1731589
307,1436472366149,-3.2369606,8.845378,-1.103727
308,1436472366150,-3.3494883,9.045893,-1.1821371
309,1436472366196,-3.5093012,8.376115,-1.1049241
310,1436472366197,-4.033033,8.787319,-1.1492168
311,1436472366206,-5.762245,8.447941,-0.99898064
312,1436472366234,-6.172252,8.180388,-0.11252748
313,1436472366245,1.3910311,9.531916,-0.16699557
314,1436472366266,-3.004723,8.686762,-4.0934863
315,1436472366286,-2.9586349,9.393052,-1.3239936
316,1436472366306,-3.205836,8.775947,-0.99538934
317,1436472366326,-3.482965,8.704719,-1.650802
318,1436472366346,-3.5763388,8.762778,-1.5179238
319,1436472366368,-3.6248214,8.965687,-1.1540052
320,1436472366387,-2.6461914,9.056666,-1.4574703
321,1436472366408,-2.9921536,9.446322,-1.1246762
322,1436472366426,-3.453636,8.929175,-0.95588505
323,1436472366447,-3.614646,8.713099,-1.4323312
324,1436472366468,-3.0346506,9.023148,0.24660277
325,1436472366487,-3.2974143,9.145252,0.32022446
326,1436472366508,-3.912724,8.631097,-2.9550436
327,1436472366525,-2.7850552,9.081805,-0.28491
328,1436472366546,-2.9945478,9.052477,-0.2837129
329,1436472366566,-3.3812113,8.982447,-2.336741
330,1436472366586,-3.2441432,8.895657,-1.560421
331,1436472366679,-3.2704794,8.987235,-0.5434838
332,1436472366680,-3.4674027,8.9842415,-1.4287399
333,1436472366681,-3.2076318,9.043498,-1.2725182
334,1436472366682,-3.1495724,8.945934,-1.0169371
335,1436472366706,-3.2172086,8.911219,-1.1899183
336,1436472366707,-3.4165258,8.84478,-1.299453
337,1436472366742,-3.5284548,8.872911,-1.2521675
338,1436472366748,-3.4997244,8.941146,-1.1546037
339,1436472366765,-3.7086184,8.921394,-1.4652514
340,1436472366785,-3.4051533,8.872313,-1.2593501
341,1436472366805,-3.292626,8.978256,-1.1653777
342,1436472366825,-3.1184478,8.9758625,-1.0001777
343,1436472366849,-2.7659016,9.020754,-0.99538934
344,1436472366867,-3.435081,8.726865,-1.8842367
345,1436472366887,-3.66253,8.856153,-1.3120226
346,1436472366907,-3.6709096,8.889671,-0.9564836
347,1436472366933,-3.2782607,8.980651,-1.3706805
348,1436472366947,-3.0310593,9.042301,-1.1085154
349,1436472366968,-3.086126,9.057265,-1.1127052
350,1436472366987,-3.091513,9.0016,-1.0600328
351,1436472367006,-3.2004492,8.966286,-1.2389994
352,1436472367027,-3.1465795,9.0476885,-1.1204864
353,1436472367048,-3.039439,9.028535,-1.1707647
354,1436472367069,-3.1453824,8.90643,-1.4065934
355,1436472367157,-3.232771,8.975264,-1.1049241
356,1436472367158,-3.3842041,8.896853,-1.3012487
357,1436472367159,-3.4356794,8.883087,-1.2294226
358,1436472367160,-3.288436,9.059659,-1.1264719
359,1436472367196,-3.2369606,9.003994,-1.2054806
360,1436472367197,-3.2387564,8.951322,-1.1905168
361,1436472367206,-3.280655,9.002797,-1.1360487
362,1436472367231,-3.2890346,9.002797,-1.2336124
363,1436472367247,-3.2225955,8.988432,-1.271321
364,1436472367270,-3.0250738,9.113529,-0.98700964
365,1436472367288,-2.8550856,9.124901,-0.96067345
366,1436472367309,-3.0029275,9.1668,-1.3455414
367,1436472367329,-3.1693244,8.963293,-1.6555905
368,1436472367346,-3.3626564,8.594585,-1.2348095
369,1436472367366,-3.544017,8.74542,-0.88765025
370,1436472367386,-3.4129345,9.03452,-0.82240826
371,1436472367409,-3.163339,9.026739,-1.1845313
372,1436472367432,-3.0591912,9.048286,-1.1402385
373,1436472367446,-3.2016463,9.002198,-1.2114661
374,1436472367468,-3.3889925,8.942942,-1.2431892
375,1436472367486,-3.554791,8.884284,-1.271321
376,1436472367506,-3.4889505,8.878299,-0.99898064
377,1436472367526,-3.2746694,8.857349,-1.0049661
378,1436472367547,-3.3039982,9.045294,-1.0259154
379,1436472367567,-3.3261447,9.053075,-1.122282
380,1436472367610,-3.2680852,8.950125,-1.1468226
381,1436472367619,-3.304597,8.950125,-1.2108675
382,1436472367639,-3.3997664,8.887277,-1.0672154
383,1436472367653,-3.3955765,8.919599,-1.1665748
384,1436472367692,-3.2866404,8.962095,-1.1025299
385,1436472367693,-3.1609447,9.081207,-1.1629834
386,1436472367707,-3.0262709,9.1272955,-1.2431892
387,1436472367730,-3.0083144,9.020754,-1.3060371
388,1436472367757,-3.0693667,9.057863,-1.2970588
389,1436472367773,-3.1741128,9.023148,-1.2587515
390,1436472367789,-3.1352072,9.007586,-1.1965023
391,1436472367815,-3.1992521,8.971074,-1.2186487
392,1436472367827,-3.2411506,8.881889,-1.2000936
393,1436472367852,-3.317765,8.841188,-1.1839328
394,1436472367867,-3.457826,8.860941,-1.1354501
395,1436472367886,-3.447052,8.895657,-1.1755531
396,1436472367906,-3.4302924,8.896853,-1.1839328
397,1436472367926,-3.4452562,8.852561,-1.1534066
398,1436472367953,-3.4237084,8.90643,-1.0648212
399,1436472367968,-3.4219127,8.953716,-1.079785
400,1436472367987,-3.3854012,8.972271,-1.079785
401,1436472368007,-3.3746274,8.92738,-1.1162965
402,1436472368031,-3.3566709,8.911219,-1.1683705
403,1436472368120,-3.3614593,8.907627,-1.1947067
404,1436472368121,-3.4021606,8.932767,-1.1917139
405,1436472368149,-3.4398694,8.95611,-1.1438298
406,1436472368150,-3.4249055,8.969278,-1.0977415
407,1436472368151,-3.4009635,9.003994,-1.0905589
408,1436472368152,-3.3752258,8.867524,-1.103727
409,1436472368170,-3.2279825,8.948928,-1.1659763
410,1436472368202,-3.293823,8.974067,-1.2425907
411,1436472368207,-3.164536,8.947132,-1.1587936
412,1436472368230,-3.2249897,8.985439,-1.1701661
413,1436472368252,-3.232771,8.97287,-1.2521675
