id,attr_time,attr_x,attr_y,attr_z
1,1436472360001,1.1085154,9.852738,1.7956513
2,1436472360020,1.2054806,9.929952,1.7435774
3,1436472360040,1.2623428,10.1699705,1.6310499
4,1436472360063,1.151611,10.011354,1.8489223
5,1436472360079,1.2360066,9.788693,2.1493945
6,1436472360105,1.4694413,9.788095,2.417545
7,1436472360120,1.6226702,9.826403,2.4420857
8,1436472360140,1.7202339,9.892242,2.3732524
9,1436472360161,1.5454572,9.744401,2.4582467
10,1436472360181,1.3467385,9.715072,2.5312698
11,1436472360201,1.1815386,9.691729,2.520496
12,1436472360221,0.9552865,9.815628,2.4612393
13,1436472360241,0.8774749,9.932944,2.356493
14,1436472360263,0.89184016,9.634268,2.1859062
15,1436472360279,1.0235212,9.51336,1.9955671
16,1436472360301,1.2970588,9.76116,2.022502
17,1436472360319,1.3892355,9.927557,2.1529858
18,1436472360339,1.496376,10.019734,2.0386627
19,1436472360358,1.882441,9.668385,1.9740193
20,1436472360382,2.1290438,9.498995,2.0518308
21,1436472360403,2.1811178,9.606734,2.1990743
22,1436472360422,2.2816741,9.883265,2.5127146
23,1436472360439,2.3133974,9.792285,2.9191303
24,1436472360460,2.2493525,9.484032,3.0400376
25,1436472360479,2.203264,9.434352,2.707842
26,1436472360500,1.9686323,9.687539,2.2002714
27,1436472360519,1.6675615,9.958083,2.0093338
28,1436472360604,1.7351977,10.080188,2.1691468
29,1436472360605,2.142212,9.880871,2.3331497
30,1436472360606,2.508525,9.564836,2.3971944
31,1436472360607,2.6970682,9.660604,2.4588451
32,1436472360618,2.5941176,9.954493,2.606687
33,1436472360641,2.0733786,9.883265,2.7030537
34,1436472360658,1.5711949,9.654618,2.6791117
35,1436472360679,1.3144168,9.4535055,2.260725
36,1436472360701,1.1486182,9.454104,1.774702
37,1436472360721,0.90859956,9.940725,1.6358383
38,1436472360741,0.4417302,10.090961,1.8914193
39,1436472360760,0.32142156,9.912594,2.1362264
40,1436472360782,0.581791,9.889849,2.03148
41,1436472360802,1.0127473,10.04607,1.6142905
42,1436472360822,1.5149311,10.522516,1.3239936
43,1436472360842,2.3277626,10.964247,1.6364368
44,1436472360862,3.003526,10.4644575,2.8496985
45,1436472360881,3.1908724,9.79827,3.928885
46,1436472360902,2.7641058,9.456498,3.642778
47,1436472360923,1.5969325,9.710882,2.5803509
48,1436472360964,0.21428105,9.816826,1.6627731
49,1436472360965,-0.7679402,9.822811,1.2354081
50,1436472360999,-0.9115923,9.790489,1.3880384
51,1436472361000,-0.38486794,9.718064,1.7513585
52,1436472361019,0.08559271,9.746197,1.8764555
53,1436472361039,0.43035775,10.245986,1.899799
54,1436472361060,1.1240777,11.104307,1.5927427
55,1436472361080,2.1080947,10.820595,1.9596541
56,1436472361100,2.5773582,10.697293,2.3373394
57,1436472361119,3.2770636,10.33936,3.0250738
58,1436472361149,3.0657754,9.704298,3.5523968
59,1436472361160,2.3439236,9.473258,3.364452
60,1436472361179,1.4838065,9.504981,2.7563248
61,1436472361203,0.7404069,9.604341,2.1637597
62,1436472361221,0.2705448,9.61272,1.8459295
63,1436472361441,0.18914193,9.572019,1.8968062
64,1436472361442,0.39743748,9.542689,2.0626047
65,1436472361443,0.57640404,9.405023,2.1877017
66,1436472361444,0.7230489,9.606135,2.2427685
67,1436472361445,0.7966706,9.929952,2.1613655
68,1436472361446,0.7661445,10.237606,2.1571758
69,1436472361447,0.7649474,10.2495775,2.0817583
70,1436472361448,0.86370826,10.032902,2.202067
71,1436472361449,0.9696517,9.811439,2.2499511
72,1436472361450,1.228824,9.5732155,2.15538
73,1436472361451,1.6041151,9.711481,1.9656396
74,1436472361459,1.893215,9.979631,1.9446903
75,1436472361479,1.9057846,9.975441,2.211644
76,1436472361501,1.9913772,9.845556,2.618658
77,1436472361523,1.9572599,9.627684,2.5941176
78,1436472361541,1.7723078,9.568427,2.472612
79,1436472361560,1.8255788,9.917382,2.4133554
80,1436472361582,1.8381484,10.216658,2.2930467
81,1436472361603,1.555034,10.287286,2.3062148
82,1436472361623,1.4095862,10.53329,2.3762453
83,1436472361643,1.4790181,10.307637,2.4025815
84,1436472361663,1.6986861,9.890448,2.355296
85,1436472361683,1.9381063,9.727043,2.2505496
86,1436472361699,2.0207062,9.654618,2.1547816
87,1436472361723,1.9213469,9.796474,2.006341
88,1436472361742,1.7016789,9.988011,1.7657237
89,1436472361761,1.4185646,10.007763,1.6980876
90,1436472361781,1.3156139,9.809045,1.7304093
91,1436472361800,1.2982559,9.687539,1.7561469
92,1436472361820,1.2497733,9.507375,1.917157
93,1436472361841,1.3557167,9.624691,1.9596541
94,1436472361860,1.4694413,9.768343,2.0446482
95,1436472361882,1.483208,9.815628,2.1308396
96,1436472361903,1.5502456,9.824607,2.1643584
97,1436472361922,1.6573862,9.794081,2.0721815
98,1436472361942,1.6567876,9.796474,1.9656396
99,1436472361966,1.690905,9.9951935,2.0721815
100,1436472362049,1.6621746,9.97185,2.2888567
101,1436472362050,1.204882,9.762956,2.071583
102,1436472362051,0.7751228,9.903615,1.555034
103,1436472362053,0.51954174,9.950302,1.4784195
104,1436472362064,0.78769237,9.745,2.1003134
105,1436472362104,1.3389573,9.519346,2.2026656
106,1436472362105,1.7357962,9.48882,2.0254946
107,1436472362120,2.0242975,9.916783,1.7609353
108,1436472362160,2.195483,10.516531,1.4784195
109,1436472362161,2.2774844,10.611102,1.7429788
110,1436472362180,2.4319103,10.159196,2.2529438
111,1436472362206,2.6222494,9.90601,2.3600843
112,1436472362224,2.3906105,9.803059,2.0488381
113,1436472362241,1.8986019,9.843162,1.8189948
114,1436472362263,1.441908,9.870096,1.7106571
115,1436472362281,1.0923545,9.812635,1.7483658
116,1436472362303,0.91338795,9.850943,1.6783354
117,1436472362323,1.0408791,10.170568,1.4706384
118,1436472362343,1.2802993,10.369886,1.4275428
119,1436472362363,1.4227544,10.142437,1.7298107
120,1436472362381,1.6663644,10.020931,1.9452889
121,1436472362403,1.8142064,10.070012,2.0428526
122,1436472362423,1.7770962,10.095152,2.086547
123,1436472362443,1.8794483,10.105926,1.9883845
124,1436472362461,1.9871874,10.028712,1.9087774
125,1436472362480,1.9273324,9.931149,1.9231426
126,1436472362500,1.8136078,9.835381,1.9644425
127,1436472362520,1.5987282,9.703101,1.9063832
128,1436472362545,1.4957775,9.738416,1.6376339
129,1436472362564,1.3736732,9.719262,1.5071499
130,1436472362582,1.3180081,9.818622,1.3557167
131,1436472362604,1.3126211,9.946113,1.1725603
132,1436472362624,1.2779051,10.025121,1.2868834
133,1436472362644,1.2934675,10.09575,1.2844892
134,1436472362662,1.1857284,10.144233,1.3443443
135,1436472362682,0.6428431,10.484808,1.4257472
136,1436472362702,-0.08259996,10.606912,1.448492
137,1436472362723,-0.42317516,10.19451,1.158195
138,1436472362749,0.19393034,9.827001,0.7236475
139,1436472362813,1.1569979,10.015544,0.79726917
140,1436472362814,1.7842789,10.217256,1.417966
141,1436472362815,2.0566192,10.06283,1.9847932
142,1436472362821,2.110489,9.887454,1.6927006
143,1436472362849,2.112883,9.782708,1.091756
144,1436472362883,1.8130093,9.980229,0.7344214
145,1436472362884,1.4820108,9.9233675,0.7727286
146,1436472362904,1.400608,9.996989,0.8475474
147,1436472362921,1.5167267,10.096349,1.0618285
148,1436472362941,1.6184803,10.138845,1.0815806
149,1436472362963,1.6238673,10.089765,1.0241197
150,1436472362982,1.6142905,10.0825815,1.0803835
151,1436472363001,1.5897499,10.135254,1.3970166
152,1436472363021,1.2114661,10.3453455,1.4065934
153,1436472363042,0.80684596,10.810419,1.1019313
154,1436472363064,0.29987377,10.92175,0.8762778
155,1436472363081,0.1352724,10.3453455,1.1198878
156,1436472363104,0.59615624,10.096349,1.3652935
157,1436472363121,1.0755951,10.046669,1.4341269
158,1436472363143,1.3700819,10.023325,1.2982559
159,1436472363162,1.496376,10.155006,0.9403227
160,1436472363184,1.2617443,10.109517,0.56982
161,1436472363203,1.0420763,10.065224,0.5506664
162,1436472363223,0.62847793,10.254965,0.6374562
163,1436472363244,0.3561375,10.395025,0.8726865
164,1436472363262,0.34356794,10.35193,1.0552444
165,1436472363284,0.3274071,10.128671,1.2389994
166,1436472363303,0.3357868,9.895834,1.4478935
167,1436472363324,0.2801216,9.949704,1.5436616
168,1436472363344,0.11492168,10.0987425,1.5412674
169,1436472363366,-0.17298107,10.126276,1.5304934
170,1436472363384,-0.28670564,10.037092,1.5191209
171,1436472363402,-0.19692309,9.98442,1.6490064
172,1436472363422,-0.18854338,9.800665,1.5065514
173,1436472363443,-0.32202014,9.797073,1.5292963
174,1436472363462,-0.2825158,10.006566,1.6226702
175,1436472363532,-0.17118542,10.047866,1.8064252
176,1436472363533,0.01436521,10.10413,1.9123687
177,1436472363548,0.0796072,10.059837,1.7226281
178,1436472363549,0.055066638,10.092158,1.4431051
179,1436472363561,0.019752163,10.067618,1.3138182
180,1436472363584,0.046686932,9.956287,1.2593501
181,1436472363610,0.17298107,9.895834,1.3509283
182,1436472363621,0.3453636,9.932944,1.5089456
183,1436472363641,0.36272156,9.966463,1.5227122
184,1436472363661,0.20171149,10.032304,1.5610195
185,1436472363683,-0.030526072,10.088568,1.6334441
186,1436472363702,-0.30705637,10.111911,1.6232687
187,1436472363723,-0.59495914,10.169372,1.4987702
188,1436472363745,-0.9211691,10.238205,1.3521254
189,1436472363762,-1.1833342,10.20289,1.2264298
190,1436472363785,-1.2844892,10.1544075,1.1318588
191,1436472363802,-1.2485762,10.195109,1.0785879
192,1436472363822,-1.0929531,10.189722,1.0420763
193,1436472363846,-0.94092125,10.125677,1.1049241
194,1436472363864,-0.58538234,10.101735,1.407192
195,1436472363884,-0.15322891,10.05864,1.5071499
196,1436472363906,-0.11192893,10.172963,1.4191631
197,1436472363924,-0.25438392,10.209475,1.3844471
198,1436472363944,-0.58538234,10.228628,1.2910733
199,1436472363963,-0.84216046,10.260351,1.134253
200,1436472363984,-1.0348936,10.076596,0.9648633
201,1436472364005,-1.0265139,9.896433,0.9983821
202,1436472364024,-0.80445176,9.846753,1.0109516
203,1436472364045,-0.53091425,9.961076,1.0600328
204,1436472364064,-0.30585927,10.059238,1.0923545
205,1436472364086,-0.16819267,10.086173,1.2844892
206,1436472364116,-0.090979666,10.217256,1.3688848
207,1436472364125,-0.14544775,10.241198,1.2976574
208,1436472364146,-0.33758244,10.177752,1.2042835
209,1436472364163,-0.39624038,10.286089,1.2042835
210,1436472364184,-0.4165911,10.301651,1.1599907
211,1436472364205,-0.33997664,10.226832,1.134253
212,1436472364224,-0.320823,10.226832,1.1833342
213,1436472364296,-0.27234045,10.391434,1.2814964
214,1436472364297,-0.26396075,10.423756,1.2659341
215,1436472364298,-0.4381389,10.318411,1.2982559
216,1436472364304,-0.5315128,10.26095,1.3838485
217,1436472364331,-0.5267244,10.168175,1.3210008
218,1436472364343,-0.46567222,9.986814,1.2892777
219,1436472364362,-0.3405752,9.919178,1.3605051
220,1436472364385,-0.20111294,10.08737,1.42455
221,1436472364403,-0.18315643,10.201095,1.30484
222,1436472364424,-0.29328972,10.246585,1.1851299
223,1436472364443,-0.4213795,10.198102,1.1647792
224,1436472364466,-0.4417302,10.002377,1.2731167
225,1436472364483,-0.30585927,9.929353,1.3587095
226,1436472364506,-0.3645172,9.986814,1.3491327
227,1436472364525,-0.45609543,10.127473,1.3018472
228,1436472364546,-0.49559975,10.163386,1.2384008
229,1436472364565,-0.32022446,10.128671,1.2162545
230,1436472364585,-0.19692309,10.041881,1.1432313
231,1436472364606,-0.18614918,10.007763,1.198298
232,1436472364625,-0.19512744,10.073604,1.2641385
233,1436472364646,-0.23582886,10.222643,1.3006501
234,1436472364665,-0.32441434,10.199898,1.340753
235,1436472364683,-0.3549404,10.099341,1.2880806
236,1436472364706,-0.41479546,9.980229,1.1414356
237,1436472364723,-0.47465047,10.061633,1.1851299
238,1436472364745,-0.4417302,10.247782,1.252766
239,1436472364763,-0.44592008,10.310031,1.1827357
240,1436472364785,-0.44771573,10.396222,1.163582
241,1436472364807,-0.46327803,10.320207,1.276708
242,1436472364825,-0.5105635,10.172364,1.5125369
243,1436472364867,-0.49320555,10.143036,1.5239093
244,1436472364868,-0.7529764,10.253169,1.3826514
245,1436472364882,-1.5101427,9.99639,0.62608373
246,1436472364903,-1.2366052,9.818622,0.219668
247,1436472364923,-0.55365914,9.560646,0.65182143
248,1436472364943,-0.0035913025,9.680356,1.5280992
249,1436472364983,0.55844754,9.919776,2.043451
250,1436472364984,0.7332243,10.248979,2.0404584
251,1436472365003,0.40641573,10.353725,1.7956513
252,1436472365023,0.035913024,10.518925,1.3000516
253,1436472365048,-0.35075054,10.631453,1.0205284
254,1436472365065,-0.7757214,10.404003,0.9271546
255,1436472365084,-0.6961141,10.195109,0.9959879
256,1436472365103,-0.3333926,10.128671,1.2683283
257,1436472365124,-0.1448492,10.059837,1.3850456
258,1436472365144,0.061052144,10.237008,1.2395979
259,1436472365164,0.30346507,10.538078,1.1216835
260,1436472365191,0.31902736,10.465654,1.3569138
261,1436472365210,0.41060558,10.272921,1.4227544
262,1436472365224,0.62967503,10.108918,1.5616181
263,1436472365246,0.6991069,9.987412,1.6262615
264,1436472365267,0.44592008,9.9550905,1.5747862
265,1436472365286,0.36631286,10.033501,1.5879543
266,1436472365306,0.415394,10.046669,1.8064252
267,1436472365327,0.41958386,10.053851,1.7986441
268,1436472365346,0.40521863,10.061034,1.7280151
269,1436472365367,0.37588966,10.190321,1.6112977
270,1436472365387,0.1328782,10.397419,1.353921
271,1436472365406,0.2669535,10.324396,1.146224
272,1436472365428,0.6314707,10.21965,1.42455
273,1436472365443,0.997185,10.157401,1.7567455
274,1436472365467,1.2551602,10.036493,1.95307
275,1436472365486,1.3904326,10.094553,2.123657
276,1436472365506,1.2228385,10.06283,2.1068976
277,1436472365527,0.9068039,9.958083,2.0015526
278,1436472365546,0.8750807,10.089166,1.8788497
279,1436472365567,1.0378864,10.175956,1.8423382
280,1436472365586,1.2096704,10.077195,2.0141222
281,1436472365607,1.2354081,9.924564,2.2900538
282,1436472365627,1.2072762,9.824008,2.3409307
283,1436472365647,1.4317327,9.853935,2.3014264
284,1436472365668,1.666963,10.027515,2.2762873
285,1436472365688,1.7615339,9.952098,2.3708582
286,1436472365710,1.6879122,9.751583,2.4732103
287,1436472365775,1.9135658,9.675568,2.3648727
288,1436472365776,2.3020248,9.454104,2.1823149
289,1436472365777,2.5863364,9.279327,2.1996727
290,1436472365783,2.6437972,9.267955,2.2403743
291,1436472365804,2.7569232,9.278131,2.208651
292,1436472365827,3.003526,9.182362,2.3768437
293,1436472365843,2.9735985,8.9842415,2.4007857
294,1436472365866,3.0304608,9.34038,2.3451207
295,1436472365883,3.0352492,9.727641,2.4199393
296,1436472365909,2.6120741,9.79827,2.5881321
297,1436472365924,2.12246,9.386468,2.5671828
298,1436472365947,1.8058267,9.317635,2.1254525
299,1436472365964,1.6196774,9.510367,1.8974048
300,1436472365987,1.4766239,9.32362,1.9452889
301,1436472366007,1.46585,8.972271,1.9123687
302,1436472366027,1.9189527,9.238626,1.7992426
303,1436472366050,2.203264,9.522339,1.939902
304,1436472366066,2.5605986,10.101137,2.3810337
305,1436472366087,2.8419175,10.5841675,2.9179332
306,1436472366105,2.8149827,10.40939,3.2273839
307,1436472366127,2.6312277,10.090961,2.959832
308,1436472366150,2.4642322,9.774927,2.509722
309,1436472366166,2.1691468,9.510367,2.12246
310,1436472366187,2.1272483,9.693524,2.0979192
311,1436472366208,2.349909,10.012551,2.3828292
312,1436472366228,2.291251,10.283096,2.7389667
313,1436472366247,1.6041151,10.128072,2.9017725
314,1436472366267,0.7529764,9.606734,2.7808652
315,1436472366286,0.41718966,9.44333,2.5372553
316,1436472366308,0.36511576,9.582792,2.107496
317,1436472366327,0.18854338,9.721058,1.5095441
318,1436472366349,-0.044891283,9.680955,1.1246762
319,1436472366368,0.17357962,9.683349,1.2060791
320,1436472366388,0.86011696,9.774328,1.5215151
321,1436472366408,1.4167689,9.966463,2.0871453
322,1436472366426,1.8626889,10.210671,2.6282349
323,1436472366498,1.8471266,10.244789,3.0352492
324,1436472366499,1.4077905,10.068815,2.9759927
325,1436472366500,0.736217,9.847352,2.4899697
326,1436472366509,0.09636662,9.934141,2.0374656
327,1436472366524,-0.44532153,10.149619,1.6519991
328,1436472366548,-0.96905315,10.185533,1.4802152
329,1436472366564,-1.1210849,10.1304655,1.7082629
330,1436472366590,-0.7236475,10.183139,1.9985598
331,1436472366607,-0.36391866,10.129269,2.0614076
332,1436472366628,-0.17417817,9.978435,2.0380642
333,1436472366646,-0.059855044,9.942521,1.9794062
334,1436472366666,0.017956512,10.019135,1.8513165
335,1436472366688,0.090381116,10.062231,1.809418
336,1436472366708,0.065242,10.208278,1.8950106
337,1436472366728,-0.16879122,10.2657385,1.934515
338,1436472366748,-0.31004912,10.19451,1.9955671
339,1436472366769,-0.46088383,10.126875,2.1218612
340,1436472366786,-0.4997896,10.241198,2.2403743
341,1436472366805,-0.4405331,10.1861315,2.1990743
342,1436472366825,-0.31902736,10.084377,1.7537527
343,1436472366845,-0.3405752,10.045472,1.3916297
344,1436472366865,-0.39923313,10.099341,1.3245921
345,1436472366899,-0.40342298,9.877279,1.3174095
346,1436472366910,-0.19273324,10.108319,1.6124948
347,1436472366926,-0.25977087,10.210073,1.7381904
348,1436472367002,-0.56084174,10.05864,1.614889
349,1436472367003,-0.91697925,9.883863,1.4850036
350,1436472367004,-1.0588357,9.877279,1.4155718
351,1436472367005,-1.0205284,9.98442,1.3227965
352,1436472367025,-0.91937345,10.067618,1.4107834
353,1436472367052,-0.7541735,10.143634,1.6160861
354,1436472367072,-0.58418524,10.2406,1.7280151
355,1436472367088,-0.4357447,10.231621,1.7088615
356,1436472367113,-0.41180268,10.235212,1.650802
357,1436472367128,-0.45549688,10.257957,1.6178818
358,1436472367148,-0.3705027,10.237008,1.7172412
359,1436472367169,-0.19273324,10.196905,1.7004818
360,1436472367225,-0.17058687,10.110714,1.555034
361,1436472367228,-0.19752164,10.09994,1.4197617
362,1436472367229,-0.28191724,10.2495775,1.3485341
363,1436472367247,-0.43514615,10.330381,1.3269863
364,1436472367266,-0.6147113,10.255563,1.377863
365,1436472367284,-0.7697359,10.065224,1.4101849
366,1436472367305,-0.8571242,9.763555,1.3569138
367,1436472367326,-0.81163436,9.610326,1.3497312
368,1436472367346,-0.59495914,9.782109,1.4311341
369,1436472367364,-0.2693477,10.128671,1.4514848
370,1436472367386,-0.17956513,10.315418,1.3700819
371,1436472367408,-0.25977087,10.238205,1.3138182
372,1436472367428,-0.38726214,10.14124,1.2126632
373,1436472367446,-0.4285621,10.073604,1.1617863
374,1436472367468,-0.35075054,9.940127,1.2976574
375,1436472367488,-0.11192893,10.007165,1.4784195
376,1436472367508,-0.1364695,10.081984,1.5676036
377,1436472367529,-0.29688102,10.128072,1.5113398
378,1436472367548,-0.5129577,10.078392,1.417966
379,1436472367568,-0.60453594,10.1226845,1.2868834
380,1436472367586,-0.5793968,10.103531,1.1593921
381,1436472367604,-0.4961983,10.189124,1.1390414
382,1436472367629,-0.5033809,10.210073,1.1552023
383,1436472367648,-0.5291186,10.147824,1.2318168
384,1436472367668,-0.57640404,10.116699,1.3311762
385,1436472367687,-0.60214174,10.107721,1.4095862
386,1436472367709,-0.60453594,10.128671,1.4269443
387,1436472367729,-0.5434838,10.284892,1.4065934
388,1436472367748,-0.5291186,10.381259,1.401805
389,1436472367768,-0.5231331,10.314819,1.3976152
390,1436472367789,-0.44891283,10.191518,1.3754689
391,1436472367810,-0.34955344,10.0987425,1.3491327
392,1436472367829,-0.35793316,10.03769,1.3257892
393,1436472367849,-0.40043023,10.01315,1.30484
394,1436472367871,-0.38726214,10.039486,1.2671312
395,1436472367939,-0.40342298,10.0903635,1.1976994
396,1436472367940,-0.39983168,10.09156,1.1587936
397,1436472367941,-0.3693056,10.103531,1.2389994
398,1436472367947,-0.36990416,10.059837,1.2683283
399,1436472367987,-0.31543607,10.071808,1.2611457
400,1436472367988,-0.31364042,10.153211,1.2294226
401,1436472368028,-0.3441665,10.163386,1.1905168
402,1436472368029,-0.31543607,10.137649,1.2264298
403,1436472368068,-0.25198972,10.092158,1.2587515
404,1436472368069,-0.19692309,10.067019,1.2246342
405,1436472368088,-0.17956513,10.081385,1.1857284
406,1436472368107,-0.14844051,10.094553,1.1845313
407,1436472368133,-0.110133275,10.0748005,1.2078748
408,1436472368147,-0.107140526,10.049662,1.2300211
409,1436472368166,-0.16819267,10.02572,1.3000516
410,1436472368186,-0.30526072,10.101137,1.3371617
411,1436472368207,-0.47165772,10.108918,1.2934675
412,1436472368226,-0.5057751,10.14124,1.2084733
413,1436472368246,-0.45848963,10.177153,1.1270704
414,1436472368267,-0.3669114,10.159196,1.1887212
415,1436472368287,-0.28550854,10.195109,1.2856863
416,1436472368306,-0.26994625,10.251971,1.3030443
417,1436472368325,-0.32321724,10.241198,1.3180081
