id,attr_time,attr_x,attr_y,attr_z
1,1436890975212,-0.03145956,0.020158553,-0.026572637
2,1436890975232,-0.031154128,0.021685716,-0.02687807
3,1436890975252,-0.031154128,0.02321288,-0.032986723
4,1436890975304,-0.024740042,0.014966198,-0.031154128
5,1436890975305,-0.022296581,0.0143553335,-0.029626964
6,1436890975324,-0.023823744,0.013133603,-0.028099801
7,1436890975332,-0.016493361,0.015271631,-0.03390302
8,1436890975352,-0.018020526,0.013744468,-0.033292156
9,1436890975373,-0.0143553335,0.008552114,-0.029321533
10,1436890975393,-0.01985312,0.015577064,-0.030848695
11,1436890975413,-0.023823744,0.016798794,-0.035124753
12,1436890975433,-0.029321533,0.019547688,-0.03359759
13,1436890975456,-0.025350908,0.02076942,-0.03756821
14,1436890975476,-0.016798794,0.02076942,-0.036651913
15,1436890975496,-0.027183503,0.018020526,-0.029932396
16,1436890975513,-0.021380283,0.013133603,-0.03359759
17,1436890975533,-0.02443461,0.013744468,-0.04184427
18,1436890975556,-0.01985312,0.014049901,-0.040317107
19,1436890975576,-0.017715093,0.016187929,-0.0421497
20,1436890975593,-0.026572637,0.016187929,-0.047036625
21,1436890975614,-0.026267206,0.008857546,-0.046120327
22,1436890975635,-0.03573562,0.01985312,-0.048258353
23,1436890975655,-0.03634648,0.016187929,-0.052839845
24,1436890975677,-0.030543262,0.015577064,-0.053145275
25,1436890975695,-0.034513887,0.021380283,-0.051618114
26,1436890975712,-0.03573562,0.032375857,-0.05009095
27,1436890975744,-0.03481932,0.030543262,-0.048563786
28,1436890975753,-0.03023783,0.023823744,-0.04428773
29,1436890975775,-0.03268129,0.022296581,-0.036957346
30,1436890975794,-0.039095376,0.02076942,-0.03390302
31,1436890975814,-0.026572637,0.01863139,-0.026267206
32,1436890975834,-0.023823744,0.007330383,-0.01985312
33,1436890975856,-0.01985312,0.009468411,-0.025045475
34,1436890975915,-0.016798794,0.015271631,-0.03145956
35,1436890975918,-0.0143553335,0.01863139,-0.030848695
36,1436890975919,-0.0143553335,0.025045475,-0.02107485
37,1436890975933,-0.020463986,0.025045475,-0.01863139
38,1436890975954,-0.018936822,0.01740966,-0.009773844
39,1436890975973,-0.01282817,0.009773844,-0.011911872
40,1436890975993,-0.01160644,0.007330383,-0.018020526
41,1436890976013,-0.013744468,0.010079277,-0.02107485
42,1436890976034,-0.016798794,0.014660766,-0.02565634
43,1436890976054,-0.01282817,0.016493361,-0.030543262
44,1436890976075,-0.009468411,0.020158553,-0.030848695
45,1436890976095,-0.004581489,0.02443461,-0.030543262
46,1436890976114,-0.009773844,0.023823744,-0.028405234
47,1436890976135,-0.01038471,0.020158553,-0.03359759
48,1436890976156,-0.00580322,0.013133603,-0.03176499
49,1436890976174,0.0018325958,0.014660766,-0.03268129
50,1436890976196,-0.009468411,0.025045475,-0.032070424
51,1436890976213,-0.010995574,0.018936822,-0.035124753
52,1436890976234,-0.0070249503,0.021991149,-0.032986723
53,1436890976256,0.0033597588,0.020463986,-0.032375857
54,1436890976274,0.0015271631,0.027794369,-0.030848695
55,1436890976296,-0.004581489,0.02321288,-0.032070424
56,1436890976315,0.0033597588,0.021991149,-0.02687807
57,1436890976336,0.0015271631,0.018325957,-0.027183503
58,1436890976357,0.0061086523,0.015271631,-0.03145956
59,1436890976373,0.0061086523,0.007330383,-0.02565634
60,1436890976395,0.010995574,0.0125227375,-0.02443461
61,1436890976413,0.010995574,0.011911872,-0.023823744
62,1436890976438,0.023518313,0.009773844,-0.022602014
63,1436890976459,0.019547688,0.011911872,-0.01740966
64,1436890976478,0.025961773,0.0106901415,-0.02107485
65,1436890976497,0.021380283,0.008246681,-0.025350908
66,1436890976513,0.02321288,0.01160644,-0.01740966
67,1436890976534,0.02107485,0.015271631,-0.021991149
68,1436890976554,0.017715093,0.017715093,-0.024129177
69,1436890976576,0.014049901,0.01282817,-0.030543262
70,1436890976595,0.012217305,0.014660766,-0.03145956
71,1436890976685,0.0030543262,0.022907447,-0.024129177
72,1436890976686,0.005192355,0.021991149,-0.019547688
73,1436890976764,0.00030543262,0.0143553335,-0.017104227
74,1436890976765,0.008552114,0.017104227,-0.022907447
75,1436890976766,0.0033597588,0.0067195175,-0.023823744
76,1436890976767,0.0076358155,0.0143553335,-0.03359759
77,1436890976768,0.0061086523,0.015577064,-0.034208454
78,1436890976769,-0.00061086525,0.01985312,-0.027488936
79,1436890976979,-0.004886922,0.02076942,-0.028710667
80,1436890976980,-0.0033597588,0.021991149,-0.03176499
81,1436890976981,-0.0030543262,0.023823744,-0.031154128
82,1436890976983,-0.006414085,0.01740966,-0.033292156
83,1436890976984,0.0,0.018020526,-0.03268129
84,1436890976985,-0.007330383,0.01863139,-0.030543262
85,1436890976990,-0.009468411,0.020463986,-0.02687807
86,1436890976991,-0.014660766,0.022296581,-0.023823744
87,1436890976992,-0.01740966,0.02076942,-0.0290161
88,1436890976993,-0.012217305,0.025350908,-0.028405234
89,1436890976994,-0.01740966,0.018936822,-0.02076942
90,1436890976995,-0.036651913,0.014660766,-0.015882496
91,1436890977014,-0.036651913,0.017104227,-0.018020526
92,1436890977034,-0.026572637,0.019547688,-0.018325957
93,1436890977054,-0.032070424,0.011301007,-0.018020526
94,1436890977074,-0.034208454,0.013744468,-0.02076942
95,1436890977114,-0.03145956,0.012217305,-0.023823744
96,1436890977130,-0.030543262,0.0030543262,-0.022907447
97,1436890977132,-0.023518313,0.007941248,-0.025045475
98,1436890977153,-0.022907447,0.0067195175,-0.03176499
99,1436890977173,-0.015882496,0.0033597588,-0.03634648
100,1436890977193,-0.008857546,0.01038471,-0.036957346
101,1436890977213,-0.004276057,0.01863139,-0.038789943
102,1436890977233,-0.005497787,0.015882496,-0.03390302
103,1436890977253,0.0012217305,0.018325957,-0.03176499
104,1436890977273,-0.00030543262,0.015882496,-0.032070424
105,1436890977293,-0.0033597588,0.018020526,-0.025961773
106,1436890977314,0.0061086523,0.024740042,-0.029626964
107,1436890977333,0.0061086523,0.02107485,-0.027183503
108,1436890977353,0.005497787,0.02687807,-0.028405234
109,1436890977374,0.009162978,0.033292156,-0.034513887
110,1436890977394,0.005192355,0.038789943,-0.03481932
111,1436890977414,0.007941248,0.03634648,-0.033292156
112,1436890977433,0.007330383,0.030543262,-0.03573562
113,1436890977453,0.004886922,0.02076942,-0.032375857
114,1436890977473,0.0009162979,0.016493361,-0.030848695
115,1436890977493,0.004581489,0.022602014,-0.035124753
116,1436890977513,0.0070249503,0.023823744,-0.03726278
117,1436890977533,-0.0015271631,0.02076942,-0.026572637
118,1436890977553,-0.010079277,0.015882496,-0.025045475
119,1436890977573,-0.0033597588,0.015882496,-0.02443461
120,1436890977594,-0.013744468,0.0143553335,-0.02321288
121,1436890977613,-0.018325957,0.02107485,-0.02443461
122,1436890977633,-0.019242255,0.01985312,-0.014966198
123,1436890977653,-0.013744468,0.02107485,-0.0143553335
124,1436890977673,-0.020158553,0.01985312,-0.014049901
125,1436890977693,-0.01863139,0.02076942,-0.016798794
126,1436890977714,-0.021991149,0.024740042,-0.02076942
127,1436890977733,-0.02076942,0.026267206,-0.021380283
128,1436890977753,-0.016187929,0.03176499,-0.020463986
129,1436890977773,-0.01160644,0.035430185,-0.02107485
130,1436890977794,-0.009468411,0.030848695,-0.019242255
131,1436890977814,-0.017104227,0.02321288,-0.02107485
132,1436890977834,-0.014049901,0.022296581,-0.018936822
133,1436890977854,-0.018325957,0.016187929,-0.019547688
134,1436890977874,-0.015577064,0.008246681,-0.02107485
135,1436890977894,-0.01740966,0.006414085,-0.009468411
136,1436890977914,-0.022602014,0.0030543262,-0.0012217305
137,1436890977934,-0.02443461,-0.00030543262,0.002443461
138,1436890977954,-0.02443461,0.0012217305,-0.00030543262
139,1436890977974,-0.021380283,-0.004886922,-0.00030543262
140,1436890977994,-0.015577064,-0.006414085,-0.004581489
141,1436890978014,-0.02443461,-0.0021380284,-0.0012217305
142,1436890978046,-0.031154128,-0.0012217305,-0.003970624
143,1436890978054,-0.026267206,0.0015271631,-0.00061086525
144,1436890978076,-0.028710667,0.007941248,-0.007941248
145,1436890978095,-0.025350908,0.01160644,-0.007330383
146,1436890978114,-0.026572637,0.01160644,-0.0067195175
147,1436890978134,-0.019547688,0.005192355,-0.009162978
148,1436890978154,-0.025961773,0.008857546,-0.012217305
149,1436890978174,-0.02107485,0.016798794,-0.022296581
150,1436890978194,-0.014966198,0.025045475,-0.01863139
151,1436890978215,-0.016493361,0.019242255,-0.014049901
152,1436890978235,-0.004886922,0.018020526,-0.016493361
153,1436890978255,-0.013133603,0.016493361,-0.016187929
154,1436890978275,-0.008246681,0.018325957,-0.0143553335
155,1436890978295,-0.008246681,0.0143553335,-0.011911872
156,1436890978315,-0.0061086523,0.018020526,-0.0106901415
157,1436890978335,0.0009162979,0.022907447,-0.018325957
158,1436890978355,0.0036651916,0.018325957,-0.019242255
159,1436890978375,0.0009162979,0.018325957,-0.027488936
160,1436890978395,0.00061086525,0.018936822,-0.02565634
161,1436890978414,0.004276057,0.024129177,-0.02107485
162,1436890978435,0.006414085,0.02443461,-0.018020526
163,1436890978460,-0.0009162979,0.01985312,-0.01985312
164,1436890978476,-0.0067195175,0.020463986,-0.019547688
165,1436890978495,-0.0015271631,0.025045475,-0.02076942
166,1436890978520,-0.0036651916,0.021380283,-0.019547688
167,1436890978535,-0.004276057,0.020463986,-0.02076942
168,1436890978556,-0.0021380284,0.021380283,-0.020158553
169,1436890978575,-0.0033597588,0.016493361,-0.01985312
170,1436890978595,-0.009773844,0.01863139,-0.016187929
171,1436890978616,-0.006414085,0.015577064,-0.015882496
172,1436890978635,-0.011301007,0.020463986,-0.015271631
173,1436890978656,-0.006414085,0.02107485,-0.013439035
174,1436890978675,-0.0061086523,0.013439035,-0.013744468
175,1436890978697,-0.002443461,0.018325957,-0.0143553335
176,1436890978719,-0.010079277,0.02107485,-0.013439035
177,1436890978765,-0.013439035,0.02443461,-0.009162978
178,1436890978766,-0.014966198,0.028099801,-0.0027488936
179,1436890978776,-0.015271631,0.029626964,-0.0015271631
180,1436890978809,-0.004276057,0.016798794,-0.009468411
181,1436890978816,-0.0076358155,0.014966198,-0.013133603
182,1436890978835,-0.011301007,0.022602014,-0.01282817
183,1436890978863,-0.005497787,0.02565634,-0.011911872
184,1436890978876,-0.0070249503,0.0143553335,-0.010995574
185,1436890978896,-0.0027488936,0.0106901415,-0.015271631
186,1436890978916,-0.0012217305,0.0143553335,-0.010995574
187,1436890978936,-0.0076358155,0.017104227,-0.009468411
188,1436890978958,-0.004276057,0.015882496,-0.010995574
189,1436890978976,-0.003970624,0.014966198,-0.012217305
190,1436890979000,-0.0021380284,0.020463986,-0.013133603
191,1436890979016,-0.0027488936,0.02076942,-0.016187929
192,1436890979039,0.0036651916,0.016493361,-0.027488936
193,1436890979059,0.004581489,0.014966198,-0.029626964
194,1436890979079,0.004886922,0.014049901,-0.026572637
195,1436890979099,0.0015271631,0.01160644,-0.02687807
196,1436890979119,0.014049901,0.006414085,-0.025045475
197,1436890979139,0.01038471,0.0067195175,-0.025961773
198,1436890979159,0.0018325958,0.011301007,-0.023823744
199,1436890979179,0.01038471,0.010995574,-0.027794369
200,1436890979201,0.010995574,0.0036651916,-0.03176499
201,1436890979216,0.020158553,0.015882496,-0.040011674
202,1436890979239,0.027183503,0.026267206,-0.04337143
203,1436890979260,0.02443461,0.03176499,-0.05131268
204,1436890979279,0.024740042,0.0290161,-0.048563786
205,1436890979299,0.0290161,0.031154128,-0.04917465
206,1436890979319,0.026267206,0.028405234,-0.053450707
207,1436890979340,0.026267206,0.018020526,-0.05100725
208,1436890979360,0.018020526,0.01985312,-0.040011674
209,1436890979380,0.0021380284,0.01160644,-0.03176499
210,1436890979400,0.0015271631,0.007941248,-0.0290161
211,1436890979420,0.003970624,0.0033597588,-0.025045475
212,1436890979440,0.004886922,0.01038471,-0.026267206
213,1436890979459,0.0125227375,0.019547688,-0.03756821
214,1436890979482,0.01740966,0.0067195175,-0.052534413
215,1436890979560,0.016798794,0.015577064,-0.061391957
216,1436890979561,-0.00030543262,-0.013439035,-0.08399397
217,1436890979562,-0.01160644,-0.086437434,-0.08368854
218,1436890979563,-0.025350908,-0.007941248,-0.07880162
219,1436890979577,-0.022296581,-0.003970624,-0.08674286
220,1436890979599,-0.018936822,0.013133603,-0.0888809
221,1436890979616,-0.020158553,0.035124753,-0.0888809
222,1436890979637,0.00030543262,0.056505036,-0.055283304
223,1436890979662,0.0018325958,0.05589417,-0.0061086523
224,1436890979678,0.005497787,0.022907447,0.016493361
225,1436890979698,0.0036651916,0.009468411,-0.0067195175
226,1436890979718,-0.0030543262,0.014660766,-0.021380283
227,1436890979741,0.008857546,0.033292156,-0.029626964
228,1436890979760,0.015271631,0.04520403,-0.03481932
229,1436890979780,0.018020526,0.022296581,-0.03481932
230,1436890979800,0.019547688,-0.00061086525,-0.03940081
231,1436890979820,0.024740042,0.005497787,-0.03634648
232,1436890979840,0.023518313,0.009773844,-0.040011674
233,1436890979860,0.018325957,-0.015577064,-0.04886922
234,1436890979880,0.0290161,-0.03756821,-0.03756821
235,1436890979899,0.054061573,-0.055588737,-0.03756821
236,1436890979920,0.07269296,-0.037873644,-0.06261369
237,1436890979939,0.06994407,-0.004581489,-0.06963864
238,1436890979960,0.04795292,0.03145956,-0.083383106
239,1436890979980,0.040317107,0.098043874,-0.10781772
240,1436890980000,0.04642576,0.15302174,-0.105068825
241,1436890980019,0.03970624,0.14874569,-0.06352998
242,1436890980039,0.036957346,0.13469578,-0.0720821
243,1436890980060,-0.0021380284,0.16157386,-0.07513642
244,1436890980081,-0.045814894,0.19333886,-0.09040806
245,1436890980101,-0.06566802,0.19242255,-0.106595986
246,1436890980120,-0.08857546,0.20769419,-0.106901415
247,1436890980139,-0.10903945,0.21380283,-0.09468412
248,1436890980159,-0.11728613,0.18020524,-0.09987647
249,1436890980179,-0.11636983,0.15302174,-0.093767814
250,1436890980210,-0.13103059,0.103847094,-0.06994407
251,1436890980262,-0.14660765,0.03359759,-0.06963864
252,1436890980273,-0.1301143,0.005192355,-0.07422013
253,1436890980274,-0.13988814,-0.038179077,-0.0720821
254,1436890980280,-0.13836098,-0.06047566,-0.08032878
255,1436890980300,-0.12889257,-0.074830994,-0.063224554
256,1436890980321,-0.12522738,-0.08582657,-0.01863139
257,1436890980339,-0.14355333,-0.11728613,0.035124753
258,1436890980360,-0.15332718,-0.13103059,0.04550946
259,1436890980379,-0.160963,-0.12614368,0.06719518
260,1436890980398,-0.17806722,-0.103847094,0.113926366
261,1436890980421,-0.183565,-0.084910266,0.15210545
262,1436890980441,-0.18325958,-0.07788532,0.21991149
263,1436890980460,-0.19181168,-0.07971791,0.30207285
264,1436890980481,-0.19181168,-0.1432479,0.36743546
265,1436890980501,-0.22143865,-0.16554448,0.4260785
266,1436890980521,-0.26908615,-0.17256944,0.48288897
267,1436890980541,-0.31429017,-0.15241088,0.5207626
268,1436890980560,-0.35521814,-0.15454891,0.5687156
269,1436890980581,-0.43585235,-0.111177474,0.61666846
270,1436890980601,-0.50426924,-0.028099801,0.6160576
271,1436890980621,-0.59895337,-0.03268129,0.6038403
272,1436890980641,-0.68019843,0.0067195175,0.63071835
273,1436890980663,-0.7370089,0.08002335,0.6606508
274,1436890980678,-0.7663304,0.10262536,0.634689
275,1436890980710,-0.77579886,0.18784106,0.6545421
276,1436890980724,-0.7791586,0.46303585,0.68019843
277,1436890980741,-0.7620544,0.83108217,0.7086037
278,1436890980761,-0.7144069,0.8374963,0.9767735
279,1436890980781,-0.91996306,0.07269296,1.5735888
280,1436890980801,-1.1273518,-1.4587462,2.0479257
281,1436890980821,-1.2299771,-2.5008824,2.7739391
282,1436890980841,-1.31672,-3.4465017,3.690237
283,1436890980861,-1.0189233,-3.8212676,4.076915
284,1436890980881,-0.956615,-3.3646457,3.5720346
285,1436890980900,-0.9859365,-1.6927075,3.2424726
286,1436890980921,-1.0241156,-0.4999932,3.035084
287,1436890980941,-0.86406887,-0.19547687,2.4306328
288,1436890980978,-0.7324274,0.18203785,1.6310102
289,1436890980979,-0.5439755,0.6844745,0.9822713
290,1436890981001,-0.39706242,0.54428095,0.36987892
291,1436890981018,-0.17531833,0.1554652,-0.4361578
292,1436890981038,0.00030543262,-0.310625,-1.2660183
293,1436890981059,0.14569137,-0.7806858,-1.8246545
294,1436890981078,0.355829,-1.078788,-2.3628268
295,1436890981098,0.52320606,-1.3539828,-2.8173106
296,1436890981118,0.63255095,-1.3814718,-3.1093042
297,1436890981139,0.7629707,-1.2391402,-3.361897
298,1436890981165,0.8546005,-0.8530733,-3.4162638
299,1436890981178,0.8888089,-0.38056904,-3.3102787
300,1436890981202,0.8900307,-0.03940081,-2.9147434
301,1436890981221,0.8219192,0.22113322,-2.3988678
302,1436890981241,0.7150178,0.39095375,-1.8622227
303,1436890981261,0.59406644,0.4633413,-0.97310835
304,1436890981281,0.50946164,0.22876903,0.7315111
305,1436890981301,-0.51251596,0.25778514,-0.10934488
306,1436890981321,-0.27366763,0.1282817,0.40469822
307,1436890981341,-0.4972443,0.7104363,0.59712076
308,1436890981361,-0.40561453,-0.80664754,0.032986723
309,1436890981383,-0.48808134,0.016187929,-0.24801129
310,1436890981398,-0.3662137,0.23396139,0.17989981
311,1436890981421,-0.22266038,-0.03176499,-0.2782491
312,1436890981442,-0.19700404,-0.044898596,-0.3585779
313,1436890981462,-0.12064589,-0.059864793,-0.45845437
314,1436890981481,-0.10323623,-0.029932396,-0.49846604
315,1436890981501,-0.09285152,-0.028405234,-0.50946164
316,1436890981519,-0.11026118,-0.0983493,-0.56107974
317,1436890981544,-0.1255328,-0.09560041,-0.60231316
318,1436890981592,-0.14385876,-0.025961773,-0.63804877
319,1436890981593,-0.16584991,-0.030543262,-0.6414085
320,1436890981598,-0.16340645,-0.034513887,-0.61544675
321,1436890981620,-0.17104226,-0.09621128,-0.5849035
322,1436890981639,-0.13103059,-0.12370021,-0.5338962
323,1436890981659,-0.09193522,-0.21746802,-0.5186246
324,1436890981678,-0.07819075,-0.38820487,-0.43035457
325,1436890981701,-0.03726278,-0.4541783,-0.4343252
326,1436890981720,-0.00030543262,-0.45112398,-0.4266894
327,1436890981739,-0.027794369,-0.35460728,-0.41233405
328,1436890981759,-0.054061573,-0.12064589,-0.36957347
329,1436890981783,-0.129198,0.052534413,-0.26145032
330,1436890981802,-0.17989981,0.13439035,-0.05467244
331,1436890981853,-0.19700404,0.025045475,0.06841691
332,1436890981854,-0.24862215,0.0076358155,0.1740966
333,1436890981889,-0.312763,0.013744468,0.25870144
334,1436890981890,-0.36957347,0.080634214,0.28619036
335,1436890981956,-0.4166101,0.16371189,0.3622431
336,1436890981958,-0.48655418,0.27855456,0.44898596
337,1436890981959,-0.5137377,0.37201694,0.535118
338,1436890981960,-0.53969944,0.453262,0.63194007
339,1436890981986,-0.473726,0.763887,0.73761976
340,1436890981999,-0.4269948,0.88239485,0.95814216
341,1436890982020,-0.5177083,0.82802784,1.6982054
342,1436890982039,-0.5030475,0.19394971,2.2843306
343,1436890982059,-0.9062186,-0.49480084,3.118467
344,1436890982079,-0.895223,-1.0955868,3.9370265
345,1436890982099,-0.689056,-1.7024814,4.0802746
346,1436890982120,-0.5766568,-2.0335703,3.5601227
347,1436890982139,-0.3912592,-1.6835446,3.3637295
348,1436890982159,-0.33078352,-1.4624114,2.9342911
349,1436890982177,-0.19700404,-0.9416488,2.2626448
350,1436890982197,0.008552114,-0.35827246,1.3219124
351,1436890982218,0.17440203,0.2507602,0.48716503
352,1436890982240,0.2602286,0.68111473,-0.027794369
353,1436890982260,0.44837508,0.31795537,-0.820392
354,1436890982282,0.59773165,-0.22693644,-1.4214834
355,1436890982302,0.71959925,-0.5317582,-2.069917
356,1436890982321,0.799928,-0.6200282,-2.5076017
357,1436890982340,0.8717047,-0.7641924,-2.9211576
358,1436890982359,0.956615,-0.88453287,-3.1914654
359,1436890982379,1.0094548,-0.72265357,-3.2443054
360,1436890982400,1.0574077,-0.40469822,-3.161533
361,1436890982422,1.0250319,0.26633725,-2.8478537
362,1436890982442,0.93615097,0.9059132,-2.3005185
363,1436890982459,0.92271197,1.0732902,-1.7076738
364,1436890982481,0.88453287,0.97066486,-0.9080512
365,1436890982503,1.0671816,0.5751296,-0.046731193
366,1436890982518,0.5830709,0.0070249503,0.6597345
367,1436890982539,-0.23090707,0.30634892,-0.8304713
368,1436890982558,-0.19608775,1.1530081,0.36377025
369,1436890982579,-0.24190263,0.30024028,0.17073683
370,1436890982603,-0.39370266,-0.7816021,0.17012598
371,1436890982619,-0.3371976,0.4297437,0.31337386
