id,attr_time,attr_x,attr_y,attr_z
1,1436183316116,0.1448492,-9.966463,2.1601684
2,1436183316139,0.089184016,-9.959879,2.1272483
3,1436183316159,0.076015905,-9.96347,2.204461
4,1436183316179,0.18255788,-9.954493,2.2284033
5,1436183316199,0.20829555,-9.877279,2.1045034
6,1436183316219,0.2088941,-9.8437605,2.0135236
7,1436183316239,0.19153613,-9.879075,2.0027497
8,1436183316259,0.19632454,-9.895834,1.9973627
9,1436183316279,0.17597382,-9.908403,1.9997569
10,1436183316299,0.16101007,-9.922171,2.005144
11,1436183316319,0.12988544,-9.965864,2.0213048
12,1436183316337,0.093373865,-9.968259,2.0416555
13,1436183316360,0.10055647,-9.93474,2.0691888
14,1436183316380,0.13706805,-9.977836,2.0991163
15,1436183316397,0.17537527,-9.969456,2.1110873
16,1436183316417,0.2088941,-9.946711,2.1051018
17,1436183316438,0.23762453,-9.944916,2.0727801
18,1436183316461,0.22864626,-9.925163,2.0380642
19,1436183316481,0.20051439,-9.907805,2.0392613
20,1436183316501,0.17477672,-9.929353,2.047641
21,1436183316520,0.14604631,-9.951499,2.0494366
22,1436183316537,0.1400608,-9.970055,2.0482395
23,1436183316557,0.11252748,-10.002377,2.0572178
24,1436183316578,0.08738836,-9.99639,2.0913353
25,1436183316606,0.11492168,-9.980229,2.088941
26,1436183316661,0.1436521,-9.961675,2.107496
27,1436183316662,0.19871874,-10.004171,2.1080947
28,1436183316663,0.2693477,-10.01315,2.1176715
29,1436183316686,0.29448682,-9.970653,2.1092918
30,1436183316696,0.2813187,-9.916783,2.123657
31,1436183316725,0.30885202,-9.892841,2.1577742
32,1436183316739,0.36152446,-9.919776,2.168548
33,1436183316759,0.3405752,-9.960478,2.1158757
34,1436183316778,0.25378537,-9.991602,2.0548236
35,1436183316797,0.16579847,-10.028712,2.083554
36,1436183316818,0.14544775,-10.029311,2.0799627
37,1436183316840,0.10474633,-10.034698,2.005144
38,1436183316858,0.012569559,-10.014347,1.9548657
39,1436183316877,0.013766659,-10.029311,2.047641
40,1436183316900,0.010773907,-9.922769,2.0141222
41,1436183316920,0.022744916,-9.876082,1.9602526
42,1436183316940,0.06703765,-9.890448,1.9285295
43,1436183316960,0.075417355,-9.882666,1.9524715
44,1436183316980,0.02633622,-9.868899,1.8776526
45,1436183317000,0.03232172,-9.917382,1.9003977
46,1436183317023,0.08259996,-9.9790325,1.9746178
47,1436183317041,0.15741876,-10.038888,2.0362685
48,1436183317061,0.18076223,-9.996989,2.0482395
49,1436183317078,0.15442601,-10.020332,2.106299
50,1436183317101,0.19812019,-10.007763,2.1272483
51,1436183317120,0.22266077,-9.966463,2.095525
52,1436183317140,0.22864626,-9.941324,2.070386
53,1436183317161,0.21428105,-9.929353,2.0817583
54,1436183317181,0.22565351,-9.936536,2.0572178
55,1436183317200,0.23403321,-9.949105,2.0374656
56,1436183317220,0.25857377,-9.946113,2.0536265
57,1436183317240,0.23822308,-9.96766,2.088941
58,1436183317260,0.21906945,-9.96347,2.098518
59,1436183317281,0.1945289,-9.9790325,2.0733786
60,1436183317301,0.17896658,-9.987412,2.0338743
61,1436183317320,0.11312603,-9.967062,1.9979613
62,1436183317345,0.08678981,-9.887454,1.9853917
63,1436183317412,0.09935937,-9.902418,1.970428
64,1436183317413,0.14844051,-9.936536,1.9321208
65,1436183317414,0.15741876,-9.982025,1.9117701
66,1436183317420,0.12749124,-10.014946,1.9602526
67,1436183317439,0.08319851,-10.0029745,1.9949685
68,1436183317461,0.0700304,-9.97185,1.9877859
69,1436183317477,0.073621705,-9.979631,2.0039468
70,1436183317497,0.10175357,-9.967062,2.0129251
71,1436183317519,0.18674773,-9.974843,2.0057425
72,1436183317539,0.23762453,-9.982025,2.0266917
73,1436183317559,0.25617957,-9.982624,2.0871453
74,1436183317579,0.24301147,-9.983223,2.100912
75,1436183317598,0.19931729,-9.952697,2.023699
76,1436183317621,0.22744916,-10.029311,2.0632033
77,1436183317641,0.29209262,-10.044274,2.1015105
78,1436183317661,0.23163901,-9.949704,2.058415
79,1436183317681,0.14185645,-9.913192,1.9782091
80,1436183317701,0.15861586,-9.91439,1.970428
81,1436183317721,0.13587095,-9.962872,1.9153614
82,1436183317742,0.095768064,-10.005369,1.8890251
83,1436183317761,0.11432313,-10.048465,1.9524715
84,1436183317781,0.16639702,-10.041282,2.0380642
85,1436183317801,0.2124854,-10.030508,2.0368671
86,1436183317818,0.24181437,-10.001778,2.0404584
87,1436183317841,0.219668,-10.048465,2.0697873
88,1436183317860,0.23642741,-10.007165,2.0895395
89,1436183317881,0.22685061,-10.006566,2.0608091
90,1436183317898,0.20410569,-9.937733,2.066196
91,1436183317922,0.22625206,-9.950901,2.0578163
92,1436183317942,0.2825158,-9.942521,2.0632033
93,1436183317962,0.33159694,-9.982025,2.0799627
94,1436183317980,0.31663316,-9.974843,2.098518
95,1436183317999,0.26874915,-9.952098,2.1392193
96,1436183318018,0.24959552,-9.939528,2.1428106
97,1436183318039,0.23403321,-9.974843,2.1086931
98,1436183318058,0.21068975,-10.007763,2.0937295
99,1436183318078,0.19093758,-10.067618,2.083554
100,1436183318151,0.27353755,-10.100538,2.146402
101,1436183318152,0.3585317,-10.046669,2.1643584
102,1436183318153,0.40521863,-9.977836,2.2164323
103,1436183318208,0.36272156,-9.902418,2.2242134
104,1436183318209,0.26994625,-9.845556,2.2385786
105,1436183318210,0.21428105,-9.820416,2.2284033
106,1436183318220,0.23762453,-9.837775,2.2343888
107,1436183318239,0.219668,-9.901819,2.204461
108,1436183318258,0.16699557,-9.946113,2.1721394
109,1436183318291,0.074220255,-9.997588,2.1859062
110,1436183318299,0.091578215,-9.991602,2.1883004
111,1436183318318,0.19572599,-10.038888,2.2864625
112,1436183318341,0.30226797,-10.044873,2.3349452
113,1436183318358,0.24361002,-9.934141,2.3008277
114,1436183318378,0.1376666,-9.853935,2.2577322
115,1436183318399,0.08319851,-9.742006,2.2092497
116,1436183318418,0.06284779,-9.712079,2.1517887
117,1436183318438,0.0664391,-9.81084,2.0727801
118,1436183318458,0.076015905,-9.85633,2.0530279
119,1436183318478,0.078410104,-9.896433,2.0973208
120,1436183318499,0.032920275,-9.879673,2.1649568
121,1436183318518,-0.05327099,-9.828198,2.2008698
122,1436183318538,-0.05746084,-9.855731,2.19249
123,1436183318558,-0.061650693,-9.869498,2.1865046
124,1436183318579,-0.048482586,-9.870695,2.1404164
125,1436183318599,-0.088585466,-9.883265,2.1739352
126,1436183318621,-0.025139118,-9.873688,2.1799207
127,1436183318639,0.046088383,-9.885659,2.2110453
128,1436183318659,0.053869538,-9.894038,2.1841104
129,1436183318681,0.032920275,-9.913791,2.204461
130,1436183318701,0.021547815,-9.966463,2.2511482
131,1436183318721,0.048482586,-9.9473095,2.2810757
132,1436183318739,0.05207389,-9.88925,2.2655134
133,1436183318761,0.035913024,-9.873089,2.231396
134,1436183318780,0.031124622,-9.874885,2.1799207
135,1436183318801,0.03232172,-9.876082,2.1308396
136,1436183318819,0.03232172,-9.862914,2.1003134
137,1436183318887,0.022744916,-9.861717,2.135628
138,1436183318888,0.04129998,-9.914988,2.1511903
139,1436183318889,0.061650693,-9.962872,2.1667526
140,1436183318905,0.04129998,-10.017939,2.1978772
141,1436183318922,-0.010175358,-10.016742,2.1829133
142,1436183318938,0.023343466,-10.016143,2.2691047
143,1436183318960,0.15083471,-10.073005,2.3145945
144,1436183318978,0.23882163,-10.101137,2.343325
145,1436183318999,0.17477672,-9.978435,2.2535424
146,1436183319020,0.046088383,-9.852738,2.180519
147,1436183319039,-0.0047884034,-9.715072,2.1871033
148,1436183319062,-0.02873042,-9.720459,2.0883424
149,1436183319082,-0.012569559,-9.82341,1.9949685
150,1436183319100,0.023343466,-9.890448,2.0135236
151,1436183319122,0.01616086,-9.9233675,2.123657
152,1436183319142,0.025737667,-9.962274,2.132635
153,1436183319162,-0.034715924,-9.93474,2.123657
154,1436183319180,-0.010175358,-9.967062,2.1751323
155,1436183319203,0.019153614,-9.965266,2.1739352
156,1436183319218,0.02813187,-9.959281,2.1625626
157,1436183319240,0.02932897,-9.956287,2.168548
158,1436183319259,0.078410104,-9.93893,2.1404164
159,1436183319279,0.09636662,-9.922769,2.1583729
160,1436183319300,0.0796072,-9.926959,2.1170728
161,1436183319319,0.022146367,-9.953894,2.0973208
162,1436183319340,-0.027533319,-9.955689,2.1080947
163,1436183319362,-0.053869538,-9.914988,2.0883424
164,1436183319381,-0.11851298,-9.903017,2.0733786
165,1436183319403,-0.089782566,-9.927557,2.1039047
166,1436183319419,0.013766659,-9.919178,2.0727801
167,1436183319440,0.061650693,-9.968858,2.0649989
168,1436183319461,0.11192893,-9.936536,2.1080947
169,1436183319563,0.110133275,-9.927557,2.1493945
170,1436183319564,0.13826515,-9.901819,2.171541
171,1436183319565,0.10474633,-9.932345,2.1140802
172,1436183319566,0.06823475,-9.977836,2.1577742
173,1436183319567,0.10594343,-9.986814,2.0901382
174,1436183319580,0.048482586,-9.868899,2.0284874
175,1436183319599,-0.031124622,-9.821614,1.9913772
176,1436183319619,0.045489833,-9.849746,1.9949685
177,1436183319639,0.08439561,-9.89344,1.9716251
178,1436183319661,0.017357962,-9.897031,1.9536686
179,1436183319681,-0.06823475,-9.938332,1.9722236
180,1436183319701,-0.04070143,-9.942521,1.9859903
181,1436183319749,0.004189853,-9.9790325,2.0081367
182,1436183319750,0.026934769,-9.989208,2.0709844
183,1436183319761,0.061052144,-10.018537,2.0937295
184,1436183319780,0.14305355,-10.019135,2.1045034
185,1436183319803,0.13587095,-9.9550905,2.0697873
186,1436183319823,0.13108255,-9.884461,2.086547
187,1436183319843,0.16639702,-9.894637,2.0691888
188,1436183319863,0.19093758,-9.950302,2.059612
189,1436183319881,0.17298107,-9.965266,2.0500352
190,1436183319903,0.12090719,-9.962274,2.047641
191,1436183319923,0.09816227,-9.950901,2.0452468
192,1436183319943,0.10295067,-9.868899,2.0308816
193,1436183319966,0.12150574,-9.850943,2.0129251
194,1436183319983,0.12629414,-9.923966,2.006341
195,1436183320003,0.12689269,-10.026319,2.0201077
196,1436183320021,0.076015905,-10.072407,2.0266917
197,1436183320043,0.050278235,-10.0341,2.082357
198,1436183320063,0.06823475,-9.97185,2.0913353
199,1436183320080,0.11851298,-9.909601,2.0608091
200,1436183320101,0.09935937,-9.897031,1.9991584
201,1436183320121,0.13826515,-9.944317,2.0308816
202,1436183320143,0.14724341,-9.982025,2.0242975
203,1436183320161,0.09876082,-9.950302,1.9877859
204,1436183320180,0.074220255,-9.991602,2.0069396
205,1436183320201,0.1340753,-9.96766,2.0003555
206,1436183320321,0.1448492,-9.959879,1.9746178
207,1436183320322,0.107739076,-9.934141,1.9554642
208,1436183320323,0.08798691,-9.922769,1.9321208
209,1436183320324,0.08439561,-9.935339,1.894412
210,1436183320325,0.053869538,-9.964667,1.8327614
211,1436183320326,-0.08678981,-10.038888,1.9297266
212,1436183320342,-0.035913024,-10.155006,2.043451
213,1436183320360,0.17836803,-10.198701,2.142212
214,1436183320380,0.30945057,-10.140042,2.2218192
215,1436183320402,0.34237084,-10.07121,2.2463598
216,1436183320422,0.32680854,-10.016742,2.167351
217,1436183320441,0.31663316,-9.923966,2.100912
218,1436183320462,0.28670564,-9.924564,2.0763714
219,1436183320481,0.25258827,-9.962274,2.0883424
220,1436183320500,0.22744916,-10.058042,2.0548236
221,1436183320523,0.15203181,-10.0508585,2.0153193
222,1436183320544,0.09816227,-10.033501,1.9506758
223,1436183320564,-0.011372458,-10.009559,1.9381063
224,1436183320583,-0.077213004,-9.944317,1.9069817
225,1436183320601,-0.076614454,-9.915586,1.8800468
226,1436183320623,-0.061052144,-9.924564,1.8800468
227,1436183320644,-0.040102877,-9.929353,1.887828
228,1436183320661,-0.031124622,-9.892841,1.8513165
229,1436183320684,-0.047884032,-9.925163,1.9321208
230,1436183320704,-0.045489833,-9.978435,2.0039468
231,1436183320727,-0.046088383,-9.935937,1.9261353
232,1436183320744,-0.05566519,-9.910199,1.905186
233,1436183320764,0.0724246,-9.879075,1.9494787
234,1436183320781,0.15263036,-9.848549,2.0111294
235,1436183320804,0.18974048,-9.883265,2.0219033
236,1436183320824,0.17717093,-9.956886,2.0470424
237,1436183320841,0.12330139,-10.115502,2.0362685
238,1436183320862,0.08259996,-10.19451,2.0428526
239,1436183320883,0.02633622,-10.092158,2.0967221
240,1436183320904,0.038307227,-9.978435,2.1535845
241,1436183320921,0.14425065,-9.898229,2.1350293
242,1436183320941,0.19512744,-9.868899,2.0416555
243,1436183320962,0.17597382,-9.927557,1.9818004
244,1436183320989,0.16340427,-9.983821,1.9602526
245,1436183321111,0.08499416,-9.973646,2.0087352
246,1436183321112,0.09876082,-9.99639,2.1003134
247,1436183321113,0.11372458,-10.060435,2.1416135
248,1436183321114,0.1436521,-10.038888,2.135628
249,1436183321115,0.08259996,-9.973646,2.0895395
250,1436183321116,0.025737667,-9.882068,2.054225
251,1436183321141,0.06943185,-9.883265,2.0242975
252,1436183321142,0.109534726,-9.910199,1.99437
253,1436183321172,0.109534726,-9.957485,1.9949685
254,1436183321182,0.11432313,-9.929353,2.0632033
255,1436183321203,0.06404489,-9.931149,2.100912
256,1436183321223,0.050876785,-9.974244,2.11827
257,1436183321243,-0.0005985504,-9.966463,2.0691888
258,1436183321272,-0.079008654,-9.970653,2.0548236
259,1436183321285,-0.074818805,-9.935937,2.1021092
260,1436183321310,-0.110731825,-9.914988,2.0266917
261,1436183321325,-0.09935937,-9.881469,1.9057846
262,1436183321347,-0.050876785,-9.8677025,1.894412
263,1436183321364,0.004189853,-9.919776,1.9009962
264,1436183321381,-0.02873042,-9.962274,1.8794483
265,1436183321491,-0.11611878,-9.955689,1.8297687
266,1436183321492,-0.23942018,-9.916184,1.8555063
267,1436183321493,-0.32621,-9.944916,1.8130093
268,1436183321494,-0.3669114,-9.936536,1.7393875
269,1436183321495,-0.3549404,-10.04607,1.726818
270,1436183321501,-0.32022446,-10.069414,1.7753005
271,1436183321521,-0.30466217,-10.063428,1.7705121
272,1436183321541,-0.28431144,-10.001179,1.8052281
273,1436183321561,-0.25677812,-9.987412,1.8375498
274,1436183321581,-0.23762453,-10.031705,1.8596961
275,1436183321604,-0.20171149,-10.005967,1.8525136
276,1436183321624,-0.22864626,-10.011354,1.87047
277,1436183321644,-0.3226187,-10.051457,1.7998412
278,1436183321663,-0.55246204,-10.027515,1.726818
279,1436183321683,-0.6889315,-10.045472,1.6819267
280,1436183321703,-0.8038532,-10.032304,1.6406267
281,1436183321722,-0.8038532,-10.123283,1.614889
282,1436183321744,-0.842759,-10.184336,1.6352397
283,1436183321765,-0.8559271,-10.168175,1.7034745
284,1436183321782,-0.93732995,-10.044274,1.7561469
285,1436183321802,-1.0726024,-10.000581,1.8477252
286,1436183321829,-1.1091139,-10.123882,1.8297687
287,1436183321841,-1.3808558,-9.968858,1.7609353
288,1436183321861,-1.5652094,-9.898827,1.8650831
289,1436183321881,-1.543063,-9.862315,1.9877859
290,1436183321906,-1.5741876,-9.895834,2.0147207
291,1436183321929,-1.5765818,-9.947908,2.0416555
292,1436183321941,-1.5394717,-10.022128,2.110489
293,1436183321962,-1.4377182,-10.017939,2.1811178
294,1436183321981,-1.3132197,-9.962872,2.2667105
295,1436183322001,-1.3084313,-9.882068,2.3600843
296,1436183322020,-1.3485341,-9.755175,2.3828292
297,1436183322040,-1.3389573,-9.730635,2.4708161
298,1436183322060,-1.2467805,-9.74859,2.510919
299,1436183322080,-1.1366472,-9.739613,2.6372132
300,1436183322100,-1.0684125,-9.7007065,2.7994204
301,1436183322120,-1.0019734,-9.605537,2.8688521
302,1436183322141,-0.85054016,-9.500791,2.9843724
303,1436183322161,-0.7170634,-9.428367,3.0220811
304,1436183322181,-0.6338649,-9.405622,3.0969
305,1436183322201,-0.74399817,-9.361927,3.0268695
306,1436183322221,-0.9600749,-9.250597,2.8963854
307,1436183322241,-1.2384008,-9.138069,2.7629087
308,1436183322261,-1.520318,-9.119514,2.6737247
309,1436183322285,-1.7944542,-9.120112,2.4588451
310,1436183322304,-1.9865888,-9.109938,2.28347
311,1436183322324,-2.1763294,-9.098565,2.2517467
312,1436183322345,-2.2942438,-9.129091,2.309806
313,1436183322365,-2.295441,-9.150041,2.309806
314,1436183322385,-2.2260091,-9.197326,2.2709002
315,1436183322405,-2.172738,-9.332,2.3415294
316,1436183322423,-2.1440077,-9.543288,2.408567
317,1436183322446,-2.0937295,-9.706094,2.4426842
318,1436183322471,-2.0254946,-9.810242,2.5605986
319,1436183322486,-2.1200657,-9.907207,2.653374
320,1436183322503,-2.4019828,-10.271724,2.6862943
321,1436183322521,-3.020884,-10.778696,2.8909986
322,1436183322541,-3.7313633,-11.237784,3.5009215
323,1436183322566,-4.5992613,-10.897807,3.5009215
324,1436183322582,-5.089474,-10.433931,3.2429461
325,1436183322602,-5.4737434,-9.603742,2.949058
326,1436183322626,-5.0583496,-9.473258,2.9233203
327,1436183322646,-3.982156,-10.709264,2.5091233
328,1436183322666,-2.1751323,-11.405378,1.9865888
329,1436183322682,-1.3617022,-10.9660425,1.839944
330,1436183322705,-1.5825673,-10.1226845,2.32058
331,1436183322726,-2.0787656,-8.921394,2.7060466
332,1436183322745,-2.60549,-8.593389,2.3834279
333,1436183322766,-2.8089972,-8.5538845,1.7256209
334,1436183322786,-2.7539306,-8.6813755,1.2234371
335,1436183322806,-2.2930467,-8.336611,1.0384849
336,1436183322823,-1.6328455,-7.957728,1.1210849
337,1436183322846,-1.6310499,-8.055291,1.0169371
338,1436183322864,-1.9249382,-7.343615,0.8367735
339,1436183322883,-2.280477,-6.531981,0.9804256
340,1436183322903,-2.6300306,-6.0124393,1.0163386
341,1436183322926,-2.6437972,-5.73112,1.1306617
342,1436183322946,-2.3241713,-6.4230447,1.2599486
343,1436183322966,-1.9788077,-7.7171106,1.198298
344,1436183322986,-1.5568297,-8.998009,1.2683283
345,1436183323003,-1.3263878,-10.630854,1.4490906
346,1436183323024,-1.6921021,-11.88781,1.1085154
347,1436183323044,-2.4624364,-12.025476,0.5907693
348,1436183323066,-2.8245595,-11.763311,0.99898064
349,1436183323083,-3.1507695,-11.923723,1.4694413
350,1436183323157,-2.9831753,-12.210428,1.4969746
351,1436183323158,-2.5486276,-12.458228,1.5101427
352,1436183323159,-2.5516205,-12.221203,1.5813702
353,1436183323169,-2.956839,-11.185112,1.4293385
354,1436183323185,-3.3931823,-9.881469,1.0408791
355,1436183323206,-4.0078936,-8.244433,0.5835867
356,1436183323223,-5.357026,-6.405687,0.6410475
357,1436183323243,-5.7215433,-5.566519,0.45190558
358,1436183323265,-5.9358244,-4.406528,0.1340753
359,1436183323285,-6.962937,-4.23235,0.2184709
360,1436183323304,-8.786121,-6.4751186,-0.81043726
361,1436183323324,-10.05864,-11.941081,-2.9724014
362,1436183323343,-9.487623,-13.448231,-4.185663
363,1436183323366,-10.964846,-14.0390005,-2.5246856
364,1436183323388,-12.186486,-16.066889,0.82240826
365,1436183323406,-11.096526,-16.40088,1.0235212
366,1436183323426,-8.264186,-17.60217,2.2571337
367,1436183323446,-7.4705076,-17.61534,2.5306711
368,1436183323466,-6.153697,-16.832436,3.080739
369,1436183323486,-3.809175,-14.751275,3.8325183
370,1436183323506,-1.5747862,-11.697471,4.51726
371,1436183323528,0.6733692,-9.03871,4.7297454
372,1436183323543,2.520496,-6.6624646,4.5555673
373,1436183323567,3.3087866,-4.211401,4.383185
374,1436183323586,3.3728316,-1.1971009,4.1802764
375,1436183323605,3.5535939,1.8177977,4.2119994
376,1436183323625,4.2119994,4.1539397,4.1641154
377,1436183323647,4.3783965,4.2999864,3.7110126
378,1436183323667,4.404134,2.3702598,2.961029
379,1436183323687,4.3448777,0.18734628,2.348712
380,1436183323707,3.4811692,-0.8319851,1.7375919
381,1436183323726,2.6617537,-1.4975731,1.7256209
382,1436183323749,1.508347,-4.653131,2.2415714
383,1436183323766,-1.1127052,-16.484676,2.896984
384,1436183323787,-7.187992,-19.608511,1.6226702
385,1436183323806,-10.877457,-19.608511,0.98700964
386,1436183323889,-11.334749,-19.608511,3.9282866
387,1436183323890,-9.388264,-19.608511,8.027759
388,1436183323891,-6.8947024,-19.608511,8.021772
389,1436183323892,-6.917447,-19.608511,4.747103
390,1436183323915,-7.035362,-18.368914,1.1121067
391,1436183323926,-7.0275807,-16.470911,-0.062249243
392,1436183323944,-6.9491706,-12.9005575,-1.6418238
393,1436183323964,-5.807735,-9.531317,-2.7647045
394,1436183323984,-4.431069,-6.2351,-3.5422213
395,1436183324004,-3.4913447,-2.7688942,-3.5224693
396,1436183324029,-3.0460231,0.24061728,-3.8301241
397,1436183324044,-3.1238346,2.4037786,-4.06715
398,1436183324064,-3.177704,3.5344403,-4.0222588
399,1436183324084,-2.9119477,3.7175968,-3.8097734
400,1436183324107,-2.4438813,3.2998085,-3.3608606
401,1436183324127,-1.8124107,2.0278888,-2.7700913
402,1436183324147,-1.3820529,-0.48003745,-3.141791
403,1436183324167,-2.8311436,-8.001422,-1.5275006
404,1436183324187,-11.1174755,-19.608511,3.5404258
405,1436183324207,-18.677767,-19.608511,-0.29269117
406,1436183324227,-18.088194,-19.608511,5.333683
407,1436183324248,-11.135432,-19.608511,7.8248496
