id,attr_time,attr_x,attr_y,attr_z
1,1437147221407,9.704897,-1.3084313,1.869273
2,1437147221427,9.78989,-1.2910733,1.8351556
3,1437147221448,9.734225,-1.1923125,1.7687165
4,1437147221468,9.651626,-1.1240777,1.804031
5,1437147221486,9.648034,-1.1779473,1.8423382
6,1437147221505,9.7007065,-1.2868834,1.8656816
7,1437147221525,9.742006,-1.3192052,1.8668787
8,1437147221544,9.695918,-1.2401965,1.8022354
9,1437147221582,9.673772,-1.1833342,1.7603368
10,1437147221587,9.752781,-1.1875241,1.8166006
11,1437147221605,9.737218,-1.2635399,1.7764976
12,1437147221624,9.621099,-1.287482,1.7190368
13,1437147221645,9.583989,-1.2509704,1.6861166
14,1437147221669,9.70789,-1.1719618,1.702876
15,1437147221686,9.87668,-1.186327,1.762731
16,1437147221705,9.863512,-1.1917139,1.8130093
17,1437147221726,9.74859,-1.1593921,1.7890673
18,1437147221745,9.649231,-1.1605892,1.7824832
19,1437147221767,9.633071,-1.2719196,1.7160441
20,1437147221788,9.691729,-1.2324153,1.6364368
21,1437147221806,9.8042555,-1.1671734,1.6879122
22,1437147221826,9.813234,-1.163582,1.690905
23,1437147221848,9.727043,-1.198298,1.7423803
24,1437147221868,9.6049385,-1.2264298,1.7190368
25,1437147221888,9.621698,-1.2539631,1.7286136
26,1437147221910,9.734824,-1.2132617,1.6681601
27,1437147221930,9.73662,-1.1528081,1.7184383
28,1437147221949,9.712079,-1.0965444,1.763928
29,1437147221966,9.7324295,-1.2006922,1.797447
30,1437147221990,9.693524,-1.2372037,1.7034745
31,1437147222022,9.679159,-1.2138603,1.7058687
32,1437147222028,9.668385,-1.1821371,1.6992847
33,1437147222045,9.712678,-1.1599907,1.7776948
34,1437147222066,9.785701,-1.2084733,1.7938557
35,1437147222086,9.713875,-1.2312182,1.697489
36,1437147222107,9.6049385,-1.1923125,1.6424223
37,1437147222175,9.64145,-1.1905168,1.6843209
38,1437147222176,9.800665,-1.2198458,1.8363527
39,1437147222177,9.847352,-1.283292,1.8728642
40,1437147222187,9.709086,-1.2324153,1.8004397
41,1437147222206,9.58818,-1.1791444,1.775899
42,1437147222228,9.598953,-1.1659763,1.7262194
43,1437147222246,9.68694,-1.198298,1.7884687
44,1437147222266,9.779716,-1.2156559,1.881244
45,1437147222286,9.81922,-1.2114661,1.9069817
46,1437147222306,9.728839,-1.1881226,1.8908207
47,1437147222326,9.69113,-1.2024878,1.8806454
48,1437147222349,9.651626,-1.2856863,1.839944
49,1437147222368,9.639056,-1.2922704,1.7812861
50,1437147222387,9.656414,-1.2449849,1.7962499
51,1437147222407,9.709685,-1.1869255,1.9261353
52,1437147222427,9.649231,-1.1833342,1.9219455
53,1437147222447,9.651027,-1.1947067,1.8590976
54,1437147222467,9.69113,-1.2749124,1.8375498
55,1437147222529,9.795278,-1.2892777,1.8297687
56,1437147222531,9.763555,-1.2132617,1.9219455
57,1437147222532,9.634866,-1.1552023,1.8728642
58,1437147222550,9.49301,-1.1875241,1.9237411
59,1437147222576,9.566631,-1.270124,1.929128
60,1437147222592,9.721058,-1.287482,1.899799
61,1437147222630,9.737218,-1.2198458,1.8507179
62,1437147222631,9.677363,-1.1803415,1.8369513
63,1437147222648,9.583989,-1.1713632,1.9273324
64,1437147222666,9.631275,-1.2551602,1.9452889
65,1437147222690,9.6767645,-1.3204023,1.8806454
66,1437147222707,9.657013,-1.264737,1.7884687
67,1437147222728,9.595961,-1.1055226,1.763928
68,1437147222747,9.589975,-1.0606314,1.8237832
69,1437147222767,9.524733,-1.0660183,1.8686744
70,1437147222786,9.449316,-1.0630256,1.8315643
71,1437147222807,9.592369,-1.0630256,1.9213469
72,1437147222826,9.792884,-1.1647792,1.951873
73,1437147222846,9.629479,-1.1330559,1.6897079
74,1437147222867,9.23264,-0.9379285,1.5119383
75,1437147222893,9.036316,-1.0354922,1.6112977
76,1437147222912,9.0237465,-1.3652935,1.6980876
77,1437147222928,9.026739,-1.4520833,1.6843209
78,1437147222950,9.362526,-1.4329298,1.6430209
79,1437147223002,9.9928,-1.4095862,1.5053543
80,1437147223013,9.809643,-1.4460979,1.1079168
81,1437147223014,8.929175,-1.2850877,0.44532153
82,1437147223035,7.9691005,-0.88944596,-0.022744916
83,1437147223048,7.313688,-0.374094,0.15741876
84,1437147223066,7.0754647,-0.090979666,0.40043023
85,1437147223086,7.2568254,-0.492607,0.5931635
86,1437147223108,7.2831616,-1.2120646,0.31364042
87,1437147223130,6.6630635,-1.1959038,-0.05267244
88,1437147223148,7.0646906,-1.0241197,0.9804256
89,1437147223167,9.456498,-1.4975731,1.9931729
90,1437147223190,13.304579,-2.119467,2.8395233
91,1437147223208,16.988657,-2.4361002,3.5571852
92,1437147223227,18.930355,-1.8267759,5.7203465
93,1437147223247,19.47324,-1.282095,7.3507977
94,1437147223269,19.607914,-2.3750482,7.542334
95,1437147223290,19.607914,-3.1016884,5.100847
96,1437147223310,19.607914,0.046686932,1.0618285
97,1437147223330,18.86631,-0.013766659,0.42197806
98,1437147223347,13.34109,-2.0266917,-0.91578215
99,1437147223367,9.231443,-2.3511062,-1.198298
100,1437147223388,5.0374002,-2.1853075,-0.7673417
101,1437147223408,-1.1767502,-1.7076644,-1.2653356
102,1437147223431,-5.827487,0.6374562,-2.0153193
103,1437147223483,-5.1559134,2.2230163,-1.7824832
104,1437147223493,0.37948096,0.9163807,-0.43993455
105,1437147223494,4.0025067,-1.1845313,-0.30585927
106,1437147223521,2.1134815,-1.7525556,-1.0121487
107,1437147223528,-0.492607,-0.7781156,-0.6973112
108,1437147223547,-0.86969376,-0.032920275,-0.6727707
109,1437147223573,-0.48602295,0.84455466,-0.5931635
110,1437147223588,0.19812019,0.83976626,-0.46327803
111,1437147223608,1.4107834,0.09935937,-0.04369418
112,1437147223627,5.137358,-0.4285621,-0.35434186
113,1437147223680,9.747394,-2.3600843,-5.000889
114,1437147223681,13.305776,-2.385822,-2.806603
115,1437147223691,16.535555,-0.6655881,7.237672
116,1437147223711,19.607914,-1.4862007,4.746505
117,1437147223729,19.607914,0.9487024,1.9919758
118,1437147223747,19.607914,2.2720973,3.2998085
119,1437147223768,19.607914,-5.571906,4.159327
120,1437147223788,19.607914,-7.3190746,7.9726915
121,1437147223808,19.607914,-1.5292963,6.323685
122,1437147223830,19.607914,3.8139634,-2.9107506
123,1437147223850,16.836027,4.7243586,-4.0827127
124,1437147223872,13.325528,2.034473,-1.9351135
125,1437147223889,7.9906483,-2.755726,-0.7212533
126,1437147223911,2.7060466,-5.246893,-0.051475335
127,1437147223963,-0.7350199,-3.1190462,0.272939
128,1437147223976,-3.6804867,0.3645172,0.18794483
129,1437147223977,-3.6858735,2.617461,-1.4730326
130,1437147223997,-0.30765492,2.079364,-1.8896236
131,1437147224009,2.15957,0.45250413,-0.6410475
132,1437147224028,1.3796587,-1.134253,0.11312603
133,1437147224054,-0.2148796,-1.3802572,-0.5422867
134,1437147224069,-0.5602432,0.07062895,-0.90381116
135,1437147224089,-0.49440265,1.050456,-0.14425065
136,1437147224109,0.5105635,0.014963761,0.35793316
137,1437147224128,4.010288,-1.650802,-0.9828198
138,1437147224149,8.816648,-1.9219455,-1.9219455
139,1437147224169,11.661558,-1.412579,0.110731825
140,1437147224189,18.905214,-1.4664485,6.057929
141,1437147224209,19.607914,-3.1280246,4.349067
142,1437147224229,19.607914,-0.30466217,4.618415
143,1437147224252,19.607914,3.6990416,2.0207062
144,1437147224272,19.607914,0.034117375,4.256891
145,1437147224292,19.607914,-7.1383123,7.6243353
146,1437147224310,19.537884,-5.2199583,3.359065
147,1437147224329,16.833035,-1.3162124,3.0573955
148,1437147224348,15.188217,1.429937,0.6087258
149,1437147224367,10.602722,0.55126494,-1.5699978
150,1437147224389,5.5898623,-1.3599066,-1.002572
151,1437147224409,1.0971429,-2.0925324,-0.98940384
152,1437147224463,-3.4003649,-0.82360536,-0.492607
153,1437147224464,-5.6664767,1.4137762,-0.20530279
154,1437147224469,-4.7297454,2.0153193,-0.86969376
155,1437147224510,-0.32800564,1.027711,-1.4449008
156,1437147224511,3.0226796,-0.3764882,-1.1426327
157,1437147224528,2.32058,-0.8888474,-0.22924481
158,1437147224555,-0.15203181,-0.28191724,-1.395221
159,1437147224568,-1.7022774,0.6314707,-1.0570401
160,1437147224588,-0.87567925,0.9864111,0.3369839
161,1437147224610,1.9111716,-0.28550854,1.7531542
162,1437147224631,6.015432,-1.1079168,-0.090979666
163,1437147224651,10.530896,-2.7281928,-2.5767596
164,1437147224670,18.165407,-3.6721067,2.8760347
165,1437147224690,19.607914,-2.7401638,4.06715
166,1437147224710,19.607914,-0.22804771,5.0320134
167,1437147224732,19.607914,1.0193313,7.457938
168,1437147224759,19.607914,-1.8746599,7.8649526
169,1437147224774,19.607914,-3.063381,8.136695
170,1437147224793,19.607914,-3.9228995,6.8079123
171,1437147224809,19.607914,-3.7128084,2.0398598
172,1437147224829,16.96711,-1.0468647,-2.554613
173,1437147224849,11.419145,0.4794389,-2.4157495
174,1437147224870,5.4581814,0.0796072,-0.8218097
175,1437147224889,0.3345897,-0.48003745,0.90021986
176,1437147224949,-4.1240125,-0.4758476,1.3198037
177,1437147224950,-5.798158,0.19752164,0.96187055
178,1437147224951,-2.3690627,0.705691,-1.4443022
179,1437147224974,1.9578584,0.40761283,-2.0721815
180,1437147224990,4.0695443,0.10175357,-1.4951789
181,1437147225021,2.0446482,-0.1921347,-0.55964464
182,1437147225029,-0.4758476,0.008978256,-0.320823
183,1437147225050,-2.0039468,0.14903906,0.13826515
184,1437147225076,-1.4490906,0.017357962,-0.53211135
185,1437147225090,-0.717662,-0.18375498,-0.9768343
186,1437147225109,0.8984242,-0.7212533,-0.7553706
187,1437147225130,2.9346926,-0.85413146,0.22744916
188,1437147225150,5.5270147,-0.90500826,-0.5482722
189,1437147225169,8.949526,-1.7753005,-2.6677392
190,1437147225189,15.65389,-2.1362264,4.51726
191,1437147225209,19.607914,-4.469376,9.752182
192,1437147225231,19.607914,-1.5460558,5.644929
193,1437147225250,19.607914,3.2094274,-1.4885949
194,1437147225272,19.607914,-3.459023,4.309563
195,1437147225289,19.607914,-7.305308,7.290344
196,1437147225310,17.087418,-1.9147629,2.8395233
197,1437147225330,12.805986,2.3511062,-1.2258313
198,1437147225350,8.488044,1.7741034,-1.9213469
199,1437147225374,2.72939,-0.2885013,-1.0576386
200,1437147225421,-0.12270284,-1.2982559,-1.3180081
201,1437147225422,-4.2179847,-2.0129251,-2.066196
202,1437147225429,-5.773019,-1.3892355,-0.09995792
203,1437147225449,-1.7316064,-0.49200845,1.42455
204,1437147225470,2.4887726,-0.22864626,-1.0001777
205,1437147225488,2.4013844,0.741604,-2.9442697
206,1437147225515,0.4854244,1.7477672,-3.376423
207,1437147225530,-0.6398504,1.532289,-2.9903579
208,1437147225550,-1.1174936,0.2657564,-0.89423436
209,1437147225572,-0.34237084,-1.1881226,0.66858083
210,1437147225591,2.8413188,-1.2072762,1.8291701
211,1437147225609,8.5060005,-1.0378864,1.1791444
212,1437147225630,13.598467,-0.57999533,-2.5552118
213,1437147225649,19.062634,-0.9127894,1.0767922
214,1437147225669,19.607914,-2.2260091,2.5893292
215,1437147225690,19.607914,-2.5923219,5.839458
216,1437147225711,19.607914,-2.4355016,5.823297
217,1437147225729,19.607914,0.41299978,4.7788267
218,1437147225795,19.607914,-2.3523033,6.3901243
219,1437147225802,19.607914,-3.09271,3.9456444
220,1437147225803,19.607914,-0.92535895,-2.0745757
221,1437147225809,15.024214,0.48841715,-3.0951042
222,1437147225829,8.702923,0.260968,-1.7124528
223,1437147225850,3.1070752,-1.5376761,-0.025139118
224,1437147225871,-2.1571758,-2.345719,1.4449008
225,1437147225932,-5.9238534,-0.7140707,0.842759
226,1437147225933,-4.8440685,1.2515689,-1.0869676
227,1437147225934,-0.61650693,1.3186066,-3.0711622
228,1437147225956,2.8173769,0.7667431,-3.1238346
229,1437147225969,2.7832594,0.051475335,-1.70946
230,1437147225997,0.6488287,-0.31304187,-0.46267948
231,1437147226010,-0.599149,-0.37588966,0.011372458
232,1437147226033,-1.5825673,-0.017357962,0.59855044
233,1437147226050,-0.008978256,0.23163901,0.75956047
234,1437147226075,1.9147629,-0.50278234,0.6278794
235,1437147226092,4.505289,-1.7142484,-1.8243817
236,1437147226112,7.3645644,-1.4167689,-3.627814
237,1437147226131,12.975975,0.051475335,2.5031378
238,1437147226151,19.607914,-2.7084408,6.127361
239,1437147226187,19.607914,-2.4540567,8.937555
240,1437147226190,19.607914,1.8866309,0.3321955
241,1437147226209,19.607914,-1.1300632,4.8997335
242,1437147226229,19.607914,-4.332308,8.655039
243,1437147226249,19.372084,-3.376423,1.134253
244,1437147226270,12.837709,-2.4540567,-1.5185224
245,1437147226290,7.427412,-1.2228385,-1.2437878
246,1437147226310,5.341464,-0.06823475,-1.4221559
247,1437147226338,0.6194997,1.1234791,-1.6035166
248,1437147226391,-3.4326868,0.93254155,-0.94810385
249,1437147226392,-4.876989,0.05925649,-1.163582
250,1437147226393,-3.0484173,-0.51475334,-0.2908955
251,1437147226428,1.2934675,-0.40342298,0.36870706
252,1437147226431,3.115455,-0.13108255,-0.9900024
253,1437147226449,1.910573,0.46387658,-2.0338743
254,1437147226470,-0.24660277,0.8475474,-2.6372132
255,1437147226490,-1.8369513,1.0630256,-2.7850552
256,1437147226513,-1.8722657,0.6979098,-2.0685902
257,1437147226531,0.8559271,-0.094570965,-1.1366472
258,1437147226551,5.477335,-0.5093664,-0.33877954
259,1437147226573,9.727043,-0.7739257,-0.079008654
260,1437147226590,12.874221,-1.3736732,-0.19512744
261,1437147226610,19.353529,-1.7082629,3.7463272
262,1437147226631,19.607914,-1.0103531,4.1024647
263,1437147226650,19.607914,0.01616086,5.301361
264,1437147226673,19.607914,-0.6242881,4.1054573
265,1437147226694,19.607914,-0.093972415,5.2540755
266,1437147226715,19.607914,-1.6448165,6.6295447
267,1437147226733,19.607914,-3.7044287,4.970961
268,1437147226752,19.607914,-2.5725696,1.5580268
269,1437147226775,19.607914,-1.9422961,-0.04189853
270,1437147226791,16.783953,-1.2587515,-1.271321
271,1437147226810,10.638636,-0.60214174,-1.9387048
272,1437147226940,5.5910597,0.42197806,-1.3431472
273,1437147226941,0.4405331,0.7386112,-1.0696096
274,1437147226942,-3.566762,0.2789245,-0.878672
275,1437147226965,-5.3923407,0.03172317,-1.2354081
276,1437147226966,-2.6856956,0.095169514,-0.60693014
277,1437147226974,-0.31663316,0.046686932,-0.33039984
278,1437147226975,3.2704794,0.15861586,-0.95468795
279,1437147226976,2.3127987,0.055066638,-1.4975731
280,1437147227152,-0.23163901,-0.2633622,-1.3790601
281,1437147227153,-1.6771383,-0.36391866,-0.85293436
282,1437147227154,-1.3281834,0.032920275,-0.82719666
283,1437147227155,-0.008978256,0.35194764,-1.4987702
284,1437147227156,0.95588505,0.40462008,-1.7058687
285,1437147227157,1.8171991,-0.019752163,-0.39803603
286,1437147227158,3.8642416,-0.7517793,0.09935937
287,1437147227159,7.020398,-1.9692309,-0.38965634
288,1437147227160,10.857705,-1.520318,1.2509704
289,1437147227185,18.601152,-2.2242134,4.914099
290,1437147227191,19.607914,-6.7330937,2.831742
291,1437147227217,19.607914,-0.004189853,4.5842977
292,1437147227231,19.607914,3.50152,0.46866497
293,1437147227250,19.607914,0.93014735,4.0294414
294,1437147227270,19.607914,-6.7947445,9.136273
295,1437147227291,19.607914,-4.6022544,5.116409
296,1437147227309,16.20695,-1.7782934,1.1941081
297,1437147227329,13.147161,-0.29927522,-2.60549
298,1437147227349,9.029133,0.44711718,-2.9281087
299,1437147227370,3.318962,-0.25558102,-2.2319946
300,1437147227390,-0.93613285,-0.5530606,-1.4664485
301,1437147227410,-4.0414124,-0.10055647,0.031124622
302,1437147227430,-4.5807066,0.43514615,0.0023942017
303,1437147227449,-0.93493575,0.2657564,-0.011372458
304,1437147227469,2.779668,-0.046686932,-0.1933318
305,1437147227489,3.1729157,-0.20231004,-0.65421563
306,1437147227509,0.60214174,-0.16160862,-0.8996213
307,1437147227529,-1.7058687,0.3842694,-1.3437457
308,1437147227549,-2.178125,0.7990648,-1.6609775
309,1437147227570,-1.7699136,1.1899183,-2.1068976
310,1437147227592,-0.3764882,0.2777274,-1.9482816
311,1437147227612,2.2589293,-0.40282443,-1.2413936
312,1437147227633,5.631162,-1.1186907,0.31304187
313,1437147227653,8.804078,-2.5647886,0.64703304
314,1437147227671,12.3876,-3.3303347,1.9255368
315,1437147227703,19.273323,-3.0693667,2.694674
316,1437147227710,19.607914,-2.8532898,6.4152637
317,1437147227730,19.607914,1.8668787,6.5379663
318,1437147227750,19.607914,2.1380222,3.0753522
319,1437147227772,19.607914,-5.9968767,7.207744
320,1437147227791,19.607914,-7.351396,7.1808095
321,1437147227811,19.604322,-3.1064768,1.3293805
322,1437147227832,16.455349,-0.022146367,-0.6733692
323,1437147227857,14.490906,0.7445967,-1.2497733
324,1437147227873,9.980828,0.25079262,-1.3431472
325,1437147227899,4.5364137,-0.23523031,-1.5556326
326,1437147227913,-0.29388827,-0.18076223,-0.88944596
327,1437147227935,-4.055179,-0.2621651,-0.08798691
328,1437147227955,-5.876568,-0.2777274,0.1364695
329,1437147227974,-2.4678235,0.36750996,-0.17537527
330,1437147227993,2.1362264,0.6218939,-0.74998367
331,1437147228014,3.1573534,1.1965023,-1.501763
332,1437147228035,0.53450555,1.2946646,-1.5496471
333,1437147228054,-1.4826094,0.6410475,-1.9033904
334,1437147228074,-1.2000936,-0.073621705,-1.8662802
335,1437147228092,0.14724341,-0.44951138,-0.7763199
336,1437147228112,0.7009025,-0.62129533,-0.16340427
337,1437147228179,0.8559271,-0.62847793,0.3537433
338,1437147228180,1.6490064,-0.5722142,0.6955156
339,1437147228181,5.0559554,-0.6619968,0.98940384
340,1437147228202,9.17099,-1.3239936,-1.2611457
341,1437147229549,12.5186825,-1.2970588,-2.0153193
342,1437147229550,19.583372,-4.115034,5.6646814
343,1437147229551,19.607914,-6.364985,6.55712
344,1437147229552,19.607914,2.4971523,4.9643774
345,1437147229553,19.607914,5.4551888,2.645593
346,1437147229554,19.607914,-3.3171666,6.6205664
347,1437147229555,19.607914,-9.396643,7.277775
348,1437147229556,19.607914,-4.5513773,0.6422446
349,1437147229557,17.688961,-0.76315176,-1.0420763
350,1437147229558,12.175713,0.4297592,-1.2970588
351,1437147229559,6.5840545,1.4646529,-1.0085574
352,1437147229560,1.1575965,1.2090719,-0.694917
353,1437147229561,-3.1693244,-0.23762453,-0.32621
354,1437147229562,-4.109049,-0.99778354,-0.76554596
355,1437147229563,-4.633379,-1.5855601,-1.4514848
356,1437147229564,-1.2078748,-0.58897364,-0.46627077
357,1437147229565,2.72939,0.84934306,-0.36990416
358,1437147229566,2.678513,1.3365631,-1.3305776
359,1437147229567,0.08678981,0.7685388,-1.3012487
360,1437147229568,-1.5807717,-0.054468088,-1.4036007
361,1437147229569,-1.5382746,-0.10594343,-1.1569979
362,1437147229570,-0.24959552,0.20649989,-1.1133038
363,1437147229571,0.57879823,0.06943185,-1.3575124
364,1437147229572,0.97862995,-0.23702596,-1.1815386
365,1437147229573,2.7850552,-0.23702596,-0.90381116
366,1437147229574,5.943606,-1.0127473,-1.3676877
367,1437147229575,10.031705,-1.9416976,-1.4478935
368,1437147229576,16.655863,-3.1896753,5.5126495
369,1437147229577,19.563023,-4.7985787,6.1225724
370,1437147229578,19.607914,-6.3793507,4.891354
371,1437147229579,19.607914,1.7459716,4.0827127
372,1437147229580,19.607914,6.1596823,0.6440403
373,1437147229581,19.607914,-3.9103298,4.5394063
374,1437147229582,19.607914,-11.019912,6.329671
375,1437147229583,19.607914,-5.9268465,3.6990416
376,1437147229584,19.255367,-0.22026655,2.1392193
377,1437147229585,16.027983,2.2918496,-1.8549078
378,1437147229586,10.070611,1.1935096,-2.3187842
379,1437147229587,3.657143,-0.9295488,-1.6753427
380,1437147229588,-1.5903485,-2.2152352,-1.809418
381,1437147229589,-4.9799395,-1.1360487,-0.90500826
382,1437147229590,-4.7309427,1.3377602,-0.06464344
383,1437147229591,-0.74878657,1.8483237,0.55964464
384,1437147229592,1.1456255,1.1731589,0.022146367
385,1437147229593,2.8491,0.33159694,-1.9201498
386,1437147229594,1.1905168,0.18914193,-1.9853917
387,1437147229595,-0.87328506,0.32441434,-1.6986861
388,1437147229596,-1.5520413,0.08499416,-1.0366893
389,1437147229597,-0.641646,-0.21308395,-1.1498153
390,1437147229598,0.6410475,-0.23762453,-1.6454151
391,1437147229599,0.7038953,-0.19093758,-1.8237832
392,1437147229600,1.0941502,0.061650693,-1.650802
393,1437147229601,3.7271736,0.29269117,-1.6729485
394,1437147229602,7.529764,-0.6398504,-0.7374141
395,1437147229603,12.249933,-1.9500773,4.8201265
396,1437147229604,19.437925,-4.06296,5.6898203
397,1437147229605,19.607914,-2.9107506,4.3688197
398,1437147229606,19.607914,3.7750576,3.5978866
399,1437147229607,19.607914,-1.6837224,2.4157495
400,1437147229608,19.607914,-5.565322,5.752668
401,1437147229609,19.607914,-8.642469,8.851962
402,1437147229610,19.607914,-1.1282675,2.348712
403,1437147229611,18.867506,3.4117374,-2.6515784
404,1437147229612,13.23395,1.4562732,-3.1250317
405,1437147229613,6.9366007,-1.496376,-2.3289597
406,1437147229614,1.2539631,-3.2411506,-1.6424223
407,1437147229615,-2.8395233,-2.2056582,-0.31244332
