id,attr_time,attr_x,attr_y,attr_z
1,1436371709196,-0.15382746,9.983821,-1.2090719
2,1436371709197,-0.12090719,9.992201,-1.1540052
3,1436371709198,-0.15143326,9.994595,-1.1486182
4,1436371709199,-0.13467385,10.002377,-1.1575965
5,1436371709200,-0.1316811,9.998785,-1.1671734
6,1436371709201,-0.15263036,10.001778,-1.1162965
7,1436371709202,-0.10175357,10.010158,-1.1450269
8,1436371709203,-0.12988544,9.981427,-1.2018893
9,1436371709204,-0.15083471,9.992201,-1.1611878
10,1436371709205,-0.16759412,10.010756,-1.1456255
11,1436371709206,-0.12928689,9.989806,-1.1575965
12,1436371709207,-0.110731825,9.9951935,-1.1611878
13,1436371709208,-0.13706805,9.979631,-1.1558008
14,1436371709209,-0.1592144,9.983821,-1.163582
15,1436371709210,-0.11552023,10.010756,-1.1426327
16,1436371709211,-0.16280572,9.985018,-1.1575965
17,1436371709212,-0.17956513,10.00477,-1.1761516
18,1436371709213,-0.12988544,9.9951935,-1.1605892
19,1436371709214,-0.15801731,9.9928,-1.1522095
20,1436371709215,-0.14963761,10.001179,-1.1426327
21,1436371709216,-0.15023616,9.994595,-1.1492168
22,1436371709237,-0.12629414,10.001179,-1.1719618
23,1436371709247,-0.15322891,10.003573,-1.1510124
24,1436371709263,-0.1412579,10.006566,-1.1492168
25,1436371709284,-0.14844051,9.986814,-1.1839328
26,1436371709306,-0.1604115,9.998785,-1.1755531
27,1436371709326,-0.18016368,9.977836,-1.1617863
28,1436371709345,-0.11492168,10.003573,-1.151611
29,1436371709370,-0.18076223,10.02153,-1.1456255
30,1436371709384,-0.142455,10.004171,-1.1468226
31,1436371709405,-0.15023616,9.993997,-1.1755531
32,1436371709426,-0.14844051,9.990405,-1.1546037
33,1436371709446,-0.16998832,9.987412,-1.1617863
34,1436371709466,-0.17477672,9.996989,-1.1611878
35,1436371709487,-0.18435353,9.998785,-1.1701661
36,1436371709509,-0.16220717,9.990405,-1.174356
37,1436371709528,-0.14844051,10.016143,-1.1887212
38,1436371709547,-0.16220717,10.001179,-1.1312603
39,1436371709567,-0.15442601,9.986814,-1.122282
40,1436371709588,-0.13946225,9.989806,-1.1420342
41,1436371709606,-0.16819267,9.999383,-1.1803415
42,1436371709632,-0.094570965,9.973047,-1.1384429
43,1436371709690,-0.1352724,9.97604,-1.1857284
44,1436371709691,-0.15981296,9.991602,-1.1390414
45,1436371709692,-0.14844051,9.985617,-1.1414356
46,1436371709704,-0.16101007,9.981427,-1.1492168
47,1436371709724,-0.12928689,9.997588,-1.1372458
48,1436371709750,-0.14844051,9.9790325,-1.1282675
49,1436371709766,-0.15382746,9.990405,-1.1569979
50,1436371709786,-0.15801731,9.999982,-1.2000936
51,1436371709806,-0.14844051,9.990405,-1.1731589
52,1436371709825,-0.15502456,9.991602,-1.1372458
53,1436371709846,-0.109534726,10.001179,-1.1522095
54,1436371709865,-0.17178397,9.989806,-1.2036849
55,1436371709887,-0.1328782,10.010756,-1.1629834
56,1436371709905,-0.14544775,9.991004,-1.1552023
57,1436371709927,-0.13946225,10.007763,-1.1528081
58,1436371709947,-0.12449849,10.007165,-1.1504139
59,1436371709967,-0.12808979,9.983821,-1.1288661
60,1436371709987,-0.1436521,10.00896,-1.1348516
61,1436371710008,-0.11611878,9.989208,-1.1540052
62,1436371710028,-0.11791443,9.985617,-1.1360487
63,1436371710047,-0.1412579,9.991004,-1.1414356
64,1436371710067,-0.14185645,9.9928,-1.1492168
65,1436371710089,-0.11492168,9.998785,-1.1300632
66,1436371710104,-0.17956513,9.989806,-1.146224
67,1436371710128,-0.20829555,10.004171,-1.1540052
68,1436371710148,-0.19512744,9.983821,-1.1857284
69,1436371710168,-0.17537527,9.991602,-1.1875241
70,1436371710188,-0.19033903,9.988011,-1.2162545
71,1436371710207,-0.16699557,9.996989,-1.1414356
72,1436371710227,-0.19093758,9.991602,-1.1528081
73,1436371710248,-0.1592144,9.97604,-1.1504139
74,1436371710266,-0.17836803,9.989208,-1.1827357
75,1436371710288,-0.17357962,10.006566,-1.1468226
76,1436371710308,-0.18674773,10.026319,-1.2024878
77,1436371710329,-0.17537527,9.998186,-1.1797429
78,1436371710348,-0.16579847,9.999982,-1.2036849
79,1436371710372,-0.12449849,9.994595,-1.1749545
80,1436371710447,-0.142455,9.970055,-1.134253
81,1436371710448,-0.16280572,10.01315,-1.1749545
82,1436371710449,-0.16579847,10.004171,-1.1528081
83,1436371710450,-0.16699557,9.986216,-1.1444284
84,1436371710466,-0.18495208,9.994595,-1.168969
85,1436371710486,-0.17836803,9.976639,-1.1683705
86,1436371710536,-0.20470424,9.983821,-1.1474211
87,1436371710537,-0.18914193,9.993997,-1.1330559
88,1436371710545,-0.14784196,9.998785,-1.1755531
89,1436371710566,-0.15263036,9.998186,-1.1504139
90,1436371710586,-0.15622166,9.969456,-1.1647792
91,1436371710606,-0.18734628,10.008362,-1.1468226
92,1436371710627,-0.1945289,9.988011,-1.1480197
93,1436371710648,-0.20111294,9.988011,-1.1779473
94,1436371710668,-0.17477672,9.998186,-1.1815386
95,1436371710688,-0.14963761,9.990405,-1.1432313
96,1436371710708,-0.1933318,9.999383,-1.1318588
97,1436371710728,-0.12988544,9.9951935,-1.1288661
98,1436371710748,-0.17956513,9.977836,-1.1408371
99,1436371710768,-0.14185645,9.9790325,-1.13964
100,1436371710788,-0.18794483,9.988011,-1.1851299
101,1436371710808,-0.14664486,10.010756,-1.1534066
102,1436371710827,-0.18255788,9.993398,-1.1803415
103,1436371710848,-0.18375498,10.013748,-1.1653777
104,1436371710868,-0.18255788,9.992201,-1.1426327
105,1436371710888,-0.17537527,9.987412,-1.1133038
106,1436371710908,-0.2088941,9.991004,-1.1330559
107,1436371710927,-0.16938977,10.015544,-1.1528081
108,1436371710947,-0.19033903,9.97604,-1.1162965
109,1436371710968,-0.18555063,9.98442,-1.1186907
110,1436371710988,-0.14544775,10.007763,-1.1468226
111,1436371711009,-0.17717093,9.9712515,-1.1426327
112,1436371711029,-0.1436521,9.98442,-1.1306617
113,1436371711047,-0.18076223,9.9951935,-1.1498153
114,1436371711067,-0.16699557,10.010158,-1.1378443
115,1436371711094,-0.15981296,10.006566,-1.1498153
116,1436371711153,-0.16938977,9.980229,-1.1474211
117,1436371711154,-0.14185645,9.980828,-1.1450269
118,1436371711155,-0.17477672,10.00896,-1.1671734
119,1436371711165,-0.17896658,9.991602,-1.1366472
120,1436371711186,-0.17298107,9.9951935,-1.1641805
121,1436371711209,-0.1436521,9.975441,-1.1372458
122,1436371711226,-0.19153613,9.99639,-1.1569979
123,1436371711246,-0.17956513,9.986216,-1.1785458
124,1436371711267,-0.16938977,9.986216,-1.13964
125,1436371711288,-0.18315643,9.980229,-1.1611878
126,1436371711308,-0.16220717,9.975441,-1.1456255
127,1436371711327,-0.19512744,10.011354,-1.1677719
128,1436371711347,-0.15083471,10.028113,-1.1079168
129,1436371711367,-0.16639702,9.988011,-1.1438298
130,1436371711389,-0.18375498,9.998186,-1.1629834
131,1436371711409,-0.14844051,9.9951935,-1.13964
132,1436371711429,-0.15741876,9.992201,-1.1414356
133,1436371711449,-0.17836803,9.997588,-1.1653777
134,1436371711469,-0.16759412,9.995792,-1.1617863
135,1436371711489,-0.17118542,9.9951935,-1.1498153
136,1436371711509,-0.16879122,10.010158,-1.1444284
137,1436371711529,-0.1945289,9.985617,-1.1587936
138,1436371711549,-0.18674773,9.99639,-1.1959038
139,1436371711567,-0.18435353,9.980828,-1.1797429
140,1436371711589,-0.21787235,9.986814,-1.1432313
141,1436371711608,-0.2220622,9.997588,-1.1617863
142,1436371711628,-0.2160767,10.001778,-1.1701661
143,1436371711646,-0.18974048,10.005369,-1.1773487
144,1436371711669,-0.22625206,10.005967,-1.1719618
145,1436371711689,-0.18435353,9.989208,-1.1725603
146,1436371711710,-0.23523031,9.99639,-1.1941081
147,1436371711729,-0.22385786,10.011953,-1.1534066
148,1436371711748,-0.21667525,10.005967,-1.1677719
149,1436371711767,-0.22984336,9.985018,-1.1965023
150,1436371711788,-0.24959552,9.981427,-1.2000936
151,1436371711816,-0.20410569,9.986814,-1.1797429
152,1436371711875,-0.21906945,9.982624,-1.1605892
153,1436371711876,-0.22565351,9.993997,-1.1617863
154,1436371711877,-0.18435353,10.001778,-1.1504139
155,1436371711886,-0.19033903,10.0029745,-1.1629834
156,1436371711906,-0.207697,9.991004,-1.1653777
157,1436371711930,-0.22266077,9.96766,-1.1719618
158,1436371711947,-0.25139117,9.988609,-1.1749545
159,1436371711966,-0.23163901,10.0269165,-1.2078748
160,1436371711986,-0.20949265,9.983223,-1.2156559
161,1436371712007,-0.2088941,10.00896,-1.1935096
162,1436371712030,-0.21787235,9.990405,-1.1815386
163,1436371712048,-0.21428105,9.990405,-1.1587936
164,1436371712070,-0.16280572,9.979631,-1.1923125
165,1436371712088,-0.20530279,9.985018,-1.1731589
166,1436371712108,-0.1945289,10.001778,-1.1306617
167,1436371712130,-0.15442601,9.996989,-1.1641805
168,1436371712150,-0.18974048,9.939528,-1.1749545
169,1436371712170,-0.2100912,9.980828,-1.1552023
170,1436371712190,-0.22984336,9.991004,-1.1228806
171,1436371712209,-0.19153613,9.998785,-1.1168951
172,1436371712227,-0.17537527,9.982025,-1.1665748
173,1436371712250,-0.16699557,9.97185,-1.1575965
174,1436371712269,-0.17717093,10.004171,-1.1599907
175,1436371712287,-0.2136825,9.980828,-1.1540052
176,1436371712310,-0.18974048,10.011354,-1.1228806
177,1436371712327,-0.18734628,9.997588,-1.1360487
178,1436371712347,-0.17776948,9.9928,-1.1803415
179,1436371712368,-0.18076223,10.0029745,-1.1755531
180,1436371712392,-0.18495208,9.998186,-1.1480197
181,1436371712410,-0.22984336,9.988011,-1.1336545
182,1436371712432,-0.1921347,9.991602,-1.1569979
183,1436371712450,-0.17836803,10.003573,-1.1623849
184,1436371712467,-0.17836803,9.989208,-1.1492168
185,1436371712487,-0.19093758,9.991602,-1.1540052
186,1436371712507,-0.17537527,9.994595,-1.1617863
187,1436371712537,-0.22864626,9.980229,-1.1803415
188,1436371712596,-0.20530279,9.992201,-1.1779473
189,1436371712597,-0.2136825,10.026319,-1.158195
190,1436371712598,-0.23403321,9.992201,-1.1821371
191,1436371712614,-0.18195933,9.991004,-1.1725603
192,1436371712627,-0.19752164,9.977836,-1.1749545
193,1436371712650,-0.18315643,10.006566,-1.1731589
194,1436371712667,-0.25977087,9.998186,-1.1779473
195,1436371712697,-0.18734628,9.988609,-1.2072762
196,1436371712707,-0.25139117,9.980828,-1.1947067
197,1436371712727,-0.22505496,9.993398,-1.1671734
198,1436371712750,-0.19153613,9.995792,-1.1881226
199,1436371712768,-0.1933318,10.022128,-1.1905168
200,1436371712790,-0.17776948,10.029311,-1.1599907
201,1436371712807,-0.14844051,10.040684,-1.1133038
202,1436371712828,-0.5177461,10.032304,-1.3180081
203,1436371712847,-0.56443304,10.004171,-1.3365631
204,1436371712867,-0.4201824,10.072407,-1.4191631
205,1436371712888,-0.5781997,10.001778,-1.3694834
206,1436371712908,-0.4213795,9.989208,-1.3018472
207,1436371712938,-0.3345897,10.03769,-1.2653356
208,1436371712975,-0.25139117,10.063428,-1.2270284
209,1436371712976,-0.093373865,10.094553,-1.1133038
210,1436371712988,0.0035913025,10.120291,-1.0307038
211,1436371713007,0.108337626,10.100538,-0.9959879
212,1436371713030,0.15741876,10.125677,-0.87687635
213,1436371713050,0.18734628,10.147824,-0.87089086
214,1436371713069,0.2908955,10.165182,-0.8643068
215,1436371713087,0.33758244,10.143634,-0.88645315
216,1436371713107,0.46866497,10.084976,-0.908001
217,1436371713127,0.729633,10.127473,-0.6931214
218,1436371713147,0.6757634,10.254965,-0.44711718
219,1436371713170,0.504578,10.037092,-0.60094464
220,1436371713190,0.96665895,9.981427,-0.53809685
221,1436371713212,1.1049241,9.836577,-0.59615624
222,1436371713228,1.2791022,9.701305,-0.6560113
223,1436371713300,1.282095,9.689933,-0.48243165
224,1436371713301,1.1959038,9.619304,-0.65062433
225,1436371713302,1.436521,9.491813,-0.61291564
226,1436371713314,1.4083891,9.415198,-0.62728083
227,1436371713328,1.2144588,9.57142,-0.79726917
228,1436371713347,1.1288661,9.849746,-0.7080852
229,1436371713368,0.66738373,9.982624,-0.748188
230,1436371713388,0.5021838,10.151415,-0.84096336
231,1436371713408,0.5231331,10.175357,-0.66379243
232,1436371713428,0.27353755,10.136452,-0.7170634
233,1436371713448,0.14724341,10.031705,-0.94690675
234,1436371713468,0.32441434,10.009559,-0.8559271
235,1436371713494,0.45549688,9.913192,-0.9103952
236,1436371713508,0.40402153,10.013748,-0.6937199
237,1436371713528,0.15861586,9.994595,-0.8750807
238,1436371713548,0.29628247,10.024523,-0.85772276
239,1436371713568,0.45729253,10.123882,-0.717662
240,1436371713588,0.38307226,10.028113,-0.79846627
241,1436371713611,0.43514615,10.010756,-0.676362
242,1436371713630,0.30945057,9.992201,-0.777517
243,1436371713650,0.23343466,9.958083,-0.8583213
244,1436371713670,0.26156655,9.977237,-0.8403648
245,1436371713690,0.11312603,10.007763,-0.9475053
246,1436371713710,-0.06943185,10.088568,-0.9600749
247,1436371713727,-0.17298107,10.191518,-1.0791864
248,1436371713747,-0.39624038,10.125677,-1.0564415
249,1436371713767,-0.7134721,10.038289,-1.264737
250,1436371713790,-0.90261406,10.043676,-1.4041992
251,1436371713810,-0.81522566,10.0341,-1.435324
252,1436371713829,-0.7505822,10.000581,-1.459266
253,1436371713850,-0.65421563,9.991004,-1.4873978
254,1436371713869,-0.3465607,9.994595,-1.3066356
255,1436371713890,-0.32441434,9.9790325,-1.2617443
256,1436371713922,-0.26036942,9.992201,-1.1420342
257,1436371713935,-0.23642741,10.008362,-1.1474211
258,1436371713949,-0.23582886,9.990405,-1.1791444
259,1436371713969,-0.23223756,9.991004,-1.2000936
260,1436371714015,-0.31004912,9.998186,-1.2797008
261,1436371714016,-0.3585317,9.98442,-1.3563153
262,1436371714031,-0.35194764,9.97604,-1.2749124
263,1436371714049,-0.40162733,9.961675,-1.3078327
264,1436371714067,-0.3573346,9.97185,-1.2934675
265,1436371714089,-0.32202014,9.983821,-1.3257892
266,1436371714109,-0.28790274,10.007763,-1.2695254
267,1436371714129,-0.32680854,9.968858,-1.2210429
268,1436371714149,-0.31483752,9.974843,-1.287482
269,1436371714172,-0.26156655,9.982624,-1.3425486
270,1436371714192,-0.28072014,9.942521,-1.3102269
271,1436371714209,-0.3657143,9.949704,-1.3245921
272,1436371714232,-0.31064767,9.982025,-1.3293805
273,1436371714252,-0.29388827,9.96766,-1.2826935
274,1436371714269,-0.3172317,9.958682,-1.2880806
275,1436371714291,-0.2873042,10.001778,-1.292869
276,1436371714312,-0.2657564,9.972448,-1.2797008
277,1436371714331,-0.3417723,9.958083,-1.377863
278,1436371714354,-0.29867667,9.949704,-1.3736732
279,1436371714369,-0.40641573,9.973646,-1.3694834
280,1436371714391,-0.31124622,10.006566,-1.3634979
281,1436371714409,-0.2705448,9.937134,-1.2844892
282,1436371714429,-0.22385786,9.977836,-1.3006501
283,1436371714448,-0.26276365,9.970055,-1.2976574
284,1436371714474,-0.23882163,9.970653,-1.2862848
285,1436371714490,-0.30226797,9.916783,-1.3347675
286,1436371714515,-0.31064767,10.003573,-1.3215994
287,1436371714529,-0.30765492,9.966463,-1.2868834
288,1436371714549,-0.27114335,9.980229,-1.287482
289,1436371714569,-0.21787235,9.97185,-1.2611457
290,1436371714589,-0.16220717,9.96766,-1.234211
291,1436371714611,-0.19093758,9.941922,-1.2641385
292,1436371714634,-0.20470424,9.956886,-1.2677298
293,1436371714700,-0.18016368,9.978435,-1.2575544
294,1436371714701,-0.24720132,9.989208,-1.3066356
295,1436371714702,-0.21667525,9.982025,-1.2629414
296,1436371714709,-0.20111294,9.983821,-1.2324153
297,1436371714729,-0.20350714,9.968259,-1.2671312
298,1436371714752,-0.19273324,9.977836,-1.3018472
299,1436371714770,-0.1921347,9.957485,-1.2844892
300,1436371714840,-0.25917232,9.996989,-1.2629414
301,1436371714855,-0.18674773,10.006566,-1.2294226
302,1436371714856,-0.20590134,9.983223,-1.3000516
303,1436371714857,-0.23223756,9.985617,-1.2898762
304,1436371714873,-0.28431144,9.988011,-1.3120226
305,1436371714889,-0.25917232,9.991602,-1.311424
306,1436371714912,-0.2908955,9.981427,-1.365892
307,1436371714933,-0.2861071,9.975441,-1.30484
308,1436371714952,-0.2693477,9.941922,-1.3078327
309,1436371714972,-0.24600422,9.950901,-1.3257892
310,1436371714990,-0.17178397,9.956287,-1.3281834
311,1436371715010,-0.19512744,9.955689,-1.3174095
312,1436371715032,-0.22146365,9.96347,-1.2892777
313,1436371715053,-0.2160767,9.988609,-1.3054385
314,1436371715071,-0.17058687,9.97185,-1.2988545
315,1436371715092,-0.20649989,9.96766,-1.3090298
316,1436371715124,-0.1945289,9.992201,-1.3293805
317,1436371715129,-0.1921347,9.961076,-1.3192052
318,1436371715158,-0.219668,9.968259,-1.3060371
319,1436371715177,-0.19393034,10.007763,-1.3054385
320,1436371715189,-0.22325931,9.979631,-1.3036429
321,1436371715209,-0.18435353,9.989806,-1.3491327
322,1436371715229,-0.19692309,9.987412,-1.3245921
323,1436371715253,-0.22984336,9.983223,-1.3162124
324,1436371715272,-0.22266077,9.983821,-1.3275849
325,1436371715292,-0.23702596,9.983223,-1.3395559
326,1436371715311,-0.22445641,9.988011,-1.340753
327,1436371715338,-0.17956513,9.983821,-1.3311762
328,1436371715392,-0.16879122,10.009559,-1.352724
329,1436371715398,-0.17717093,9.990405,-1.3389573
330,1436371715399,-0.21428105,9.985018,-1.2653356
331,1436371715413,-0.17118542,9.962274,-1.282095
332,1436371715431,-0.15622166,9.950302,-1.3174095
333,1436371715450,-0.19273324,9.98442,-1.3341689
334,1436371715470,-0.13108255,10.005967,-1.2946646
335,1436371715514,-0.14903906,9.953295,-1.2910733
336,1436371715518,-0.13826515,9.977237,-1.3060371
337,1436371715533,-0.090979666,9.982025,-1.30484
338,1436371715553,-0.15083471,9.967062,-1.3186066
339,1436371715572,-0.2100912,9.955689,-1.3221979
340,1436371715593,-0.18136078,9.989806,-1.2886791
341,1436371715613,-0.15083471,9.969456,-1.3138182
342,1436371715630,-0.17417817,9.97604,-1.3395559
343,1436371715653,-0.14963761,10.015544,-1.3210008
344,1436371715673,-0.21308395,9.969456,-1.3299791
345,1436371715693,-0.20949265,9.959281,-1.353921
346,1436371715710,-0.17896658,9.959879,-1.3533225
347,1436371715733,-0.17238252,9.979631,-1.3293805
348,1436371715753,-0.15801731,10.009559,-1.3210008
349,1436371715772,-0.19812019,10.01734,-1.3174095
350,1436371715793,-0.25019407,9.980229,-1.3227965
351,1436371715813,-0.16160862,9.993997,-1.316811
352,1436371715833,-0.16220717,9.973646,-1.3347675
353,1436371715851,-0.17896658,9.969456,-1.3012487
354,1436371715900,-0.18914193,9.96766,-1.3186066
355,1436371715901,-0.17776948,9.973047,-1.3221979
356,1436371715914,-0.15203181,9.975441,-1.3138182
357,1436371715936,-0.16879122,9.961076,-1.3305776
358,1436371715953,-0.219668,9.961076,-1.3210008
359,1436371715972,-0.16938977,9.985018,-1.328782
360,1436371715992,-0.16460137,9.976639,-1.3215994
361,1436371716012,-0.18734628,9.955689,-1.3186066
362,1436371716034,-0.18195933,9.975441,-1.2964603
363,1436371716053,-0.18974048,9.983821,-1.3090298
364,1436371716114,-0.25558102,9.986216,-1.2982559
365,1436371716115,-0.24241292,9.97185,-1.3054385
366,1436371716116,-0.18914193,9.986814,-1.3084313
367,1436371716130,-0.18195933,9.985018,-1.287482
368,1436371716152,-0.22146365,9.961675,-1.2862848
369,1436371716171,-0.18375498,9.968259,-1.283292
370,1436371716190,-0.19093758,9.974244,-1.3066356
371,1436371716216,-0.24121583,9.970653,-1.2916719
372,1436371716232,-0.2172738,9.9928,-1.2970588
373,1436371716253,-0.23762453,9.970653,-1.3192052
374,1436371716272,-0.19752164,9.974244,-1.3192052
375,1436371716292,-0.1933318,9.989806,-1.2982559
376,1436371716316,-0.18195933,9.9712515,-1.3132197
377,1436371716333,-0.18974048,9.968858,-1.3180081
378,1436371716354,-0.19991584,9.97185,-1.3192052
379,1436371716374,-0.18435353,9.980828,-1.3012487
380,1436371716394,-0.20171149,9.958682,-1.34195
381,1436371716414,-0.18255788,9.961076,-1.3299791
382,1436371716434,-0.19393034,9.990405,-1.3503298
383,1436371716453,-0.20171149,9.977237,-1.3389573
384,1436371716474,-0.19153613,9.983821,-1.316811
385,1436371716495,-0.20410569,9.970653,-1.3443443
386,1436371716511,-0.16220717,9.97185,-1.3335704
387,1436371716531,-0.18195933,9.977237,-1.3569138
388,1436371716551,-0.2160767,9.988011,-1.3269863
389,1436371716571,-0.2681506,9.986216,-1.359308
390,1436371716592,-0.21787235,9.967062,-1.3299791
391,1436371716619,-0.22445641,9.959281,-1.3724761
392,1436371716637,-0.21188685,9.957485,-1.3335704
393,1436371716654,-0.17956513,9.981427,-1.3401544
394,1436371716673,-0.14604631,9.941324,-1.347337
395,1436371716696,-0.062249243,9.989806,-1.3599066
396,1436371716714,-0.11552023,9.965266,-1.3676877
397,1436371716732,-0.08738836,9.950302,-1.3533225
398,1436371716753,-0.1352724,9.980828,-1.3682863
399,1436371716777,-0.12569559,9.96766,-1.311424
400,1436371716825,-0.14664486,9.973047,-1.3563153
401,1436371716838,-0.14844051,9.948506,-1.3551182
402,1436371716839,-0.13706805,9.973047,-1.3263878
