id,attr_time,attr_x,attr_y,attr_z
1,1438258290019,-9.494206,2.2140381,-1.1067197
2,1438258290039,-9.4457245,2.2146366,-1.1061212
3,1438258290059,-9.44333,2.2092497,-1.122282
4,1438258290080,-9.466075,2.2337902,-1.1486182
5,1438258290100,-9.486425,2.2188265,-1.1546037
6,1438258290117,-9.444528,2.2140381,-1.1318588
7,1438258290140,-9.482835,2.179322,-1.1270704
8,1438258290160,-9.485827,2.1637597,-1.1025299
9,1438258290178,-9.49301,2.123657,-1.110311
10,1438258290205,-9.464279,2.1254525,-1.1085154
11,1438258290279,-9.470264,2.1428106,-1.1025299
12,1438258290280,-9.474455,2.1625626,-1.1270704
13,1438258290281,-9.454702,2.1865046,-1.1414356
14,1438258290282,-9.462483,2.183512,-1.1587936
15,1438258290299,-9.502586,2.1691468,-1.1372458
16,1438258290318,-9.469068,2.168548,-1.1348516
17,1438258290337,-9.457097,2.1045034,-1.1366472
18,1438258290362,-9.562442,2.119467,-1.1486182
19,1438258290377,-9.54209,2.136825,-1.1492168
20,1438258290398,-9.494805,2.142212,-1.127669
21,1438258290418,-9.454104,2.1505916,-1.1031284
22,1438258290438,-9.44333,2.15957,-1.0941502
23,1438258290461,-9.442732,2.19249,-1.0881647
24,1438258290479,-9.427768,2.2260091,-1.0965444
25,1438258290499,-9.43495,2.2349873,-1.1186907
26,1438258290520,-9.440337,2.2254105,-1.1384429
27,1438258290543,-9.491214,2.2122424,-1.1264719
28,1438258290560,-9.478046,2.180519,-1.1115081
29,1438258290580,-9.431359,2.1865046,-1.0929531
30,1438258290600,-9.503783,2.1894975,-1.0965444
31,1438258290619,-9.475053,2.1930888,-1.1025299
32,1438258290640,-9.44752,2.2266076,-1.1091139
33,1438258290662,-9.425373,2.2182279,-1.1049241
34,1438258290678,-9.467272,2.1960814,-1.1115081
35,1438258290697,-9.48463,2.172738,-1.1318588
36,1438258290724,-9.495404,2.1577742,-1.1097125
37,1438258290739,-9.511565,2.1380222,-1.1145009
38,1438258290764,-9.512762,2.1362264,-1.0815806
39,1438258290777,-9.4535055,2.1134815,-1.0869676
40,1438258290799,-9.465476,2.156577,-1.0654198
41,1438258290819,-9.48463,2.166154,-1.079785
42,1438258290840,-9.454104,2.1787236,-1.0935516
43,1438258290861,-9.461885,2.1984756,-1.1055226
44,1438258290882,-9.494805,2.1601684,-1.0839748
45,1438258290901,-9.450513,2.171541,-1.086369
46,1438258290918,-9.450513,2.1930888,-1.0977415
47,1438258290945,-9.513959,2.19668,-1.0929531
48,1438258291009,-9.510966,2.2331917,-1.0989386
49,1438258291010,-9.478644,2.211644,-1.0791864
50,1438258291011,-9.444528,2.2140381,-1.0456676
51,1438258291019,-9.416395,2.2170308,-1.0199299
52,1438258291046,-9.408614,2.2571337,-1.0313023
53,1438258291058,-9.3822775,2.3295584,-1.0726024
54,1438258291080,-9.406818,2.3714569,-1.1133038
55,1438258291099,-9.407417,2.4139538,-1.1450269
56,1438258291118,-9.442133,2.3894134,-1.1522095
57,1438258291138,-9.415198,2.3666685,-1.1492168
58,1438258291159,-9.431359,2.3654714,-1.151611
59,1438258291180,-9.487623,2.3122003,-1.1168951
60,1438258291203,-9.405622,2.3110032,-1.1085154
61,1438258291218,-9.414599,2.3145945,-1.1312603
62,1438258291243,-9.428367,2.3014264,-1.1294646
63,1438258291257,-9.428965,2.2996306,-1.1713632
64,1438258291277,-9.470264,2.2768857,-1.1797429
65,1438258291298,-9.476251,2.2469583,-1.1821371
66,1438258291318,-9.485827,2.2146366,-1.1563994
67,1438258291340,-9.486425,2.1853075,-1.1546037
68,1438258291361,-9.481637,2.1972785,-1.1474211
69,1438258291380,-9.476251,2.171541,-1.1252748
70,1438258291401,-9.456498,2.1691468,-1.1085154
71,1438258291421,-9.489418,2.156577,-1.1085154
72,1438258291441,-9.45171,2.1739352,-1.1067197
73,1438258291458,-9.457097,2.1751323,-1.0929531
74,1438258291479,-9.48044,2.195483,-1.0845734
75,1438258291502,-9.4295635,2.1871033,-1.1150994
76,1438258291522,-9.413403,2.1583729,-1.0821792
77,1438258291545,-9.554062,2.15957,-1.1174936
78,1438258291561,-9.542689,2.1523874,-1.1264719
79,1438258291579,-9.551069,2.1146786,-1.115698
80,1438258291599,-9.438541,2.1152773,-1.062427
81,1438258291620,-9.452309,2.1428106,-1.0486604
82,1438258291639,-9.434352,2.1452048,-1.049259
83,1438258291661,-9.426571,2.2038627,-1.0749966
84,1438258291773,-9.440337,2.2577322,-1.1192893
85,1438258291775,-9.48044,2.2643163,-1.1432313
86,1438258291781,-9.5253315,2.2505496,-1.1558008
87,1438258291782,-9.461287,2.2008698,-1.1456255
88,1438258291783,-9.4457245,2.208651,-1.1133038
89,1438258291784,-9.495404,2.1589713,-1.0887632
90,1438258291799,-9.442133,2.2002714,-1.067814
91,1438258291835,-9.450513,2.2601264,-1.1168951
92,1438258291838,-9.414599,2.3301568,-1.13964
93,1438258291858,-9.448717,2.3720553,-1.1641805
94,1438258291888,-9.454702,2.369661,-1.1522095
95,1438258291904,-9.408614,2.3409307,-1.1162965
96,1438258291920,-9.440936,2.296638,-1.1228806
97,1438258291946,-9.43495,2.2756886,-1.1300632
98,1438258291958,-9.466075,2.2427685,-1.0696096
99,1438258291978,-9.46847,2.2613235,-1.0761937
100,1438258291999,-9.435549,2.2984335,-1.073201
101,1438258292023,-9.420585,2.2894554,-1.0761937
102,1438258292041,-9.435549,2.2828712,-1.0726024
103,1438258292062,-9.389461,2.2930467,-1.0690111
104,1438258292081,-9.439739,2.2774844,-1.0929531
105,1438258292102,-9.446322,2.2691047,-1.0935516
106,1438258292119,-9.457695,2.2774844,-1.1216835
107,1438258292142,-9.494805,2.2439656,-1.1306617
108,1438258292163,-9.526528,2.243367,-1.13964
109,1438258292180,-9.551069,2.2080526,-1.1073183
110,1438258292201,-9.409213,2.1942859,-1.0474633
111,1438258292218,-9.416395,2.212841,-1.0181342
112,1438258292238,-9.393052,2.2373815,-1.003769
113,1438258292258,-9.401431,2.308609,-1.027711
114,1438258292284,-9.381081,2.36188,-1.0941502
115,1438258292304,-9.4062195,2.3995886,-1.1252748
116,1438258292325,-9.475652,2.3953989,-1.1623849
117,1438258292347,-9.431957,2.373851,-1.1534066
118,1438258292358,-9.448118,2.3277626,-1.1294646
119,1438258292378,-9.454104,2.2882583,-1.0845734
120,1438258292400,-9.442133,2.243367,-1.067814
121,1438258292418,-9.460688,2.2026656,-1.0546459
122,1438258292444,-9.436746,2.2331917,-1.0839748
123,1438258292489,-9.461885,2.2499511,-1.1204864
124,1438258292490,-9.463082,2.2756886,-1.1420342
125,1438258292509,-9.428367,2.2918496,-1.1546037
126,1438258292519,-9.432556,2.284667,-1.1593921
127,1438258292543,-9.465476,2.2780828,-1.1444284
128,1438258292560,-9.458893,2.3116016,-1.1432313
129,1438258292579,-9.452309,2.3319526,-1.127669
130,1438258292601,-9.411607,2.3469162,-1.1216835
131,1438258292620,-9.404425,2.3756466,-1.1192893
132,1438258292639,-9.397242,2.3780408,-1.1133038
133,1438258292661,-9.36492,2.3983915,-1.1216835
134,1438258292686,-9.384672,2.393603,-1.1623849
135,1438258292701,-9.442133,2.372654,-1.1731589
136,1438258292720,-9.389461,2.368464,-1.1815386
137,1438258292741,-9.433753,2.3241713,-1.1725603
138,1438258292760,-9.4774475,2.3277626,-1.1857284
139,1438258292781,-9.573814,2.2948422,-1.168969
140,1438258292801,-9.433753,2.2697031,-1.1414356
141,1438258292822,-9.427768,2.2960393,-1.1180922
142,1438258292841,-9.3978405,2.3157916,-1.0887632
143,1438258292862,-9.357139,2.4061728,-1.1270704
144,1438258292880,-9.305663,2.475006,-1.1773487
145,1438258292900,-9.338584,2.5372553,-1.2264298
146,1438258292922,-9.405023,2.5432408,-1.2491747
147,1438258292943,-9.414599,2.4887726,-1.2318168
148,1438258292962,-9.431957,2.4486697,-1.2282255
149,1438258292981,-9.416994,2.4025815,-1.1851299
150,1438258293002,-9.433155,2.3540988,-1.1510124
151,1438258293022,-9.407417,2.3397336,-1.1408371
152,1438258293043,-9.408614,2.3259668,-1.1575965
153,1438258293066,-9.41879,2.3349452,-1.1851299
154,1438258293082,-9.45171,2.3505075,-1.2018893
155,1438258293112,-9.416994,2.3654714,-1.2318168
156,1438258293125,-9.462483,2.345719,-1.2180501
157,1438258293142,-9.438541,2.333748,-1.1976994
158,1438258293166,-9.465476,2.3247697,-1.1821371
159,1438258293229,-9.416994,2.2774844,-1.1486182
160,1438258293230,-9.425373,2.2996306,-1.1091139
161,1438258293231,-9.419388,2.296638,-1.1330559
162,1438258293239,-9.443929,2.3211784,-1.1420342
163,1438258293267,-9.4217825,2.3493104,-1.1725603
164,1438258293282,-9.375694,2.3762453,-1.1971009
165,1438258293299,-9.433753,2.3864205,-1.1887212
166,1438258293320,-9.405023,2.393603,-1.228824
167,1438258293339,-9.41041,2.381632,-1.1941081
168,1438258293361,-9.43495,2.4091654,-1.2360066
169,1438258293381,-9.4535055,2.4271219,-1.2443863
170,1438258293403,-9.478644,2.420538,-1.2413936
171,1438258293420,-9.367314,2.3983915,-1.2132617
172,1438258293443,-9.409213,2.4450784,-1.240795
173,1438258293461,-9.3661175,2.4474726,-1.2419921
174,1438258293482,-9.3733,2.428319,-1.2485762
175,1438258293503,-9.293693,2.417545,-1.2922704
176,1438258293523,-9.300277,2.4277205,-1.3670892
177,1438258293543,-9.43076,2.5701754,-1.4808137
178,1438258293560,-9.361329,2.5773582,-1.5245079
179,1438258293582,-9.36492,2.5953147,-1.4760253
180,1438258293604,-9.401431,2.6018987,-1.4556746
181,1438258293621,-9.320028,2.712032,-1.5304934
182,1438258293643,-9.28232,2.7694929,-1.5747862
183,1438258293661,-9.2494,2.7880478,-1.5729905
184,1438258293686,-9.272144,2.7952304,-1.6065093
185,1438258293703,-9.284714,2.9933507,-1.751957
186,1438258293720,-9.257181,3.0879216,-1.8596961
187,1438258293741,-9.235035,3.1304188,-1.9369092
188,1438258293763,-9.268554,3.300407,-2.0655975
189,1438258293781,-9.321824,3.2854433,-2.107496
190,1438258293803,-9.312247,3.0502129,-1.9434932
191,1438258293823,-9.294889,2.9125464,-1.7687165
192,1438258293843,-9.292496,2.7898436,-1.6089035
193,1438258293864,-9.2547865,2.5839422,-1.4047978
194,1438258293888,-9.136273,2.6072857,-1.3036429
195,1438258293961,-9.1033535,2.6366146,-1.2252327
196,1438258293962,-9.085996,2.6862943,-1.2036849
197,1438258293963,-8.967483,2.7150247,-1.1264719
198,1438258293964,-8.926781,2.8538885,-1.0923545
199,1438258293982,-8.924985,3.1238346,-1.1384429
200,1438258294003,-9.043498,3.2944214,-1.0935516
201,1438258294020,-8.846576,3.3842041,-0.9283517
202,1438258294040,-8.897452,3.4159272,-0.7493851
203,1438258294081,-9.357139,3.5104983,-0.39025488
204,1438258294082,-9.153631,3.8031895,0.059855044
205,1438258294103,-9.258977,4.1305966,0.4973954
206,1438258294122,-9.388264,4.395156,0.8511387
207,1438258294141,-9.134478,4.550779,1.1079168
208,1438258294163,-8.756793,4.8081555,1.3126211
209,1438258294181,-8.288128,4.96318,1.4909891
210,1438258294202,-7.9996266,5.0026846,1.6334441
211,1438258294223,-7.8039002,4.9464207,1.6448165
212,1438258294242,-7.7733746,4.794389,1.5969325
213,1438258294262,-7.8206596,4.619014,1.6244658
214,1438258294281,-7.978079,4.4077253,1.5933412
215,1438258294303,-8.401853,4.2461166,1.5813702
216,1438258294323,-8.846576,4.1317935,1.5664065
217,1438258294344,-8.91481,4.0653543,1.560421
218,1438258294361,-8.743625,4.063559,1.5352819
219,1438258294381,-8.66701,4.0898952,1.448492
220,1438258294401,-8.784326,4.2042184,1.371279
221,1438258294422,-8.69993,4.2598834,1.18094
222,1438258294441,-8.644265,4.183269,1.0666169
223,1438258294464,-8.55987,4.083311,0.90500826
224,1438258294485,-8.627506,3.9390604,0.688333
225,1438258294505,-8.773552,3.7642837,0.48841715
226,1438258294523,-8.925584,3.554791,0.39205053
227,1438258294541,-9.169194,3.3770216,0.27832595
228,1438258294562,-9.147048,3.2758665,0.10235212
229,1438258294582,-9.017162,3.1381998,0.03172317
230,1438258294612,-9.494805,3.0627825,-0.006584055
231,1438258294666,-9.305065,2.9861681,0.0077811554
232,1438258294667,-9.414599,2.8496985,0.022146367
233,1438258294668,-9.355343,2.8491,-0.05207389
234,1438258294703,-9.339781,2.8999767,-0.1352724
235,1438258294704,-9.155427,2.9999347,-0.2136825
236,1438258294725,-9.175778,2.873042,-0.19393034
237,1438258294744,-9.248202,2.843713,-0.2184709
238,1438258294766,-9.1751795,2.9622262,-0.30107087
239,1438258294781,-9.357139,3.122039,-0.43275195
240,1438258294802,-9.123106,3.198055,-0.5105635
241,1438258294823,-9.34397,3.240552,-0.55485624
242,1438258294842,-9.496601,3.4434607,-0.47644615
243,1438258294863,-9.167398,3.6613328,-0.41060558
244,1438258294884,-8.740033,3.964798,-0.34117374
245,1438258294902,-9.321226,4.110844,-0.25857377
246,1438258294924,-8.675988,4.5154643,-0.017357962
247,1438258294944,-8.277952,5.4504004,0.15622166
248,1438258294964,-7.965509,6.1507044,0.08020575
249,1438258294984,-7.5590935,6.4344172,0.09876082
250,1438258295001,-10.368091,6.7881603,-0.31364042
251,1438258295022,-9.179369,7.091027,-0.44532153
252,1438258295044,-6.4661403,7.4124484,-0.7188591
253,1438258295064,-5.2684407,7.9224133,-0.99419224
254,1438258295082,-5.0906715,8.039729,-1.2234371
255,1438258295103,-5.071518,8.082227,-1.4730326
256,1438258295121,-5.053561,7.8906903,-1.5664065
257,1438258295142,-5.1960163,7.8625584,-1.7250223
258,1438258295165,-5.119402,7.8104844,-1.8818425
259,1438258295185,-5.5377884,7.635708,-1.9901801
260,1438258295201,-5.3821654,7.554305,-2.1841104
261,1438258295224,-5.662287,7.518392,-2.2822728
262,1438258295244,-6.159084,7.6243353,-2.3463178
263,1438258295265,-6.177639,7.643489,-2.336741
264,1438258295284,-5.953781,7.566276,-2.1362264
265,1438258295303,-5.108628,7.3609734,-1.8794483
266,1438258295322,-4.470573,7.005434,-1.5981296
267,1438258295344,-4.1425676,6.4386067,-1.3150153
268,1438258295362,-4.923077,6.0645127,-1.2743138
269,1438258295434,-5.2846017,5.604826,-1.0109516
270,1438258295435,-5.555745,5.631162,-0.82899237
271,1438258295446,-5.2983685,5.913678,-0.48722005
272,1438258295447,-5.243302,6.4858923,-0.20470424
273,1438258295463,-4.8883615,7.1371155,0.2112883
274,1438258295483,-3.8959646,7.824251,0.50278234
275,1438258295519,-3.4320881,7.9068513,0.9163807
276,1438258295522,-2.6426,7.6883802,1.1593921
277,1438258295543,-2.0129251,7.529764,1.4544775
278,1438258295569,-2.6264393,7.4136457,1.6603789
279,1438258295584,-2.6521769,7.539341,1.7962499
280,1438258295604,-1.8938135,7.6243353,1.9387048
281,1438258295622,-1.1354501,8.287529,1.8124107
282,1438258295642,-1.1312603,8.629301,2.0248961
283,1438258295665,-2.0751743,8.450933,2.1045034
284,1438258295688,-2.9412768,8.547898,2.2272062
285,1438258295702,-2.5145104,8.5473,2.3582888
286,1438258295724,-2.2691047,8.700529,2.4768016
287,1438258295748,-3.4967315,8.420407,2.6761189
288,1438258295763,-4.285621,8.986636,2.954445
289,1438258295787,-4.8787847,10.120291,3.4943373
290,1438258295804,-5.251083,10.733206,3.891775
291,1438258295827,-4.598663,11.0618105,4.5100775
292,1438258295845,-4.6244006,11.298238,4.9655743
293,1438258295867,-4.883573,11.238382,5.076905
294,1438258295885,-5.3642087,11.669339,5.1026425
295,1438258295905,-4.933253,11.669938,5.321113
296,1438258295923,-3.3129766,11.668142,5.449203
297,1438258295943,-2.654571,11.702259,5.7029886
298,1438258295963,-4.546589,11.452065,6.039374
299,1438258295982,-5.173271,11.265916,6.2303114
300,1438258296006,-3.787627,10.952874,6.4026937
301,1438258296027,-2.741361,10.493786,6.005855
302,1438258296046,-4.695628,9.331401,5.3366756
303,1438258296065,-8.768764,8.104971,4.2784386
304,1438258296164,-13.243526,7.521983,2.9430726
305,1438258296165,-12.294825,7.4465656,2.3331497
306,1438258296166,-8.292317,7.4693108,1.6059108
307,1438258296167,-7.577648,7.3208704,0.88944596
308,1438258296168,-7.305308,6.9988503,0.45250413
309,1438258296187,-6.781576,6.6109896,0.05626374
310,1438258296205,-6.3667808,5.876568,-0.24001873
311,1438258296224,-6.9545574,4.9895163,-0.48243165
312,1438258296242,-7.7440453,4.0521865,-0.6889315
313,1438258296274,-7.908048,3.1944637,-0.8283938
314,1438258296283,-7.8823104,2.5450363,-1.2755109
315,1438258296309,-8.286332,2.098518,-1.6358383
316,1438258296325,-8.305486,1.6627731,-1.9764135
317,1438258296342,-8.799889,1.4185646,-2.2876596
318,1438258296362,-9.081207,1.192911,-2.60549
319,1438258296382,-8.841787,1.1174936,-2.8455088
320,1438258296402,-8.711303,1.0001777,-2.959832
321,1438258296423,-8.917204,0.80684596,-3.0053217
322,1438258296443,-9.41041,0.7128736,-2.9855695
323,1438258296463,-9.171588,0.8487445,-2.8862102
324,1438258296485,-9.043498,0.92176765,-2.9712043
325,1438258296503,-9.57142,1.1300632,-3.2243912
326,1438258296528,-9.96347,1.2174516,-3.4009635
327,1438258296543,-10.197504,1.13964,-3.4434607
328,1438258296563,-9.674371,0.99778354,-3.4392707
329,1438258296584,-9.388862,0.961272,-3.472191
330,1438258296604,-10.00477,0.8714894,-3.4614172
331,1438258296625,-10.396821,0.7697359,-3.3889925
332,1438258296644,-10.236409,0.6919243,-3.2237926
333,1438258296665,-10.172963,0.6985083,-3.0029275
334,1438258296688,-10.348937,0.8595184,-2.8006175
335,1438258296703,-10.286089,1.0139444,-2.6898856
336,1438258296727,-9.932944,1.1803415,-2.60549
337,1438258296751,-9.344569,1.2856863,-2.5067291
338,1438258296771,-9.534908,1.2653356,-2.3953989
339,1438258296784,-9.655815,1.2982559,-2.2284033
340,1438258296853,-9.89763,1.2401965,-2.1398177
341,1438258296856,-9.458893,1.1510124,-2.0153193
342,1438258296858,-9.273342,1.2665327,-1.7429788
343,1438258296864,-10.064027,1.3617022,-1.5514427
344,1438258296883,-10.268132,1.4550761,-1.4544775
345,1438258296903,-9.20391,1.5825673,-1.3054385
346,1438258296924,-8.704719,1.7926586,-0.9307459
347,1438258296943,-9.6528225,1.9416976,-0.6787562
348,1438258296967,-10.420164,2.331354,-0.53450555
349,1438258296983,-8.817246,2.5139117,-0.38367084
350,1438258297004,-8.0445175,2.5234885,-0.20171149
351,1438258297024,-8.724471,2.3876176,0.094570965
352,1438258297044,-9.504981,2.2643163,0.23702596
353,1438258297063,-9.182362,2.0805612,0.3597288
354,1438258297086,-8.843582,2.0308816,0.40342298
355,1438258297103,-9.174581,2.047641,0.4441244
356,1438258297129,-9.647436,2.0841527,0.5279215
357,1438258297145,-9.673772,2.3475149,0.60333884
358,1438258297163,-9.43495,2.7856536,0.58119243
359,1438258297183,-8.921992,3.1854854,0.49081135
360,1438258297204,-9.200318,3.4560301,0.43873745
361,1438258297225,-9.585785,3.4739866,0.439336
362,1438258297249,-9.178172,3.566762,0.4345476
363,1438258297264,-8.959103,3.6469676,0.42556936
364,1438258297287,-8.883685,3.6367924,0.46986207
365,1438258297307,-8.875904,3.596091,0.65062433
366,1438258297327,-8.9363575,3.6421793,0.84575176
367,1438258297349,-8.918402,3.6697125,1.0498575
368,1438258297366,-9.205107,3.900753,1.1994951
369,1438258297387,-8.987833,4.158728,1.2072762
370,1438258297406,-8.859743,4.3634324,1.1976994
371,1438258297425,-8.462905,4.5483847,1.1246762
372,1438258297449,-8.289924,4.5016975,1.0576386
373,1438258297481,-8.343793,4.419098,1.0169371
374,1438258297492,-8.529344,4.132392,1.0049661
375,1438258297504,-8.714295,3.904943,0.9935937
376,1438258297524,-8.775947,3.655946,1.0205284
377,1438258297552,-8.750807,3.481768,1.0259154
378,1438258297590,-8.895657,3.4111388,0.99179804
379,1438258297591,-8.930971,3.436278,0.93852705
380,1438258297606,-8.871116,3.3704374,0.87089086
381,1438258297623,-8.915408,3.1627405,0.8595184
382,1438258297644,-9.315839,3.0454245,0.7649474
383,1438258297664,-9.643246,2.9861681,0.62488663
384,1438258297684,-9.184756,3.1812954,0.2765303
385,1438258297704,-9.197326,3.210026,-0.035913024
386,1438258297735,-9.35235,3.1896753,-0.32621
387,1438258297771,-9.855133,3.2118216,-0.5434838
388,1438258297772,-9.895236,3.1759086,-0.6769605
389,1438258297793,-9.2907,3.2237926,-0.7661445
390,1438258297804,-9.115923,3.2668881,-0.83018947
391,1438258297824,-9.376292,3.2255883,-0.8230068
392,1438258297847,-9.721656,3.0651767,-0.7404069
393,1438258297868,-9.774927,2.907758,-0.57161564
394,1438258297887,-9.758766,2.8030117,-0.415394
395,1438258297906,-9.528324,2.6761189,-0.15083471
396,1438258297927,-9.607333,2.4384944,0.1388637
397,1438258297948,-9.244013,2.3295584,0.40102878
398,1438258297966,-9.531916,2.2182279,0.6799533
399,1438258297987,-9.239224,2.1278467,0.8122329
400,1438258298006,-9.327211,2.0649989,0.92895025
401,1438258298026,-9.288904,1.8674773,1.0875661
402,1438258298048,-9.111135,1.6406267,1.2886791
403,1438258298064,-9.201516,1.4951789,1.3335704
404,1438258298089,-9.046491,1.2934675,1.4526819
405,1438258298108,-9.242816,1.0283096,1.6400281
406,1438258298127,-9.507375,1.0271125,1.7770962
407,1438258298145,-9.59177,1.186327,1.7310078
408,1438258298165,-9.233239,1.1845313,1.7172412
409,1438258298184,-9.086594,1.0696096,1.7399861
410,1438258298210,-8.948329,1.1162965,1.6478093
411,1438258298230,-8.975264,1.0259154,1.6651673
412,1438258298250,-9.334992,0.87807345,1.70946
413,1438258298267,-9.2547865,0.96187055,1.6729485
