id,attr_time,attr_x,attr_y,attr_z
1,1436896820651,-0.15577064,0.05955936,-0.016187929
2,1436896820671,-0.22143865,0.093462385,-0.022602014
3,1436896820691,-0.42210788,0.15332718,-0.055283304
4,1436896820712,-0.68752885,0.27122417,-0.08552113
5,1436896820733,-0.9251554,0.30695978,-0.116980694
6,1436896820761,-1.1499538,0.31703907,-0.13469578
7,1436896820771,-1.2657127,0.321926,-0.13591751
8,1436896820791,-1.3381003,0.32070425,-0.1414153
9,1436896820811,-1.3426818,0.31795537,-0.1441642
10,1436896820831,-1.3274102,0.33108896,-0.16310102
11,1436896820851,-1.2767084,0.3472769,-0.18509217
12,1436896820871,-1.2186762,0.33933565,-0.18936823
13,1436896820891,-1.1575897,0.32559118,-0.20861048
14,1436896820911,-1.1334605,0.33536503,-0.22968534
15,1436896820931,-1.0830641,0.33841935,-0.2489276
16,1436896820951,-1.0439687,0.32498032,-0.24495697
17,1436896820971,-1.0115929,0.31215215,-0.23243423
18,1436896820991,-0.9450085,0.30757064,-0.2125811
19,1436896821011,-0.8924741,0.29657507,-0.21838433
20,1436896821031,-0.84696466,0.28221974,-0.21594086
21,1436896821054,-0.7910705,0.27305678,-0.20189096
22,1436896821074,-0.73884153,0.2556471,-0.20586158
23,1436896821093,-0.691194,0.23335053,-0.20158553
24,1436896821113,-0.64721173,0.21685717,-0.19272798
25,1436896821145,-0.59956425,0.21013765,-0.18753563
26,1436896821159,-0.5479461,0.1957823,-0.18906279
27,1436896821174,-0.5161811,0.18417588,-0.19792034
28,1436896821192,-0.49449542,0.17470746,-0.19547687
29,1436896821214,-0.47586402,0.1740966,-0.18387043
30,1436896821233,-0.45540005,0.17592919,-0.1777618
31,1436896821253,-0.4251622,0.15302174,-0.17592919
32,1436896821273,-0.39584067,0.12583824,-0.16584991
33,1436896821294,-0.34513888,0.1142318,-0.13530666
34,1436896821316,-0.28344148,0.106595986,-0.115453534
35,1436896821335,-0.23365596,0.099265605,-0.12003502
36,1436896821356,-0.20372356,0.099265605,-0.12095132
37,1436896821375,-0.1908954,0.092240654,-0.11484267
38,1436896821394,-0.16920967,0.08827003,-0.09865474
39,1436896821415,-0.15760323,0.08460484,-0.0720821
40,1436896821434,-0.16737708,0.09040806,-0.05131268
41,1436896821456,-0.1731803,0.083383106,-0.023518313
42,1436896821475,-0.17562376,0.069027774,-0.016493361
43,1436896821496,-0.18509217,0.062002823,-0.00030543262
44,1436896821517,-0.18753563,0.062002823,0.0015271631
45,1436896821535,-0.20189096,0.077579886,-0.014049901
46,1436896821566,-0.24587326,0.09254608,-0.024740042
47,1436896821573,-0.2932153,0.12889257,-0.024129177
48,1436896821596,-0.4034765,0.17195857,0.00580322
49,1436896821615,-0.589485,0.23518312,0.098043874
50,1436896821633,-0.8680395,0.32406402,0.23945917
51,1436896821654,-1.16492,0.44593164,0.36102137
52,1436896821675,-1.3432927,0.5647449,0.5039638
53,1436896821695,-1.5540411,0.6569856,0.6206391
54,1436896821714,-1.7153096,0.70280045,0.7467828
55,1436896821735,-1.8564194,0.7476991,0.8414669
56,1436896821755,-1.9688187,0.8081747,0.8723156
57,1436896821775,-2.005776,0.8503244,0.8268061
58,1436896821794,-2.0463986,0.8680395,0.7761043
59,1436896821814,-2.0134118,0.8695667,0.6945538
60,1436896821835,-1.9489655,0.87781334,0.61575216
61,1436896821854,-1.9025398,0.88117313,0.5500842
62,1436896821880,-1.8393153,0.87017757,0.49632803
63,1436896821894,-1.7876972,0.8414669,0.46944994
64,1436896821917,-1.7119498,0.8210029,0.45234573
65,1436896821934,-1.6581937,0.80878556,0.4578435
66,1436896821955,-1.6282613,0.80878556,0.47403142
67,1436896821975,-1.604743,0.80909103,0.49418998
68,1436896821996,-1.5909985,0.80756384,0.5186246
69,1436896822017,-1.5738943,0.8020661,0.5305365
70,1436896822063,-1.541213,0.7874053,0.52412236
71,1436896822064,-1.4984524,0.7629707,0.52839845
72,1436896822083,-1.4498887,0.7296785,0.5558874
73,1436896822096,-1.402852,0.6957755,0.550695
74,1436896822115,-1.3133603,0.6600399,0.52473325
75,1436896822134,-1.2412782,0.6246097,0.48747048
76,1436896822159,-1.1468995,0.5870415,0.46609017
77,1436896822174,-1.0586295,0.5439755,0.48075095
78,1436896822196,-0.9972375,0.4877759,0.47739118
79,1436896822214,-0.9297369,0.45723262,0.42485678
80,1436896822235,-0.8793405,0.4352415,0.35246924
81,1436896822257,-0.8393288,0.40622538,0.28771752
82,1436896822274,-0.7657196,0.36254853,0.32711834
83,1436896822294,-0.6942484,0.28496864,0.33292156
84,1436896822314,-0.6065892,0.21288654,0.29657507
85,1436896822335,-0.50518554,0.12156218,0.3042109
86,1436896822355,-0.3903429,0.04550946,0.31764993
87,1436896822381,-0.2837469,-0.02076942,0.32162055
88,1436896822396,-0.23823744,-0.057421334,0.30482176
89,1436896822417,-0.18173242,-0.07086037,0.30695978
90,1436896822434,-0.1301143,-0.08002335,0.28955013
91,1436896822455,-0.08552113,-0.090713486,0.25625798
92,1436896822475,-0.022907447,-0.09987647,0.1518
93,1436896822496,0.0290161,-0.079107046,0.064751714
94,1436896822517,0.090713486,-0.07147124,0.058948494
95,1436896822563,0.16615535,-0.08368854,0.070554934
96,1436896822564,0.23304509,-0.124005646,0.023518313
97,1436896822578,0.26450464,-0.18600847,-0.030543262
98,1436896822604,0.29168814,-0.24098633,-0.056505036
99,1436896822617,0.33964106,-0.28313604,-0.07788532
100,1436896822647,0.36163223,-0.32986724,-0.07238753
101,1436896822660,0.3549127,-0.3555236,-0.008857546
102,1436896822677,0.40622538,-0.41447207,-0.051923547
103,1436896822698,0.41386122,-0.46914452,-0.10048734
104,1436896822716,0.38820487,-0.49632803,-0.16554448
105,1436896822735,0.3943135,-0.5332854,-0.1386664
106,1436896822755,0.4373795,-0.54275376,-0.09712757
107,1436896822775,0.45814893,-0.464563,-0.032070424
108,1436896822796,0.45631635,-0.32925636,0.03940081
109,1436896822815,0.49571714,-0.2919936,-0.02107485
110,1436896822840,0.63224554,-0.3820962,-0.033292156
111,1436896822861,0.75594574,-0.48349985,-0.015882496
112,1436896822877,0.84238315,-0.54611355,-0.07422013
113,1436896822895,0.8707884,-0.56138515,-0.09254608
114,1436896822914,0.8426886,-0.5558874,-0.07819075
115,1436896822934,0.81489426,-0.5726862,-0.09040806
116,1436896822954,0.7965683,-0.5849035,-0.06078109
117,1436896822982,0.7855727,-0.5864306,-0.0571159
118,1436896822994,0.8127562,-0.59650993,-0.079107046
119,1436896823027,0.8549059,-0.60139686,-0.10934488
120,1436896823037,0.90010995,-0.6563747,-0.23823744
121,1436896823055,0.98563105,-0.7800749,-0.11148291
122,1436896823077,0.8720101,-0.6994407,0.040011674
123,1436896823095,0.8188649,-0.62858033,0.06719518
124,1436896823115,0.7696902,-0.5626069,0.1142318
125,1436896823140,0.7031059,-0.55771995,0.06719518
126,1436896823155,0.6243043,-0.6365216,-0.03145956
127,1436896823179,0.58093286,-0.7089091,-0.1255328
128,1436896823197,0.6087272,-0.7974846,-0.19242255
129,1436896823216,0.6462954,-0.82894415,-0.25717425
130,1436896823235,0.66981375,-0.83199847,-0.27458394
131,1436896823255,0.77549344,-0.86559606,-0.33933565
132,1436896823279,0.93309665,-0.89461213,-0.37843102
133,1436896823297,1.0354166,-0.8765916,-0.34513888
134,1436896823316,1.1826351,-0.87017757,-0.3408628
135,1436896823335,1.2990049,-0.8622363,-0.3136793
136,1436896823359,1.3826935,-0.88117313,-0.25961772
137,1436896823379,1.4199562,-0.9095783,-0.25259277
138,1436896823398,1.4184291,-0.93431836,-0.21166481
139,1436896823418,1.3778065,-0.9300423,-0.2666427
140,1436896823438,1.260215,-0.9263771,-0.39187005
141,1436896823458,1.1960741,-0.9611965,-0.376293
142,1436896823478,1.1960741,-0.98532563,-0.35979962
143,1436896823498,1.2339478,-1.0112875,-0.33169982
144,1436896823552,1.2360858,-0.9944886,-0.2519819
145,1436896823555,1.2470814,-0.99265605,-0.062002823
146,1436896823556,1.2281445,-0.9016371,-0.048563786
147,1436896823596,1.2055426,-0.8237518,-0.040927973
148,1436896823597,1.1502593,-0.77824235,-0.041233405
149,1436896823615,1.0186177,-0.7107417,-0.074830994
150,1436896823635,0.8338311,-0.6762278,-0.07880162
151,1436896823671,0.68691796,-0.6236934,-0.03604105
152,1436896823675,0.6224717,-0.56230146,-0.013439035
153,1436896823725,0.6151413,-0.5012149,0.028710667
154,1436896823726,0.6053675,-0.419359,0.029932396
155,1436896823767,0.56199604,-0.33933565,0.016798794
156,1436896823768,0.5552765,-0.23701571,0.02321288
157,1436896823778,0.59315014,-0.21013765,0.06352998
158,1436896823795,0.66675943,-0.25625798,0.19364429
159,1436896823818,0.7370089,-0.33964106,0.258396
160,1436896823837,0.7812967,-0.38331795,0.17134771
161,1436896823857,0.7840455,-0.40317106,0.09712757
162,1436896823875,0.7806858,-0.40317106,0.09254608
163,1436896823898,0.7611381,-0.43004912,0.14172074
164,1436896823918,0.7535023,-0.48930305,0.17134771
165,1436896823938,0.7134906,-0.52198434,0.12492194
166,1436896823955,0.6945538,-0.56046885,0.08582657
167,1436896823979,0.68416905,-0.56688297,0.10934488
168,1436896823997,0.68691796,-0.56107974,0.16065755
169,1436896824018,0.6930266,-0.54519725,0.15851954
170,1436896824036,0.6786713,-0.5311473,0.07727446
171,1436896824057,0.66920286,-0.54611355,-0.016187929
172,1436896824108,0.66523224,-0.57848936,-0.021685716
173,1436896824109,0.66950834,-0.59895337,0.019547688
174,1436896824124,0.66431594,-0.6032294,0.038179077
175,1436896824156,0.6414085,-0.5992588,0.04642576
176,1436896824157,0.6072,-0.573297,0.087964594
177,1436896824176,0.58551437,-0.5235115,0.18112154
178,1436896824201,0.60139686,-0.49296826,0.2406809
179,1436896824216,0.60048056,-0.4896085,0.16829337
180,1436896824240,0.60994893,-0.5198463,0.030543262
181,1436896824259,0.63163465,-0.5647449,-0.032986723
182,1436896824278,0.65393126,-0.60903263,-0.023823744
183,1436896824297,0.6780604,-0.6221663,0.06383542
184,1436896824316,0.6979135,-0.61941737,0.083383106
185,1436896824341,0.7153232,-0.6227771,0.04062254
186,1436896824359,0.6976081,-0.61636305,0.01160644
187,1436896824379,0.68325275,-0.5852089,0.050701816
188,1436896824400,0.6435465,-0.537256,0.052534413
189,1436896824419,0.61483586,-0.47158796,0.027488936
190,1436896824440,0.5766568,-0.41355577,-0.087659165
191,1436896824459,0.5271767,-0.36896262,-0.18142697
192,1436896824480,0.47678033,-0.35705075,-0.1731803
193,1436896824501,0.4370741,-0.32803464,-0.089491755
194,1436896824520,0.4129449,-0.29657507,-0.04428773
195,1436896824539,0.40317106,-0.26908615,-0.022296581
196,1436896824559,0.39675698,-0.23640485,0.009468411
197,1436896824626,0.40011674,-0.21319197,0.07238753
198,1436896824627,0.41996986,-0.20799962,0.13988814
199,1436896824628,0.42730024,-0.21105394,0.15607607
200,1436896824665,0.43127087,-0.20341812,0.11209377
201,1436896824666,0.4071417,-0.19914207,0.07147124
202,1436896824709,0.39920044,-0.19975294,0.06963864
203,1436896824710,0.3857614,-0.1966986,0.083383106
204,1436896824721,0.3643811,-0.18325958,0.08032878
205,1436896824761,0.33628133,-0.17379116,0.05131268
206,1436896824762,0.2932153,-0.1459968,-0.0012217305
207,1436896824779,0.22388211,-0.110872045,-0.04795292
208,1436896824796,0.1563815,-0.073303826,-0.09560041
209,1436896824817,0.10781772,-0.041233405,-0.10720685
210,1436896824839,0.05009095,-0.021380283,-0.15760323
211,1436896824859,0.014660766,-0.021380283,-0.23243423
212,1436896824877,0.01740966,-0.035124753,-0.2434298
213,1436896824900,0.043066,-0.043676864,-0.2312125
214,1436896824920,0.087964594,-0.036651913,-0.21410827
215,1436896824940,0.16493362,-0.052839845,-0.16279559
216,1436896824961,0.26145032,-0.07452556,-0.13408493
217,1436896824980,0.3268129,-0.10293079,-0.16615535
218,1436896825000,0.36560285,-0.119729586,-0.19853121
219,1436896825019,0.39187005,-0.1160644,-0.20616703
220,1436896825041,0.4175264,-0.11301007,-0.18845193
221,1436896825057,0.46700647,-0.109650314,-0.13622294
222,1436896825106,0.5225952,-0.12705997,-0.096516706
223,1436896825107,0.5708536,-0.15943582,-0.05467244
224,1436896825124,0.5870415,-0.17531833,-0.009773844
225,1436896825140,0.5852089,-0.1881465,-0.0061086523
226,1436896825157,0.5644395,-0.22357668,-0.03176499
227,1436896825177,0.51893,-0.24281894,-0.018020526
228,1436896825197,0.464563,-0.2284636,-0.00580322
229,1436896825219,0.40194935,-0.17531833,-0.06536258
230,1436896825239,0.35979962,-0.1423316,-0.03604105
231,1436896825259,0.32284227,-0.14202617,0.089186326
232,1436896825279,0.2950479,-0.14355333,0.14080444
233,1436896825300,0.2669481,-0.14019357,0.14049901
234,1436896825317,0.22204952,-0.14721853,0.1255328
235,1436896825337,0.19914207,-0.23060162,0.13683382
236,1436896825357,0.19058995,-0.2996294,0.044593163
237,1436896825378,0.1740966,-0.2883284,-0.0290161
238,1436896825402,0.19456059,-0.17898351,0.04520403
239,1436896825422,0.22510384,-0.03940081,0.1282817
240,1436896825442,0.24251351,0.07147124,0.13439035
241,1436896825460,0.24404067,0.12308934,0.089186326
242,1436896825477,0.21655174,0.16401732,0.07574729
243,1436896825498,0.1740966,0.1704314,0.122478485
244,1436896825519,0.1301143,0.12767084,0.1301143
245,1436896825541,0.10445796,0.071776666,0.13408493
246,1436896825557,0.0888809,0.052839845,0.106595986
247,1436896825623,0.076052725,0.032375857,-0.026267206
248,1436896825624,0.08674286,-0.05467244,-0.10048734
249,1436896825625,0.11056661,-0.13805555,-0.14966199
250,1436896825652,0.13408493,-0.18936823,-0.1966986
251,1436896825657,0.1386664,-0.19303341,-0.22815818
252,1436896825677,0.16737708,-0.18325958,-0.29810223
253,1436896825700,0.21502456,-0.16432275,-0.40194935
254,1436896825718,0.27091873,-0.13988814,-0.46914452
255,1436896825740,0.3100141,-0.10934488,-0.54061574
256,1436896825758,0.35521814,-0.12583824,-0.59864795
257,1436896825779,0.38026363,-0.1572978,-0.66737026
258,1436896825799,0.4007276,-0.19730948,-0.7128797
259,1436896825817,0.4089743,-0.23304509,-0.73945236
260,1436896825838,0.40744713,-0.27183503,-0.70921457
261,1436896825857,0.41508293,-0.29901853,-0.68203104
262,1436896825878,0.39950588,-0.31887165,-0.6942484
263,1436896825903,0.38026363,-0.30879238,-0.66706485
264,1436896825923,0.3744604,-0.27580565,-0.5213735
265,1436896825944,0.35277468,-0.25900686,-0.46211955
266,1436896825961,0.267559,-0.26725355,-0.5626069
267,1436896825979,0.16646078,-0.3032946,-0.7272351
268,1436896825997,0.070554934,-0.3491095,-0.73456544
269,1436896826017,-0.00061086525,-0.34055737,-0.6392705
270,1436896826040,-0.0421497,-0.2773328,-0.60048056
271,1436896826058,-0.05681047,-0.21410827,-0.52320606
272,1436896826118,-0.019547688,-0.122783914,-0.39920044
273,1436896826119,0.07391469,-0.045814894,-0.22876903
274,1436896826127,0.116675265,0.0036651916,-0.16126843
275,1436896826150,0.118507855,0.05131268,-0.15882497
276,1436896826158,0.12736541,0.061086524,-0.1731803
277,1436896826178,0.10751228,0.03481932,-0.18020524
278,1436896826204,0.049480084,-0.029626964,-0.20830505
279,1436896826220,-0.015271631,-0.083383106,-0.22296582
280,1436896826243,-0.06963864,-0.106595986,-0.19120082
281,1436896826262,-0.15851954,-0.1142318,-0.15210545
282,1436896826280,-0.2556471,-0.11056661,-0.15210545
283,1436896826298,-0.30451632,-0.0729984,-0.18875736
284,1436896826323,-0.2883284,-0.037873644,-0.24312437
285,1436896826338,-0.24465153,-0.054367006,-0.24251351
286,1436896826359,-0.19181168,-0.0711658,-0.23548855
287,1436896826378,-0.14813483,-0.07269296,-0.22693644
288,1436896826400,-0.10415252,-0.07544186,-0.19822577
289,1436896826424,-0.10598512,-0.051923547,-0.18936823
290,1436896826444,-0.112704635,-0.03145956,-0.1908954
291,1436896826461,-0.07696902,-0.036957346,-0.17440203
292,1436896826479,0.0021380284,-0.04795292,-0.13713925
293,1436896826500,0.13561209,-0.063224554,-0.1282817
294,1436896826519,0.27152961,-0.09437868,-0.102319926
295,1436896826541,0.41325033,-0.122783914,-0.054061573
296,1436896826563,0.514654,-0.17470746,-0.02565634
297,1436896826611,0.5925393,-0.19914207,-0.03359759
298,1436896826612,0.605062,-0.21594086,-0.05009095
299,1436896826632,0.5653558,-0.24220806,-0.005192355
300,1436896826641,0.49205196,-0.22235495,0.09162979
301,1436896826664,0.38515055,-0.15057829,0.12767084
302,1436896826680,0.17531833,-0.08277224,0.09132435
303,1436896826710,-0.062002823,-0.0009162979,0.048258353
304,1436896826724,-0.32406402,0.082161374,-0.03756821
305,1436896826741,-0.55863625,0.15149458,-0.1518
306,1436896826764,-0.7012733,0.19272798,-0.18295415
307,1436896826780,-0.8344419,0.21197024,-0.17104226
308,1436896826801,-0.93951076,0.21777347,-0.22204952
309,1436896826822,-0.9798279,0.21838433,-0.25717425
310,1436896826839,-0.90285885,0.17165314,-0.226631
311,1436896826859,-0.8405506,0.1441642,-0.21930063
312,1436896826880,-0.7797695,0.14385876,-0.2678644
313,1436896826904,-0.70829827,0.15882497,-0.26847526
314,1436896826924,-0.6414085,0.19120082,-0.20463985
315,1436896826944,-0.6062838,0.24098633,-0.1459968
316,1436896826962,-0.56077427,0.25137106,-0.10995574
317,1436896826979,-0.48655418,0.23273966,-0.11911872
318,1436896827001,-0.4373795,0.19272798,-0.15424347
319,1436896827018,-0.38331795,0.18906279,-0.13439035
320,1436896827040,-0.30085114,0.17898351,-0.07360926
321,1436896827062,-0.23671028,0.13775012,-0.076358154
322,1436896827104,-0.1554652,0.049785517,-0.20250183
323,1436896827105,-0.129198,-0.05100725,-0.344528
324,1436896827126,-0.1423316,-0.042760566,-0.33200526
325,1436896827152,-0.16340645,0.013439035,-0.25045475
326,1436896827159,-0.1695151,0.036957346,-0.15882497
327,1436896827180,-0.18661933,0.032070424,-0.08979719
328,1436896827199,-0.22785273,0.045814894,-0.06566802
329,1436896827220,-0.24465153,0.06261369,-0.02565634
330,1436896827239,-0.21074851,0.07819075,0.0033597588
331,1436896827260,-0.18845193,0.07422013,-0.003970624
332,1436896827281,-0.15424347,0.057421334,-0.02565634
333,1436896827302,-0.119729586,0.032375857,-0.037873644
334,1436896827319,-0.09437868,0.022296581,-0.029932396
335,1436896827342,-0.062308256,0.03145956,-0.029932396
336,1436896827362,-0.043676864,0.024740042,-0.043066
337,1436896827383,-0.039095376,0.002443461,-0.08277224
338,1436896827401,-0.05100725,-0.022907447,-0.081855945
339,1436896827422,-0.058643065,-0.030543262,-0.047647487
340,1436896827442,-0.03970624,-0.037873644,0.0009162979
341,1436896827462,-0.013133603,-0.03726278,0.0125227375
342,1436896827483,0.0106901415,-0.037873644,-0.022296581
343,1436896827503,0.03023783,-0.033292156,-0.030848695
344,1436896827521,0.03573562,-0.01282817,-0.022907447
345,1436896827548,0.025350908,0.0033597588,-0.028099801
346,1436896827609,0.014966198,0.006414085,-0.032375857
347,1436896827610,-0.0076358155,0.010079277,-0.042455133
348,1436896827611,-0.003970624,0.009773844,-0.01863139
349,1436896827636,0.027794369,0.0061086523,0.010079277
350,1436896827642,0.026572637,0.010995574,0.011911872
351,1436896827668,0.023518313,0.016187929,0.025350908
352,1436896827688,0.014049901,0.016187929,0.05009095
353,1436896827704,0.02321288,0.006414085,0.070249505
354,1436896827723,0.035124753,-0.008552114,0.08979719
355,1436896827744,0.043982297,-0.022602014,0.10934488
356,1436896827761,0.03756821,-0.03604105,0.1020145
357,1436896827780,-0.005192355,-0.02321288,0.026267206
358,1436896827803,-0.04550946,0.0033597588,-0.025045475
359,1436896827821,-0.055283304,0.013439035,-0.03970624
360,1436896827841,-0.032375857,0.009468411,-0.040317107
361,1436896827861,-0.017715093,-0.0021380284,-0.067500606
362,1436896827881,-0.0018325958,-0.015577064,-0.106901415
363,1436896827903,0.026267206,-0.019242255,-0.13072516
364,1436896827923,0.0580322,-0.02076942,-0.12095132
365,1436896827940,0.08032878,-0.01740966,-0.07819075
366,1436896827959,0.08979719,-0.027183503,-0.06658431
367,1436896827981,0.10262536,-0.058643065,-0.04642576
368,1436896828001,0.08979719,-0.018936822,0.070554934
369,1436896828172,0.07086037,0.050701816,0.08674286
370,1436896828173,0.035124753,0.0421497,0.059864793
371,1436896828174,0.027794369,-0.002443461,0.046731193
372,1436896828175,0.013439035,-0.034513887,0.04153884
373,1436896828176,-0.013439035,-0.027794369,0.025961773
374,1436896828177,-0.013744468,-0.030848695,0.002443461
375,1436896828178,0.0015271631,-0.06414085,-0.023823744
376,1436896828179,0.023823744,-0.06078109,0.0033597588
377,1436896828227,0.03390302,-0.011911872,0.0061086523
378,1436896828228,0.03176499,0.0125227375,-0.050701816
379,1436896828229,0.04795292,-0.0070249503,-0.10567969
380,1436896828253,0.05222898,-0.04795292,-0.11881329
381,1436896828265,0.038789943,-0.058643065,-0.07544186
382,1436896828288,0.026267206,-0.0290161,-0.015271631
