id,attr_time,attr_x,attr_y,attr_z
1,1436605249210,-9.14755,-3.84813,0.13678
2,1436605249230,-9.12753,-3.83208,0.166
3,1436605249250,-9.14412,-3.83463,0.146286
4,1436605249270,-9.12625,-3.83096,0.122574
5,1436605249289,-9.1245,-3.80914,0.10347
6,1436605249310,-9.1197,-3.81079,0.0604248
7,1436605249329,-9.13207,-3.83928,0.123871
8,1436605249347,-9.16367,-3.82463,0.0907135
9,1436605249369,-9.17304,-3.82225,0.0981293
10,1436605249388,-9.13695,-3.82536,0.124039
11,1436605249408,-9.13254,-3.7858,0.140305
12,1436605249428,-9.14978,-3.82037,0.165146
13,1436605249448,-9.12625,-3.82141,0.168808
14,1436605249468,-9.12801,-3.82574,0.146317
15,1436605249486,-9.11237,-3.8217,0.16983
16,1436605249508,-9.13962,-3.8311,0.19574
17,1436605249527,-9.16969,-3.83185,0.180481
18,1436605249548,-9.17548,-3.83209,0.14595
19,1436605249567,-9.16519,-3.84581,0.129364
20,1436605249587,-9.16278,-3.82196,0.0598145
21,1436605249607,-9.12144,-3.83008,0.0437927
22,1436605249626,-9.12785,-3.80751,0.132477
23,1436605249647,-9.11983,-3.80492,0.146957
24,1436605249666,-9.14885,-3.81201,0.12674
25,1436605249686,-9.1537,-3.78903,0.118774
26,1436605249705,-9.14394,-3.8073,0.111084
27,1436605249726,-9.15425,-3.81239,0.10144
28,1436605249745,-9.13025,-3.82529,0.126404
29,1436605249766,-9.17015,-3.82141,0.128281
30,1436605249785,-9.16342,-3.86919,0.122177
31,1436605249804,-9.15227,-3.85338,0.135834
32,1436605249825,-9.14534,-3.82535,0.186569
33,1436605249844,-9.13315,-3.83812,0.165054
34,1436605249865,-9.14171,-3.86208,0.131546
35,1436605249885,-9.13536,-3.85707,0.159683
36,1436605249905,-9.15273,-3.83896,0.131744
37,1436605249924,-9.13032,-3.81847,0.131531
38,1436605249944,-9.11507,-3.82033,0.143097
39,1436605249964,-9.15672,-3.81413,0.0947571
40,1436605249984,-9.14803,-3.80669,0.0987854
41,1436605250024,-9.1613,-3.82568,0.0888519
42,1436605250044,-9.16019,-3.8551,0.104324
43,1436605250062,-9.1273,-3.81992,0.136322
44,1436605250084,-9.13852,-3.82133,0.0641785
45,1436605250103,-9.13289,-3.83167,0.102325
46,1436605250121,-9.12334,-3.82628,0.105576
47,1436605250143,-9.12654,-3.80232,0.125031
48,1436605250161,-9.1174,-3.83235,0.145523
49,1436605250182,-9.12553,-3.85382,0.186966
50,1436605250202,-9.14066,-3.83417,0.163345
51,1436605250222,-9.16394,-3.87012,0.123489
52,1436605250242,-9.17853,-3.86395,0.144363
53,1436605250260,-9.16096,-3.81668,0.0937195
54,1436605250282,-9.1548,-3.81494,0.124435
55,1436605250300,-9.12497,-3.82738,0.130859
56,1436605250321,-9.12436,-3.81418,0.0969543
57,1436605250341,-9.15553,-3.80002,0.0844269
58,1436605250361,-9.13499,-3.84065,0.114639
59,1436605250381,-9.1358,-3.83598,0.111847
60,1436605250398,-9.16118,-3.81595,0.104401
61,1436605250419,-9.12421,-3.8045,0.102692
62,1436605250440,-9.15054,-3.83923,0.12207
63,1436605250460,-9.15019,-3.83684,0.170593
64,1436605250479,-9.13599,-3.85455,0.114944
65,1436605250500,-9.12646,-3.84834,0.162064
66,1436605250519,-9.14002,-3.8434,0.105804
67,1436605250539,-9.14395,-3.8611,0.13382
68,1436605250559,-9.13287,-3.8622,0.14328
69,1436605250578,-9.13889,-3.88036,0.120987
70,1436605250599,-9.13377,-3.85948,0.103119
71,1436605250618,-9.13632,-3.8696,0.125961
72,1436605250638,-9.12711,-3.82811,0.087204
73,1436605250658,-9.13174,-3.84479,0.100723
74,1436605250678,-9.16357,-3.85017,0.151627
75,1436605250699,-9.1471,-3.89009,0.129745
76,1436605250718,-9.15178,-3.85086,0.1259
77,1436605250737,-9.10933,-3.84705,0.0983734
78,1436605250757,-9.12985,-3.8069,0.0917206
79,1436605250778,-9.13547,-3.8111,0.0978699
80,1436605250797,-9.14165,-3.84575,0.130707
81,1436605250817,-9.12683,-3.85237,0.149734
82,1436605250837,-9.10617,-3.87028,0.155609
83,1436605250857,-9.11934,-3.89629,0.141785
84,1436605250877,-9.17044,-3.88367,0.122894
85,1436605250895,-9.15685,-3.86572,0.134033
86,1436605250916,-9.20079,-3.8363,0.129303
87,1436605250935,-9.16908,-3.81744,0.125214
88,1436605250956,-9.12642,-3.81158,0.13179
89,1436605250976,-9.11952,-3.81743,0.15976
90,1436605250996,-9.13887,-3.82384,0.0883789
91,1436605251015,-9.12526,-3.83636,0.0964203
92,1436605251034,-9.10881,-3.86511,0.0649109
93,1436605251055,-9.12862,-3.85709,0.104568
94,1436605251074,-9.14081,-3.8511,0.0933838
95,1436605251095,-9.12457,-3.83844,0.0952911
96,1436605251115,-9.12707,-3.84416,0.107498
97,1436605251135,-9.12393,-3.84387,0.111679
98,1436605251154,-9.12756,-3.85555,0.118164
99,1436605251174,-9.15047,-3.83838,0.142822
100,1436605251194,-9.13142,-3.86076,0.167908
101,1436605251213,-9.14954,-3.87674,0.119751
102,1436605251234,-9.13225,-3.87238,0.142807
103,1436605251252,-9.12462,-3.86548,0.127182
104,1436605251274,-9.11784,-3.87393,0.170013
105,1436605251293,-9.15244,-3.86313,0.151886
106,1436605251313,-9.12109,-3.8685,0.152939
107,1436605251351,-9.10844,-3.82581,0.16098
108,1436605251373,-9.13153,-3.85191,0.156479
109,1436605251391,-9.11755,-3.82341,0.112747
110,1436605251412,-9.16658,-3.86613,0.145706
111,1436605251432,-9.12283,-3.84048,0.0794373
112,1436605251452,-9.14507,-3.85303,0.108185
113,1436605251472,-9.05504,-3.87624,0.126602
114,1436605251491,-9.08151,-3.83859,0.0730438
115,1436605251511,-9.10957,-3.84091,0.113205
116,1436605251531,-9.11177,-3.83382,0.0918274
117,1436605251551,-9.10362,-3.89545,0.105133
118,1436605251571,-9.14049,-3.87608,0.103699
119,1436605251590,-9.13779,-3.83936,0.0962067
120,1436605251611,-9.15622,-3.83336,0.118668
121,1436605251630,-9.15138,-3.82536,0.138046
122,1436605251650,-9.1454,-3.83162,0.139908
123,1436605251669,-9.11885,-3.84103,0.147369
124,1436605251690,-9.13916,-3.84245,0.171402
125,1436605251707,-9.14928,-3.87662,0.184631
126,1436605251726,-9.15306,-3.88149,0.143036
127,1436605251748,-9.14517,-3.91861,0.194565
128,1436605251767,-9.15233,-3.88307,0.182343
129,1436605251787,-9.14104,-3.89085,0.173187
130,1436605251807,-9.12923,-3.86964,0.189011
131,1436605251827,-9.11617,-3.89273,0.17482
132,1436605251846,-9.0824,-3.91365,0.142548
133,1436605251866,-9.09764,-3.86844,0.193039
134,1436605251886,-9.12286,-3.86661,0.154373
135,1436605251906,-9.08774,-3.87929,0.154968
136,1436605251925,-9.11876,-3.89706,0.120804
137,1436605251948,-9.10084,-3.87611,0.200165
138,1436605251968,-9.10043,-3.88217,0.166779
139,1436605251985,-9.12357,-3.87149,0.124664
140,1436605252008,-9.11908,-3.83942,0.11763
141,1436605252026,-9.15607,-3.82962,0.145859
142,1436605252047,-9.13028,-3.80286,0.122101
143,1436605252066,-9.14342,-3.82144,0.11795
144,1436605252086,-9.14378,-3.82077,0.15007
145,1436605252107,-9.13892,-3.81978,0.201691
146,1436605252125,-9.12289,-3.84071,0.141006
147,1436605252146,-9.11473,-3.80586,0.153915
148,1436605252165,-9.12266,-3.8231,0.148468
149,1436605252186,-9.12457,-3.86597,0.14769
150,1436605252206,-9.11931,-3.89252,0.184952
151,1436605252226,-9.11238,-3.9128,0.148804
152,1436605252245,-9.12766,-3.91309,0.14534
153,1436605252265,-9.12949,-3.90779,0.144821
154,1436605252285,-9.14665,-3.88797,0.141068
155,1436605252305,-9.16756,-3.89246,0.123962
156,1436605252325,-9.17233,-3.84972,0.0838318
157,1436605252344,-9.14978,-3.85117,0.134216
158,1436605252364,-9.1523,-3.84151,0.12413
159,1436605252384,-9.15126,-3.80878,0.15419
160,1436605252404,-9.13452,-3.8605,0.118103
161,1436605252424,-9.1162,-3.84848,0.128601
162,1436605252443,-9.14204,-3.8163,0.125122
163,1436605252464,-9.15593,-3.80894,0.108261
164,1436605252482,-9.15115,-3.81456,0.146805
165,1436605252503,-9.1646,-3.84297,0.126053
166,1436605252523,-9.15981,-3.87706,0.129333
167,1436605252543,-9.13046,-3.84261,0.157684
168,1436605252563,-9.12608,-3.84802,0.13002
169,1436605252582,-9.15248,-3.85956,0.126129
170,1436605252603,-9.11497,-3.85971,0.19487
171,1436605252621,-9.09357,-3.85077,0.112274
172,1436605252662,-9.11977,-3.87671,0.124939
173,1436605252682,-9.10901,-3.87134,0.105301
174,1436605252702,-9.11056,-3.83775,0.169861
175,1436605252720,-9.13779,-3.83969,0.171875
176,1436605252741,-9.12293,-3.81302,0.0738831
177,1436605252759,-9.11056,-3.83997,0.0674896
178,1436605252781,-9.12349,-3.82916,0.139816
179,1436605252800,-9.11379,-3.84953,0.104782
180,1436605252820,-9.11366,-3.84509,0.135407
181,1436605252841,-9.12596,-3.81329,0.11618
182,1436605252860,-9.14398,-3.8257,0.147125
183,1436605252880,-9.10548,-3.85173,0.137466
184,1436605252898,-9.11073,-3.85281,0.131851
185,1436605252920,-9.12234,-3.8371,0.164581
186,1436605252939,-9.12848,-3.84225,0.175537
187,1436605252960,-9.145,-3.8373,0.188293
188,1436605252979,-9.1423,-3.83542,0.228149
189,1436605252999,-9.18436,-3.83882,0.155731
190,1436605253019,-9.18269,-3.80429,0.1474
191,1436605253039,-9.1665,-3.82085,0.090622
192,1436605253058,-9.1266,-3.81441,0.133499
193,1436605253078,-9.13209,-3.81419,0.151016
194,1436605253098,-9.13127,-3.78827,0.157822
195,1436605253117,-9.151,-3.80519,0.156158
196,1436605253138,-9.13785,-3.80756,0.115143
197,1436605253158,-9.16191,-3.78574,0.10022
198,1436605253178,-9.13152,-3.78464,0.13031
199,1436605253198,-9.13745,-3.8232,0.135818
200,1436605253216,-9.11171,-3.84625,0.0964203
201,1436605253237,-9.11299,-3.86354,0.13736
202,1436605253256,-9.13411,-3.81573,0.15419
203,1436605253277,-9.13995,-3.8123,0.113205
204,1436605253297,-9.12341,-3.84589,0.0777893
205,1436605253316,-9.13538,-3.84375,0.12764
206,1436605253336,-9.12593,-3.83395,0.137695
207,1436605253356,-9.11995,-3.82721,0.0914001
208,1436605253376,-9.12701,-3.78688,0.147263
209,1436605253395,-9.13677,-3.81659,0.0971222
210,1436605253416,-9.12946,-3.80354,0.107269
211,1436605253436,-9.15183,-3.82973,0.136627
212,1436605253455,-9.13504,-3.83679,0.149673
213,1436605253475,-9.15755,-3.79901,0.108917
214,1436605253495,-9.1389,-3.79559,0.13147
215,1436605253515,-9.17508,-3.80521,0.112854
216,1436605253533,-9.15825,-3.82053,0.13707
217,1436605253555,-9.13249,-3.83797,0.153961
218,1436605253573,-9.13277,-3.83986,0.15538
219,1436605253594,-9.15222,-3.83878,0.096756
220,1436605253614,-9.1676,-3.84937,0.138397
221,1436605253633,-9.15122,-3.87805,0.121613
222,1436605253654,-9.16702,-3.86035,0.0803375
223,1436605253672,-9.14252,-3.84073,0.072525
224,1436605253694,-9.14557,-3.82837,0.09935
225,1436605253712,-9.14113,-3.8017,0.047348
226,1436605253733,-9.11322,-3.80122,0.0639343
227,1436605253753,-9.13225,-3.83228,0.0985565
228,1436605253773,-9.15861,-3.8255,0.0831451
229,1436605253793,-9.10284,-3.80133,0.127045
230,1436605253812,-9.13534,-3.84471,0.0348816
231,1436605253832,-9.16837,-3.80125,0.0547638
232,1436605253852,-9.11893,-3.79343,0.0279083
233,1436605253872,-9.13286,-3.80792,0.0072937
234,1436605253912,-9.13359,-3.81201,0.0413055
235,1436605253913,-9.13454,-3.82315,-0.000228882
236,1436605253932,-9.11273,-3.79536,-0.0110626
237,1436605253971,-9.09317,-3.75162,0.0238495
238,1436605253989,-9.08055,-3.75165,0.0149841
239,1436605254011,-9.05754,-3.73128,0.024826
240,1436605254029,-8.99764,-3.75548,0.0263519
241,1436605254050,-8.97331,-3.80196,0.0407257
242,1436605254070,-8.94682,-3.69701,0.0534058
243,1436605254090,-8.90187,-3.58424,0.0465851
244,1436605254110,-9.01555,-2.84943,0.281113
245,1436605254130,-9.30631,-2.08595,0.198654
246,1436605254150,-9.61066,-2.77242,-0.214462
247,1436605254169,-9.58843,-4.18774,-0.878876
248,1436605254189,-9.22611,-4.7384,-1.32959
249,1436605254210,-9.42174,-4.11566,-0.882843
250,1436605254229,-9.42306,-3.75583,-0.483871
251,1436605254249,-9.0564,-4.12407,-0.596329
252,1436605254269,-8.96071,-4.18851,-0.739334
253,1436605254288,-8.96059,-4.1877,-0.766403
254,1436605254307,-8.88855,-4.26267,-0.638748
255,1436605254328,-8.77821,-4.20752,-0.65831
256,1436605254347,-8.74092,-4.09018,-0.686035
257,1436605254368,-8.78055,-3.72466,-0.68016
258,1436605254387,-8.91562,-3.43245,-0.672928
259,1436605254408,-9.06389,-3.45592,-0.842102
260,1436605254425,-9.09393,-3.70519,-0.813446
261,1436605254446,-8.99414,-3.64435,-0.560135
262,1436605254467,-9.16155,-3.12035,-0.633835
263,1436605254486,-9.09993,-3.33723,-0.999359
264,1436605254507,-8.84628,-3.75589,-1.26794
265,1436605254527,-8.76318,-3.83131,-1.32252
266,1436605254546,-8.77846,-3.71758,-1.39462
267,1436605254566,-8.79756,-3.72522,-1.60164
268,1436605254586,-8.73447,-3.77657,-1.77229
269,1436605254606,-8.63496,-3.78111,-1.80539
270,1436605254624,-8.50777,-3.6071,-1.91974
271,1436605254645,-8.42711,-3.31136,-1.96832
272,1436605254664,-8.48573,-3.12366,-2.04347
273,1436605254685,-8.74744,-3.16063,-2.32094
274,1436605254705,-9.06645,-3.2207,-2.45993
275,1436605254724,-9.30045,-3.22493,-2.60207
276,1436605254745,-9.49619,-3.02303,-2.70519
277,1436605254763,-9.67421,-2.86816,-2.85742
278,1436605254784,-9.85541,-2.62526,-2.99658
279,1436605254803,-9.91708,-2.47476,-3.06822
280,1436605254824,-9.80516,-2.68475,-3.11362
281,1436605254844,-9.55127,-3.07051,-3.06804
282,1436605254864,-9.41911,-3.41049,-2.68445
283,1436605254883,-9.30513,-3.45895,-2.40993
284,1436605254904,-9.31772,-3.24199,-2.28481
285,1436605254923,-9.46835,-3.06091,-2.13783
286,1436605254943,-9.53354,-2.88577,-2.00293
287,1436605254963,-9.43071,-2.78665,-1.8856
288,1436605254982,-9.09137,-2.66835,-1.70474
289,1436605255003,-8.69662,-2.76851,-1.32774
290,1436605255023,-8.69913,-3.31764,-0.665619
291,1436605255042,-9.01585,-4.07396,-0.704514
292,1436605255061,-9.40832,-3.9935,-1.07208
293,1436605255081,-9.43994,-3.27896,-1.25752
294,1436605255101,-9.14214,-3.30072,-1.30099
295,1436605255121,-8.8566,-3.62099,-1.41409
296,1436605255141,-8.99049,-3.98117,-1.70293
297,1436605255161,-8.99219,-4.16657,-1.87633
298,1436605255181,-8.85649,-4.00092,-1.93468
299,1436605255201,-8.9184,-3.52916,-2.16879
300,1436605255221,-8.90834,-3.10707,-1.89401
301,1436605255241,-8.81782,-3.09264,-1.57503
302,1436605255350,-8.85893,-3.39873,-1.4539
303,1436605255351,-9.36334,-3.09138,-1.63474
304,1436605255352,-9.68196,-3.42741,-1.70297
305,1436605255353,-10.0425,-3.30342,-1.30775
306,1436605255359,-8.83585,-4.72082,-5.31004
307,1436605255379,-8.0083,-8.2271,-7.013
308,1436605255397,-6.40453,-7.76556,-5.95949
309,1436605255419,-6.11957,-5.68477,-4.66399
310,1436605255438,-6.82599,-4.09166,-3.91795
311,1436605255459,-6.82063,-3.22241,-3.3309
312,1436605255479,-6.39049,-2.8773,-3.12242
313,1436605255499,-6.38217,-2.57649,-3.12366
314,1436605255518,-6.49516,-2.2374,-3.36822
315,1436605255537,-6.81229,-2.59525,-3.79979
316,1436605255558,-7.36064,-2.98309,-3.69667
317,1436605255577,-6.9106,-2.69847,-3.21121
318,1436605255598,-6.22284,-2.65602,-3.19435
319,1436605255617,-6.10843,-3.03662,-3.5912
320,1436605255637,-6.10065,-3.45227,-3.89426
321,1436605255657,-6.23401,-4.20979,-4.40869
322,1436605255677,-6.42018,-5.16487,-4.60283
323,1436605255697,-6.47893,-5.75217,-4.62935
324,1436605255716,-6.50778,-6.21696,-5.08884
325,1436605255737,-6.68613,-6.29584,-5.3376
326,1436605255756,-6.85142,-5.95119,-5.32379
327,1436605255776,-6.791,-5.71376,-5.22035
328,1436605255796,-6.7514,-5.6226,-5.17711
329,1436605255816,-7.06062,-5.62637,-5.22856
330,1436605255836,-7.23695,-5.57252,-5.34816
331,1436605255855,-7.23256,-5.65285,-5.33771
332,1436605255875,-7.31622,-6.19882,-5.46385
333,1436605255895,-7.31335,-6.55264,-5.41914
334,1436605255915,-6.99573,-6.48442,-5.16246
335,1436605255935,-6.74507,-6.3846,-4.9725
336,1436605255955,-6.61659,-6.47026,-4.87494
337,1436605255975,-6.56837,-6.57857,-4.75351
338,1436605255995,-6.3159,-6.32571,-4.75716
339,1436605256014,-5.96776,-6.06856,-4.81398
340,1436605256034,-5.92131,-6.01236,-4.86508
341,1436605256053,-5.84517,-5.93968,-4.98825
342,1436605256074,-5.77191,-5.97284,-5.09296
343,1436605256094,-5.73308,-6.04298,-5.2225
344,1436605256113,-6.04202,-6.77988,-5.45198
345,1436605256134,-6.40453,-7.42921,-5.55324
346,1436605256153,-6.16797,-7.47649,-5.4169
347,1436605256171,-6.38812,-7.70245,-5.27255
348,1436605256193,-6.86774,-7.92641,-4.87138
349,1436605256211,-6.97841,-7.95956,-4.33812
350,1436605256233,-7.10164,-8.1633,-3.86024
351,1436605256252,-7.28363,-8.15318,-3.52106
352,1436605256272,-7.45017,-8.1797,-3.32111
353,1436605256292,-7.32019,-9.0015,-3.64374
354,1436605256310,-6.57938,-9.91946,-4.19267
355,1436605256331,-6.01694,-9.12163,-4.57887
356,1436605256351,-5.84816,-7.77908,-4.64215
357,1436605256371,-5.42087,-7.09033,-4.63246
358,1436605256391,-5.07188,-7.56604,-4.51622
359,1436605256411,-5.27254,-8.16505,-4.47363
360,1436605256431,-4.92538,-8.29655,-4.2206
361,1436605256451,-4.25374,-8.24187,-3.82924
362,1436605256470,-4.07947,-8.73776,-3.44666
363,1436605256490,-4.0856,-9.16782,-3.3288
364,1436605256510,-4.1468,-9.39081,-3.23929
365,1436605256550,-3.98882,-9.8071,-3.07045
366,1436605256551,-3.49248,-9.60219,-2.67653
367,1436605256589,-3.06018,-9.08935,-2.07568
368,1436605256609,-2.7838,-8.66405,-1.4574
369,1436605256627,-2.78122,-8.95483,-0.812576
370,1436605256648,-3.13371,-9.56702,-0.527573
371,1436605256668,-3.46973,-9.67575,-0.470215
372,1436605256688,-3.79695,-9.35533,-0.00822449
373,1436605256708,-4.62321,-9.19563,0.650879
374,1436605256727,-4.80028,-9.21892,0.873123
375,1436605256744,-4.02827,-10.1579,0.713882
376,1436605256766,-3.47639,-9.95625,0.470444
377,1436605256786,-3.39316,-9.65935,0.234879
378,1436605256805,-3.2832,-9.6852,0.359253
379,1436605256825,-3.18231,-9.07181,0.680862
380,1436605256846,-2.90755,-8.26817,1.04631
381,1436605256865,-2.61881,-7.55574,1.33911
382,1436605256885,-2.42152,-7.31534,1.48288
383,1436605256905,-2.14384,-7.80824,1.29514
384,1436605256925,-1.957,-8.84732,1.23524
385,1436605256946,-2.25716,-9.07001,1.44516
386,1436605256967,-2.46625,-8.98004,1.94981
387,1436605256985,-2.58199,-8.84555,2.12503
388,1436605257006,-2.51126,-8.67168,2.09404
389,1436605257026,-2.25264,-8.81364,2.05756
390,1436605257045,-2.00644,-9.3419,2.14996
391,1436605257066,-1.83914,-9.78522,2.35614
392,1436605257084,-1.78751,-10.1346,2.78221
393,1436605257105,-1.81123,-10.2496,3.05289
394,1436605257125,-2.04517,-9.92455,3.2225
395,1436605257145,-2.09859,-9.6561,3.29564
396,1436605257165,-2.08228,-9.35162,3.26434
397,1436605257184,-2.1651,-9.14241,3.14703
398,1436605257205,-2.28999,-8.95311,3.05019
399,1436605257224,-2.33325,-8.8923,3.00317
400,1436605257244,-2.40324,-8.9015,3.14378
401,1436605257262,-2.43677,-8.82925,3.21594
402,1436605257284,-2.63736,-8.74957,3.28912
403,1436605257303,-2.95514,-9.02562,3.40518
404,1436605257324,-3.19093,-8.93434,3.43578
405,1436605257343,-3.11525,-8.88774,3.42236
406,1436605257363,-3.08276,-9.02454,3.56917
407,1436605257383,-3.31995,-9.09528,3.60405
408,1436605257401,-3.49306,-9.09848,3.61716
409,1436605257423,-3.4176,-9.17825,3.50818
410,1436605257442,-3.4192,-8.97493,3.35126
411,1436605257463,-3.35724,-8.78583,3.06808
412,1436605257482,-3.33768,-8.97214,2.88593
413,1436605257502,-3.34111,-9.29793,2.82195
414,1436605257522,-3.36386,-9.24622,2.56328
415,1436605257542,-3.30806,-9.29364,2.28294
416,1436605257562,-3.31338,-9.54263,2.25424
417,1436605257581,-3.56987,-9.42609,2.42316
418,1436605257601,-3.93057,-9.41881,2.28207
419,1436605257620,-4.04764,-9.60022,1.94833
420,1436605257640,-3.73245,-9.61073,1.79301
421,1436605257660,-3.37358,-9.13229,1.88121
422,1436605257680,-3.01749,-8.64217,2.00482
423,1436605257701,-2.68123,-8.36351,2.22969
424,1436605257719,-2.45993,-8.45201,2.55421
425,1436605257740,-2.3786,-8.78188,2.71271
426,1436605257759,-2.33292,-9.28453,2.88965
427,1436605257780,-2.36641,-9.5363,2.95609
428,1436605257800,-2.6736,-9.69986,2.79343
429,1436605257819,-3.21123,-10.1238,2.51917
430,1436605257839,-3.94429,-10.4295,2.22197
431,1436605257859,-4.4704,-9.73753,1.75725
432,1436605257899,-4.35049,-8.83957,1.36589
433,1436605257918,-4.26498,-8.10294,1.17696
434,1436605257939,-4.5011,-7.90727,1.14774
435,1436605257958,-4.94734,-7.93543,1.22398
436,1436605257978,-5.33826,-8.29793,1.36398
437,1436605257998,-5.43509,-8.87602,1.40038
438,1436605258017,-5.15132,-9.65973,1.06422
439,1436605258036,-4.81461,-9.98084,0.533157
440,1436605258058,-4.61778,-9.83815,0.377365
441,1436605258076,-4.55145,-9.52966,0.704285
442,1436605258097,-4.52252,-9.29277,1.08427
443,1436605258117,-4.38866,-9.14632,1.64149
444,1436605258137,-4.20689,-9.04929,2.1989
445,1436605258157,-4.01416,-9.01099,2.56749
446,1436605258175,-4.04073,-8.94908,2.76778
447,1436605258196,-4.0587,-8.97366,2.87811
448,1436605258216,-4.00188,-8.79627,2.94215
449,1436605258236,-3.7657,-8.79475,3.19447
