id,attr_time,attr_x,attr_y,attr_z
1,1436605249209,0.19393034,9.980828,-1.4987702
2,1436605249230,0.19393034,9.980828,-1.508347
3,1436605249251,0.20590134,9.98442,-1.5005659
4,1436605249270,0.20171149,9.972448,-1.5005659
5,1436605249290,0.19991584,9.9790325,-1.4957775
6,1436605249311,0.219668,10.002377,-1.5167267
7,1436605249332,0.21308395,9.991602,-1.5005659
8,1436605249352,0.20350714,9.985617,-1.508347
9,1436605249372,0.21068975,9.985018,-1.489792
10,1436605249392,0.2208651,9.983223,-1.5053543
11,1436605249410,0.20470424,9.981427,-1.5071499
12,1436605249430,0.21667525,9.96347,-1.4987702
13,1436605249452,0.19512744,9.97604,-1.4951789
14,1436605249472,0.2148796,9.991602,-1.4945804
15,1436605249492,0.20470424,9.988609,-1.4873978
16,1436605249510,0.21547815,9.995792,-1.5023615
17,1436605249530,0.1921347,9.973047,-1.4945804
18,1436605249551,0.1933318,9.98442,-1.4945804
19,1436605249571,0.22266077,9.978435,-1.5095441
20,1436605249592,0.22625206,9.980828,-1.5035586
21,1436605249610,0.19931729,9.983821,-1.4969746
22,1436605249630,0.2100912,9.973047,-1.5005659
23,1436605249650,0.2160767,9.988011,-1.496376
24,1436605249670,0.219668,9.986216,-1.5107412
25,1436605249693,0.20590134,9.961675,-1.4993688
26,1436605249760,0.22685061,9.974244,-1.4826094
27,1436605249761,0.21547815,9.974843,-1.513734
28,1436605249762,0.2220622,9.980828,-1.4820108
29,1436605249772,0.20709845,9.974244,-1.4790181
30,1436605249789,0.20829555,9.986216,-1.4945804
31,1436605249810,0.20111294,9.9790325,-1.4921862
32,1436605249831,0.20470424,9.991602,-1.4933833
33,1436605249850,0.20709845,9.98442,-1.4957775
34,1436605249869,0.2112883,9.977836,-1.513734
35,1436605249890,0.21906945,9.983223,-1.4903905
36,1436605249918,0.18614918,9.968259,-1.5059528
37,1436605249929,0.19632454,9.974244,-1.4856021
38,1436605249949,0.19692309,9.986814,-1.4909891
39,1436605249969,0.20470424,9.989806,-1.4879963
40,1436605249990,0.2112883,9.962872,-1.4927847
41,1436605250009,0.22984336,9.99639,-1.5011644
42,1436605250030,0.21188685,9.966463,-1.4838065
43,1436605250049,0.19512744,9.999982,-1.4993688
44,1436605250072,0.22146365,9.996989,-1.4975731
45,1436605250089,0.22325931,9.973047,-1.4850036
46,1436605250109,0.22266077,9.974244,-1.4856021
47,1436605250129,0.2208651,9.997588,-1.5233108
48,1436605250151,0.20530279,9.98442,-1.5041572
49,1436605250170,0.20171149,9.96766,-1.4969746
50,1436605250192,0.21188685,9.978435,-1.4909891
51,1436605250209,0.1933318,9.969456,-1.4939818
52,1436605250230,0.18435353,9.97185,-1.4921862
53,1436605250252,0.20171149,9.979631,-1.5065514
54,1436605250271,0.21906945,9.981427,-1.5095441
55,1436605250290,0.18974048,9.985018,-1.5215151
56,1436605250310,0.16101007,9.985617,-1.5233108
57,1436605250333,0.18734628,9.974244,-1.5089456
58,1436605250353,0.18016368,9.973646,-1.5023615
59,1436605250369,0.18315643,9.983821,-1.5155296
60,1436605250391,0.19273324,9.985018,-1.4957775
61,1436605250410,0.17537527,9.976639,-1.5113398
62,1436605250472,0.20649989,9.985018,-1.496376
63,1436605250473,0.20231004,9.977836,-1.4826094
64,1436605250474,0.20290859,9.982025,-1.484405
65,1436605250494,0.20829555,9.976639,-1.5023615
66,1436605250511,0.20051439,9.988011,-1.5245079
67,1436605250530,0.23343466,9.974843,-1.4652514
68,1436605250549,0.25198972,9.976639,-1.4700398
69,1436605250570,0.19093758,9.994595,-1.484405
70,1436605250590,0.23403321,9.989208,-1.4862007
71,1436605250611,0.1921347,9.977836,-1.489792
72,1436605250632,0.14664486,9.968858,-1.477821
73,1436605250651,0.1316811,9.9790325,-1.4969746
74,1436605250670,0.11611878,9.985018,-1.5358804
75,1436605250692,0.14664486,9.982624,-1.5233108
76,1436605250711,0.14425065,9.9928,-1.5388732
77,1436605250733,0.1328782,9.97604,-1.5233108
78,1436605250750,0.14185645,9.983223,-1.5370775
79,1436605250773,0.14844051,9.990405,-1.4993688
80,1436605250793,0.12389994,9.99639,-1.5167267
81,1436605250810,0.142455,9.974843,-1.5071499
82,1436605250833,0.1388637,9.983821,-1.5131354
83,1436605250850,0.142455,9.96766,-1.5035586
84,1436605250873,0.14963761,9.983223,-1.5239093
85,1436605250891,0.13467385,9.978435,-1.5035586
86,1436605250911,0.130484,9.966463,-1.496376
87,1436605250933,0.18555063,9.981427,-1.5191209
88,1436605250951,0.16998832,9.982624,-1.4909891
89,1436605250973,0.15682021,9.983821,-1.5071499
90,1436605250991,0.17597382,9.9790325,-1.4838065
91,1436605251010,0.1436521,9.999982,-1.5167267
92,1436605251034,0.17178397,9.980229,-1.4921862
93,1436605251057,0.15322891,10.001179,-1.5227122
94,1436605251073,0.13347675,9.981427,-1.5047557
95,1436605251090,0.1436521,9.993398,-1.513734
96,1436605251112,0.17417817,9.97185,-1.5149311
97,1436605251131,0.15442601,9.991004,-1.5155296
98,1436605251159,0.16819267,9.961675,-1.5179238
99,1436605251217,0.17298107,9.987412,-1.5089456
100,1436605251218,0.14724341,9.975441,-1.5107412
101,1436605251219,0.15741876,9.966463,-1.483208
102,1436605251235,0.18734628,10.013748,-1.5011644
103,1436605251252,0.18974048,9.970653,-1.5131354
104,1436605251272,0.19512744,9.978435,-1.4939818
105,1436605251290,0.1604115,9.965864,-1.4987702
106,1436605251311,0.17477672,9.976639,-1.508347
107,1436605251331,0.17118542,9.989208,-1.5095441
108,1436605251353,0.20590134,9.980229,-1.4814123
109,1436605251371,0.16639702,9.981427,-1.5119383
110,1436605251393,0.16340427,9.964667,-1.513734
111,1436605251410,0.1921347,9.992201,-1.5077485
112,1436605251433,0.15682021,9.959879,-1.513734
113,1436605251454,0.18435353,9.974244,-1.4891934
114,1436605251473,0.16759412,9.998186,-1.4909891
115,1436605251490,0.16879122,9.989208,-1.4862007
116,1436605251510,0.19692309,9.988011,-1.4993688
117,1436605251530,0.17956513,9.988011,-1.4993688
118,1436605251550,0.19153613,9.976639,-1.513734
119,1436605251573,0.18794483,9.978435,-1.5047557
120,1436605251592,0.18614918,9.979631,-1.5059528
121,1436605251611,0.15801731,9.973646,-1.5119383
122,1436605251633,0.19273324,9.97604,-1.5125369
123,1436605251652,0.19273324,9.987412,-1.5269021
124,1436605251676,0.18974048,9.989208,-1.5053543
125,1436605251691,0.19991584,9.988609,-1.4951789
126,1436605251714,0.18255788,9.980828,-1.4957775
127,1436605251734,0.17896658,9.999383,-1.513734
128,1436605251753,0.18076223,9.98442,-1.5209166
129,1436605251774,0.18794483,9.962274,-1.4981717
130,1436605251793,0.2136825,9.974244,-1.484405
131,1436605251813,0.20530279,9.993997,-1.5071499
132,1436605251831,0.17717093,9.981427,-1.5119383
133,1436605251852,0.18076223,9.972448,-1.5101427
134,1436605251872,0.20530279,10.007763,-1.496376
135,1436605251924,0.20470424,9.981427,-1.508347
136,1436605251925,0.19931729,9.968858,-1.5191209
137,1436605251931,0.2124854,9.987412,-1.5508442
138,1436605251951,0.19572599,9.973047,-1.5107412
139,1436605251974,0.17417817,9.969456,-1.4969746
140,1436605251994,0.17178397,9.978435,-1.5185224
141,1436605252011,0.18555063,9.982624,-1.5298948
142,1436605252032,0.20171149,9.991602,-1.5221137
143,1436605252051,0.19931729,9.980229,-1.5125369
144,1436605252071,0.17417817,9.982025,-1.5065514
145,1436605252091,0.19752164,9.986814,-1.525705
146,1436605252115,0.18794483,9.973047,-1.5179238
147,1436605252131,0.20590134,9.985018,-1.5197195
148,1436605252154,0.18674773,9.969456,-1.5131354
149,1436605252175,0.20350714,9.98442,-1.5113398
150,1436605252194,0.20709845,9.979631,-1.5041572
151,1436605252213,0.19512744,9.985018,-1.4927847
152,1436605252233,0.20949265,9.980828,-1.5089456
153,1436605252255,0.21188685,9.980828,-1.5047557
154,1436605252275,0.19991584,9.98442,-1.513734
155,1436605252294,0.19931729,9.977836,-1.5053543
156,1436605252315,0.18854338,9.970653,-1.5113398
157,1436605252335,0.16639702,9.978435,-1.5155296
158,1436605252352,0.18794483,9.974244,-1.5370775
159,1436605252375,0.19393034,9.96766,-1.5334862
160,1436605252395,0.1933318,9.977237,-1.5149311
161,1436605252415,0.19991584,9.979631,-1.5143325
162,1436605252434,0.17896658,9.976639,-1.5394717
163,1436605252455,0.19512744,9.974244,-1.5005659
164,1436605252474,0.19093758,9.978435,-1.5191209
165,1436605252495,0.22146365,9.986216,-1.5161282
166,1436605252515,0.19692309,9.97604,-1.5370775
167,1436605252535,0.20410569,9.975441,-1.5155296
168,1436605252556,0.19931729,9.970653,-1.5161282
169,1436605252575,0.20649989,9.979631,-1.5328877
170,1436605252594,0.2136825,9.989806,-1.4999673
171,1436605252616,0.21188685,9.979631,-1.5065514
172,1436605252685,0.2172738,9.978435,-1.5215151
173,1436605252686,0.18674773,9.973047,-1.5023615
174,1436605252687,0.21787235,9.992201,-1.5185224
175,1436605252695,0.19632454,9.973646,-1.5071499
176,1436605252712,0.22804771,9.97604,-1.4999673
177,1436605252735,0.207697,9.983821,-1.508347
178,1436605252752,0.18555063,9.965266,-1.5065514
179,1436605252773,0.19273324,9.97185,-1.508347
180,1436605252792,0.1921347,9.9790325,-1.5239093
181,1436605252817,0.22325931,9.976639,-1.5400703
182,1436605252833,0.20231004,9.981427,-1.543063
183,1436605252853,0.2112883,9.98442,-1.5041572
184,1436605252872,0.22685061,9.986814,-1.5113398
185,1436605252895,0.24660277,9.9550905,-1.4856021
186,1436605252916,0.22625206,9.977836,-1.5071499
187,1436605252936,0.24959552,10.004171,-1.4903905
188,1436605252955,0.22325931,9.967062,-1.5215151
189,1436605252975,0.23762453,9.967062,-1.471237
190,1436605252994,0.27712885,10.001179,-1.483208
191,1436605253015,0.24839842,9.977237,-1.5011644
192,1436605253074,0.24001873,9.994595,-1.5119383
193,1436605253075,0.23942018,9.9712515,-1.5005659
194,1436605253076,0.18315643,9.976639,-1.5227122
195,1436605253098,0.19512744,9.980828,-1.5376761
196,1436605253115,0.27473465,9.98442,-1.4784195
197,1436605253135,0.2220622,9.978435,-1.5167267
198,1436605253155,0.2172738,9.974843,-1.5340848
199,1436605253175,0.22505496,9.982025,-1.5358804
200,1436605253195,0.2088941,9.961675,-1.5095441
201,1436605253214,0.14185645,9.964069,-1.5209166
202,1436605253235,0.1340753,9.978435,-1.5298948
203,1436605253256,0.10474633,9.961076,-1.5580268
204,1436605253276,0.026934769,9.911995,-1.6154876
205,1436605253296,0.075417355,9.970055,-1.5197195
206,1436605253313,0.049679685,9.932944,-1.5508442
207,1436605253335,0.092176765,9.935339,-1.5688007
208,1436605253400,0.11911154,9.9712515,-1.5245079
209,1436605253401,0.022146367,9.92636,-1.5699978
210,1436605253402,0.046088383,9.952697,-1.6406267
211,1436605253412,0.049679685,9.958083,-1.6412252
212,1436605253433,0.05805939,9.970653,-1.7328035
213,1436605253456,0.0053869537,9.93893,-1.7345991
214,1436605253472,-0.020949265,9.864111,-1.714847
215,1436605253496,0.11731588,9.944916,-1.7363948
216,1436605253513,0.15083471,9.941324,-1.666963
217,1436605253533,0.020949265,9.852738,-1.6106992
218,1436605253553,0.03232172,9.882068,-1.6687586
219,1436605253575,0.10534488,9.846154,-1.5598224
220,1436605253592,0.39205053,9.894038,-1.6394296
221,1436605253613,0.3812766,9.876082,-1.7172412
222,1436605253636,0.44711718,9.924564,-1.6950948
223,1436605253656,0.3800795,9.896433,-1.7824832
224,1436605253676,0.24600422,9.887454,-1.8656816
225,1436605253695,0.25258827,9.943718,-2.0296845
226,1436605253716,0.3890578,9.961675,-2.1254525
227,1436605253736,0.39624038,10.012551,-2.2349873
228,1436605253756,0.30825347,10.02572,-2.2062569
229,1436605253774,0.20590134,10.00896,-2.3014264
230,1436605253794,0.11372458,9.995792,-2.4642322
231,1436605253819,0.08020575,9.932944,-2.3918076
232,1436605253835,0.18195933,9.937134,-2.244564
233,1436605253855,0.17956513,9.939528,-2.220622
234,1436605253875,0.21547815,9.97604,-2.1320367
235,1436605253896,0.1340753,9.929952,-2.0530279
236,1436605253916,-0.025737667,9.896433,-2.0751743
237,1436605253936,-0.17298107,9.931149,-2.2643163
238,1436605253956,-0.33997664,9.935339,-2.544438
239,1436605253976,-0.6859388,9.844358,-2.540248
240,1436605253998,-0.9864111,9.911396,-2.6767175
241,1436605254016,-1.1988965,9.801263,-2.7180176
242,1436605254035,-1.1426327,9.747394,-2.211644
243,1436605254135,-0.7278373,9.779716,-2.2810757
244,1436605254136,-0.53929394,9.775525,-2.3133974
245,1436605254137,-0.23882163,9.952098,-1.9357121
246,1436605254138,-0.16879122,10.25257,-1.7794905
247,1436605254139,-0.5758055,10.279505,-2.1068976
248,1436605254161,-1.0085574,10.388441,-2.3959973
249,1436605254176,-1.1773487,10.632051,-2.8030117
250,1436605254193,-0.7356185,9.989806,-2.1470003
251,1436605254213,0.089782566,10.196306,-1.9488802
252,1436605254233,0.8158242,10.224439,-1.8507179
253,1436605254255,1.6071079,9.760562,-2.1775265
254,1436605254275,3.1609447,9.461287,-2.4732103
255,1436605254294,3.7828386,9.915586,-1.6112977
256,1436605254315,2.9281087,9.837775,-1.5185224
257,1436605254333,1.3293805,9.408015,-1.4640543
258,1436605254356,1.5095441,9.425373,-0.96306765
259,1436605254376,0.75118077,9.288305,-0.88046765
260,1436605254396,-1.2318168,8.853758,-1.2485762
261,1436605254416,-2.8060043,9.25359,-1.5119383
262,1436605254436,-5.3636103,9.528923,-1.8004397
263,1436605254457,-7.5968018,9.308656,-1.6717514
264,1436605254477,-4.8763905,9.352949,-0.93254155
265,1436605254497,3.9270895,11.385028,-1.4957775
266,1436605254517,7.1832037,11.756129,-1.8567034
267,1436605254534,-1.3108255,8.890868,-2.3277626
268,1436605254557,-1.4598645,9.254189,-2.460641
269,1436605254577,1.7579426,10.992378,-1.2096704
270,1436605254597,0.6805518,9.985018,-1.2072762
271,1436605254617,0.61411273,9.647436,-1.6807296
272,1436605254637,0.96306765,9.886257,-1.4706384
273,1436605254656,0.6733692,9.96766,-1.6286557
274,1436605254677,0.53211135,10.227431,-1.7196354
275,1436605254696,0.7092823,10.177153,-1.7860745
276,1436605254717,0.8631097,9.943718,-1.8387469
277,1436605254737,0.97384155,10.108918,-1.8363527
278,1436605254756,1.0432734,10.028113,-1.7447745
279,1436605254776,1.0283096,9.916184,-1.9806033
280,1436605254795,1.1887212,9.810242,-1.6867151
281,1436605254814,0.85772276,9.946113,-1.7411832
282,1436605254868,0.6584055,9.861118,-2.111686
283,1436605254869,0.91219085,9.809045,-2.5145104
284,1436605254884,1.1971009,9.884461,-2.6563668
285,1436605254894,0.81163436,9.70789,-2.7012582
286,1436605254917,0.74639237,9.733627,-2.5246856
287,1436605254935,0.641646,9.61691,-2.693477
288,1436605254955,1.0474633,9.763555,-2.3211784
289,1436605254977,0.7966706,9.627684,-2.629432
290,1436605254994,1.3257892,9.843162,-2.6647465
291,1436605255016,1.1408371,9.651027,-3.0023289
292,1436605255043,1.033098,9.547478,-2.719813
293,1436605255057,1.0013748,9.669582,-2.7970262
294,1436605255074,0.89303726,9.581595,-3.071761
295,1436605255095,1.1115081,9.46009,-3.3446999
296,1436605255114,1.6573862,9.510367,-2.903568
297,1436605255137,1.4586674,9.6049385,-3.056797
298,1436605255157,1.0755951,9.35235,-2.9993362
299,1436605255177,1.1168951,9.527127,-2.9101522
300,1436605255197,1.2856863,9.606135,-2.7252002
301,1436605255215,1.3946224,9.621698,-3.0184898
302,1436605255237,1.4754268,9.560047,-3.1693244
303,1436605255257,1.6304513,9.67856,-3.401562
304,1436605255276,1.7753005,9.705495,-3.4494462
305,1436605255297,1.3856442,9.521142,-3.7295678
306,1436605255317,1.7615339,9.529521,-3.4632127
307,1436605255334,2.0242975,9.718663,-3.2555158
308,1436605255354,1.4856021,9.455301,-3.7732618
309,1436605255375,1.7579426,9.442133,-3.643975
310,1436605255400,2.2343888,9.546281,-3.329736
311,1436605255420,2.2092497,9.589975,-3.0615854
312,1436605255440,1.673547,9.414599,-3.352481
313,1436605255464,2.416348,9.56723,-3.0723593
314,1436605255474,2.3780408,9.498397,-2.983774
315,1436605255494,1.6514006,9.422979,-3.2034419
316,1436605255514,1.7633295,9.590573,-3.4632127
317,1436605255535,1.5155296,9.690532,-3.7660792
318,1436605255555,1.2797008,9.390657,-4.0898952
319,1436605255592,1.5209166,9.636064,-4.276643
320,1436605255609,1.1414356,9.436148,-4.068946
321,1436605255618,1.2204443,9.31105,-3.70383
322,1436605255634,1.4933833,9.165004,-3.2734723
323,1436605255656,1.06123,9.313444,-3.8863878
324,1436605255675,1.073201,9.31105,-3.7714663
325,1436605255695,1.3401544,9.461287,-3.357868
326,1436605255715,0.91937345,9.585187,-3.490746
327,1436605255736,0.48482585,9.601946,-3.9121256
328,1436605255757,0.6793547,9.714474,-4.0958805
329,1436605255776,1.3557167,10.086173,-4.4358573
330,1436605255795,0.21308395,10.340557,-5.1170077
331,1436605255815,-1.2653356,9.703699,-5.029021
332,1436605255838,-0.47405192,10.351331,-4.5633483
333,1436605255858,-0.6991069,9.763555,-4.095282
334,1436605255876,-0.98461545,9.794679,-4.0677485
335,1436605255898,-0.29448682,10.08318,-3.7780502
336,1436605255918,-0.52852005,9.577405,-4.455011
337,1436605255938,1.0007763,9.799467,-3.7936125
338,1436605255958,1.9512744,9.364322,-3.2082303
339,1436605255978,1.3964181,8.603564,-3.3614593
340,1436605255998,1.0660183,8.333019,-3.6493618
341,1436605256025,0.7793127,8.024766,-3.887585
342,1436605256035,0.6847417,7.924209,-4.096479
343,1436605256065,0.694917,7.9786773,-4.31914
344,1436605256075,0.36391866,7.788338,-4.526837
345,1436605256097,-0.077811554,7.680599,-4.863222
346,1436605256118,-0.30286652,7.7931266,-5.241506
347,1436605256138,-0.9636662,7.841609,-5.662287
348,1436605256159,-1.049259,8.087613,-5.898116
349,1436605256179,-0.7858967,8.275558,-5.9717374
350,1436605256198,-0.59136784,8.225879,-5.7885814
351,1436605256217,-0.4417302,8.103176,-5.566519
352,1436605256239,-0.47884035,8.187572,-5.360019
353,1436605256256,-0.4381389,8.399458,-5.2355204
354,1436605256284,-0.44831428,8.376713,-5.2702365
355,1436605256348,-0.6338649,8.158242,-5.0984526
356,1436605256349,-0.599149,7.9984293,-5.0038815
357,1436605256350,-0.5279215,7.9768815,-4.9404354
358,1436605256359,-0.7433996,8.420407,-5.0960584
359,1436605256386,-0.91099375,8.635885,-5.378574
360,1436605256397,-0.81642276,8.359954,-5.522825
361,1436605256416,-0.7152678,8.425795,-5.6826377
362,1436605256436,-0.770933,8.504205,-5.7466826
363,1436605256456,-1.1611878,8.297106,-5.692813
364,1436605256475,-1.5197195,8.439561,-5.9507885
365,1436605256496,-1.0696096,8.689755,-6.135142
366,1436605256516,-0.52253455,8.853758,-5.945401
367,1436605256538,-1.0462662,8.248025,-5.8029466
368,1436605256555,-1.2707225,7.9355817,-5.777209
369,1436605256579,-0.88525605,8.258201,-5.680842
370,1436605256599,-0.6979098,8.465299,-5.644929
371,1436605256618,-0.6955156,8.653243,-5.7790046
372,1436605256639,-0.59735334,8.987235,-6.0836663
373,1436605256659,-0.4369418,9.0476885,-6.2943563
374,1436605256679,-0.46387658,8.916606,-6.2075663
375,1436605256699,-0.38187516,8.70831,-5.973533
376,1436605256719,-0.41359833,8.740033,-5.663484
377,1436605256739,-0.789488,8.267777,-5.503671
378,1436605256758,-0.89543146,7.4028716,-5.445013
379,1436605256779,-0.599149,6.8743515,-5.385158
380,1436605256796,-0.533907,6.7905545,-5.1481323
381,1436605256815,-0.7469909,6.9767036,-4.933253
382,1436605256835,-1.3066356,7.5890207,-5.3043537
383,1436605256861,-1.6023195,9.509171,-7.780557
384,1436605256881,-0.7374141,11.647193,-8.256405
385,1436605256902,0.31184477,10.702082,-4.9302597
386,1436605256919,0.33758244,9.178771,-3.7576995
387,1436605256936,-0.051475335,8.556877,-4.3209357
388,1436605256956,-0.2220622,8.238448,-5.3354783
389,1436605256976,-0.40282443,7.8948803,-5.9011087
390,1436605256999,-0.24301147,8.043321,-5.7706246
391,1436605257025,-0.049679685,8.540716,-5.480926
392,1436605258638,-0.0035913025,8.908226,-5.1996074
393,1436605258639,-0.044292733,9.088389,-5.2887917
394,1436605258640,-0.46627077,8.877101,-5.492897
395,1436605258641,-0.5021838,8.346188,-5.592855
396,1436605258642,-0.38367084,8.376115,-5.6987987
397,1436605258643,-0.25198972,8.505402,-5.7478795
398,1436605258644,-0.1604115,8.541913,-5.7185507
399,1436605258645,-0.17118542,8.533533,-5.707777
400,1436605258646,-0.26755205,8.502409,-5.7257333
401,1436605258647,-0.23523031,8.491036,-5.653309
402,1436605258648,-0.1945289,8.517372,-5.5886655
403,1436605258649,-0.24361002,8.489241,-5.625177
404,1436605258650,-0.2885013,8.421006,-5.683835
405,1436605258651,-0.3429694,8.41921,-5.7239375
406,1436605258652,-0.3890578,8.515577,-5.756858
407,1436605258653,-0.47046062,8.511986,-5.683835
408,1436605258654,-0.4309563,8.578424,-5.5503583
409,1436605258655,-0.46507367,8.564059,-5.504868
410,1436605258656,-0.4854244,8.68796,-5.517438
411,1436605258657,-0.58897364,8.847773,-5.369596
412,1436605258658,-0.61530983,8.756194,-5.3127337
