id,attr_time,attr_x,attr_y,attr_z
1,1436605249207,9.98442,-0.1376666,-0.25677812
2,1436605249268,9.991602,-0.13108255,-0.260968
3,1436605249269,10.003573,-0.12988544,-0.28550854
4,1436605249270,10.022727,-0.12749124,-0.2813187
5,1436605249290,10.029311,-0.12090719,-0.25857377
6,1436605249307,10.007763,-0.142455,-0.24779987
7,1436605249333,9.969456,-0.15203181,-0.2645593
8,1436605249346,9.953894,-0.1400608,-0.25019407
9,1436605249367,9.941922,-0.14664486,-0.24480712
10,1436605249388,9.935339,-0.14604631,-0.23403321
11,1436605249407,9.957485,-0.15682021,-0.25438392
12,1436605249430,9.987412,-0.16101007,-0.2693477
13,1436605249447,9.977237,-0.15502456,-0.22385786
14,1436605249469,10.000581,-0.1412579,-0.23463176
15,1436605249488,10.005967,-0.13108255,-0.23104046
16,1436605249507,10.014347,-0.11851298,-0.24361002
17,1436605249529,9.993398,-0.11252748,-0.26276365
18,1436605249549,9.980828,-0.12449849,-0.25498247
19,1436605249569,9.972448,-0.14065935,-0.24899697
20,1436605249589,9.974843,-0.14903906,-0.25318682
21,1436605249610,9.97185,-0.14604631,-0.21667525
22,1436605249630,9.974244,-0.1412579,-0.22565351
23,1436605249650,9.965266,-0.14425065,-0.24600422
24,1436605249668,9.979631,-0.13826515,-0.23942018
25,1436605249687,9.990405,-0.15562311,-0.23223756
26,1436605249710,10.001179,-0.13706805,-0.22146365
27,1436605249727,9.988609,-0.14305355,-0.2112883
28,1436605249751,9.994595,-0.12270284,-0.2124854
29,1436605249767,9.978435,-0.12629414,-0.2172738
30,1436605249788,9.962872,-0.12389994,-0.207697
31,1436605249807,9.968259,-0.15322891,-0.22445641
32,1436605249826,9.983821,-0.1436521,-0.25617957
33,1436605249849,9.975441,-0.13826515,-0.25139117
34,1436605249867,9.947908,-0.13706805,-0.22625206
35,1436605249889,9.960478,-0.1340753,-0.23104046
36,1436605249907,9.999982,-0.13587095,-0.24001873
37,1436605249928,10.015544,-0.12988544,-0.2208651
38,1436605249950,10.023924,-0.14724341,-0.22505496
39,1436605250067,10.016742,-0.1328782,-0.22625206
40,1436605250068,9.996989,-0.14724341,-0.23882163
41,1436605250069,9.9712515,-0.1364695,-0.24779987
42,1436605250070,9.928755,-0.13108255,-0.24959552
43,1436605250071,9.928755,-0.15023616,-0.2100912
44,1436605250072,9.937733,-0.14305355,-0.20649989
45,1436605250095,9.96347,-0.15322891,-0.22026655
46,1436605250108,9.981427,-0.15682021,-0.21188685
47,1436605250139,10.001778,-0.15083471,-0.21906945
48,1436605250147,9.99639,-0.12808979,-0.22146365
49,1436605250168,10.008362,-0.11791443,-0.20829555
50,1436605250192,9.998785,-0.12569559,-0.219668
51,1436605250208,10.013748,-0.11971009,-0.20470424
52,1436605250229,10.01315,-0.1412579,-0.19632454
53,1436605250249,10.016143,-0.15203181,-0.19512744
54,1436605250270,9.991004,-0.16160862,-0.207697
55,1436605250290,9.985617,-0.16280572,-0.18734628
56,1436605250310,9.977836,-0.14604631,-0.17417817
57,1436605250329,9.965864,-0.12749124,-0.18734628
58,1436605250351,9.987412,-0.1328782,-0.2148796
59,1436605250370,9.988609,-0.14305355,-0.20171149
60,1436605250389,9.989208,-0.12808979,-0.19033903
61,1436605250410,10.00477,-0.130484,-0.19871874
62,1436605250428,9.991602,-0.12090719,-0.1933318
63,1436605250450,9.978435,-0.1388637,-0.18315643
64,1436605250470,9.969456,-0.15502456,-0.1945289
65,1436605250488,9.940725,-0.1400608,-0.20410569
66,1436605250509,9.919776,-0.16160862,-0.21428105
67,1436605250530,9.959281,-0.130484,-0.2184709
68,1436605250550,9.952697,-0.15442601,-0.2112883
69,1436605250570,9.934141,-0.1604115,-0.18255788
70,1436605250591,9.954493,-0.14844051,-0.15502456
71,1436605250609,9.969456,-0.1364695,-0.16340427
72,1436605250630,10.019135,-0.14065935,-0.16280572
73,1436605250650,10.013748,-0.15263036,-0.16639702
74,1436605250668,9.976639,-0.17776948,-0.19632454
75,1436605250692,9.961675,-0.16519992,-0.20111294
76,1436605250760,9.985617,-0.17178397,-0.18315643
77,1436605250761,10.001778,-0.14844051,-0.15502456
78,1436605250762,9.993398,-0.142455,-0.15382746
79,1436605250771,9.996989,-0.14664486,-0.14065935
80,1436605250792,9.982624,-0.1436521,-0.14425065
81,1436605250813,9.9951935,-0.13227965,-0.15981296
82,1436605250828,9.995792,-0.16101007,-0.14784196
83,1436605250848,10.001778,-0.14425065,-0.15203181
84,1436605250869,10.0029745,-0.15562311,-0.16280572
85,1436605250889,9.97604,-0.17717093,-0.1592144
86,1436605250909,9.974244,-0.16280572,-0.17477672
87,1436605250929,9.980229,-0.16759412,-0.15442601
88,1436605250951,9.968858,-0.16220717,-0.16460137
89,1436605250968,9.9790325,-0.142455,-0.15562311
90,1436605250987,9.982025,-0.14963761,-0.15023616
91,1436605251008,9.986216,-0.13706805,-0.16998832
92,1436605251028,9.976639,-0.11911154,-0.17058687
93,1436605251048,9.967062,-0.14065935,-0.17238252
94,1436605251068,9.972448,-0.1400608,-0.16759412
95,1436605251088,9.974843,-0.15682021,-0.16879122
96,1436605251110,9.98442,-0.16280572,-0.1604115
97,1436605251131,9.980229,-0.15502456,-0.16340427
98,1436605251149,9.983821,-0.15981296,-0.17477672
99,1436605251170,9.977237,-0.15442601,-0.19393034
100,1436605251192,9.972448,-0.1592144,-0.18974048
101,1436605251209,9.98442,-0.1592144,-0.16759412
102,1436605251230,9.980828,-0.16160862,-0.18016368
103,1436605251251,9.958083,-0.15562311,-0.19991584
104,1436605251271,9.94312,-0.17896658,-0.15382746
105,1436605251292,9.961076,-0.14903906,-0.16699557
106,1436605251310,9.990405,-0.13347675,-0.19931729
107,1436605251331,9.997588,-0.12449849,-0.17058687
108,1436605251349,10.031107,-0.1436521,-0.18974048
109,1436605251370,10.040085,-0.15322891,-0.19812019
110,1436605251391,10.006566,-0.16101007,-0.21308395
111,1436605251409,9.97185,-0.18195933,-0.22924481
112,1436605251428,9.958083,-0.17238252,-0.18555063
113,1436605251473,9.946711,-0.15682021,-0.16759412
114,1436605251474,9.935937,-0.1448492,-0.17357962
115,1436605251492,9.936536,-0.15143326,-0.18375498
116,1436605251509,9.983223,-0.12689269,-0.18255788
117,1436605251528,9.976639,-0.13347675,-0.16460137
118,1436605251548,10.018537,-0.14185645,-0.19393034
119,1436605251568,10.022128,-0.13587095,-0.20410569
120,1436605251591,9.998785,-0.12689269,-0.19033903
121,1436605251608,9.980229,-0.12808979,-0.2100912
122,1436605251628,9.968858,-0.12150574,-0.20410569
123,1436605251649,9.970653,-0.130484,-0.19033903
124,1436605251669,9.961076,-0.12509704,-0.19871874
125,1436605251690,9.965266,-0.13587095,-0.20470424
126,1436605251711,9.974244,-0.1340753,-0.20649989
127,1436605251731,9.968259,-0.1364695,-0.20051439
128,1436605251752,9.956886,-0.12689269,-0.20949265
129,1436605251772,9.978435,-0.12449849,-0.20530279
130,1436605251792,10.003573,-0.110731825,-0.20350714
131,1436605251812,10.027515,-0.12928689,-0.20231004
132,1436605251832,10.015544,-0.13227965,-0.20051439
133,1436605251852,9.999383,-0.1328782,-0.23104046
134,1436605251871,9.958682,-0.13946225,-0.2657564
135,1436605251891,9.924564,-0.12569559,-0.25258827
136,1436605251912,9.937733,-0.12389994,-0.22565351
137,1436605251931,9.959879,-0.12210429,-0.22266077
138,1436605251952,9.983223,-0.11611878,-0.22146365
139,1436605251970,9.976639,-0.11851298,-0.21308395
140,1436605251992,9.970653,-0.12090719,-0.19931729
141,1436605252012,10.0029745,-0.110133275,-0.25438392
142,1436605252032,10.056845,-0.09696517,-0.25438392
143,1436605252052,10.041881,-0.12389994,-0.27593175
144,1436605252069,9.993398,-0.12389994,-0.25737667
145,1436605252091,9.970653,-0.12868834,-0.25019407
146,1436605252112,9.956886,-0.13467385,-0.22744916
147,1436605252130,9.961675,-0.1448492,-0.2112883
148,1436605252157,9.958682,-0.142455,-0.21667525
149,1436605252227,9.956886,-0.1388637,-0.24660277
150,1436605252229,9.974244,-0.13587095,-0.24420857
151,1436605252230,9.973047,-0.12569559,-0.22685061
152,1436605252231,9.9712515,-0.12629414,-0.22325931
153,1436605252251,9.979631,-0.11372458,-0.23403321
154,1436605252270,9.999982,-0.11133038,-0.24899697
155,1436605252290,9.978435,-0.12389994,-0.23343466
156,1436605252309,9.969456,-0.12928689,-0.260968
157,1436605252329,9.941324,-0.1412579,-0.25438392
158,1436605252349,9.959281,-0.1316811,-0.23403321
159,1436605252374,9.970653,-0.12449849,-0.24540567
160,1436605252390,9.975441,-0.13826515,-0.24959552
161,1436605252411,9.982624,-0.12090719,-0.25737667
162,1436605252432,9.992201,-0.11372458,-0.272939
163,1436605252452,9.982025,-0.1316811,-0.26156655
164,1436605252472,9.972448,-0.12749124,-0.25558102
165,1436605252495,9.947908,-0.12210429,-0.2765303
166,1436605252512,9.964667,-0.12569559,-0.2777274
167,1436605252559,9.968858,-0.108936176,-0.28790274
168,1436605252560,9.968858,-0.13706805,-0.2789245
169,1436605252571,9.946711,-0.12150574,-0.29568392
170,1436605252593,9.956886,-0.130484,-0.26396075
171,1436605252611,9.979631,-0.12808979,-0.28491
172,1436605252633,9.988011,-0.12868834,-0.27353755
173,1436605252651,9.973646,-0.13826515,-0.27353755
174,1436605252671,10.005967,-0.12749124,-0.2789245
175,1436605252692,10.016143,-0.11252748,-0.30166942
176,1436605252712,10.010756,-0.11911154,-0.31663316
177,1436605252732,9.999383,-0.12449849,-0.29328972
178,1436605252752,9.985018,-0.10594343,-0.29807812
179,1436605252772,9.988609,-0.13946225,-0.31423897
180,1436605252793,9.952697,-0.1364695,-0.29149407
181,1436605252813,9.93474,-0.142455,-0.31603462
182,1436605252831,9.931149,-0.1436521,-0.32321724
183,1436605252851,9.925761,-0.15023616,-0.31423897
184,1436605252877,9.955689,-0.1340753,-0.34356794
185,1436605252934,9.976639,-0.12808979,-0.3429694
186,1436605252935,9.973646,-0.14604631,-0.36750996
187,1436605252936,9.954493,-0.13108255,-0.36750996
188,1436605252958,9.934141,-0.11851298,-0.40521863
189,1436605252970,9.917382,-0.12210429,-0.42676646
190,1436605252994,9.921572,-0.16101007,-0.41120413
191,1436605253019,9.941324,-0.14544775,-0.39205053
192,1436605253041,9.901819,-0.14664486,-0.39264908
193,1436605253063,9.901819,-0.11911154,-0.41718966
194,1436605253093,9.916184,-0.15682021,-0.45908818
195,1436605253094,9.935937,-0.1592144,-0.4985925
196,1436605253111,9.969456,-0.16519992,-0.52732295
197,1436605253131,9.982025,-0.15203181,-0.54767364
198,1436605253151,9.97185,-0.17357962,-0.5638345
199,1436605253172,9.980828,-0.18674773,-0.61770403
200,1436605253192,9.992201,-0.2100912,-0.6464345
201,1436605253213,9.952098,-0.17178397,-0.6871359
202,1436605253233,9.898229,-0.142455,-0.7236475
203,1436605253253,9.894637,-0.090979666,-0.7314286
204,1436605253271,9.870096,-0.06703765,-0.7703344
205,1436605253293,9.842564,-0.02932897,-0.84814596
206,1436605253315,9.744401,0.0035913025,-0.8655039
207,1436605253332,9.686341,-0.01436521,-0.8924387
208,1436605253355,9.661801,-0.048482586,-0.91219085
209,1436605253370,9.721656,-0.0796072,-0.961272
210,1436605253392,9.831789,-0.13946225,-0.97623575
211,1436605253412,9.913791,-0.17836803,-1.0432734
212,1436605253432,9.928156,-0.19632454,-1.0755951
213,1436605253450,9.90601,-0.23463176,-1.1504139
214,1436605253473,9.837176,-0.24899697,-1.2192472
215,1436605253494,9.757569,-0.23523031,-1.2491747
216,1436605253514,9.671378,-0.19093758,-1.2910733
217,1436605253533,9.646238,-0.10295067,-1.3174095
218,1436605253552,9.640852,0.035314474,-1.3299791
219,1436605253571,9.585187,0.1945289,-1.3670892
220,1436605253591,9.613917,0.3369839,-1.4670471
221,1436605253612,9.659407,0.5189432,-1.6579847
222,1436605253632,9.6923275,0.6799533,-1.8249803
223,1436605253700,9.688137,0.748188,-1.9267339
224,1436605253701,9.610326,0.7128736,-1.8321629
225,1436605253702,9.600749,0.6667852,-1.6316484
226,1436605253710,9.733627,0.557849,-1.4047978
227,1436605253735,9.844957,0.46447513,-1.3192052
228,1436605253751,10.063428,0.23582886,-1.2761095
229,1436605253770,10.332177,-0.01316811,-1.2988545
230,1436605253790,10.485406,-0.28311434,-1.3425486
231,1436605253811,10.370484,-0.52373165,-1.4257472
232,1436605253833,10.211869,-0.6805518,-1.596334
233,1436605253851,9.981427,-0.6476316,-1.7770962
234,1436605253871,9.615114,-0.46986207,-1.9123687
235,1436605253891,9.229648,-0.17238252,-2.0069396
236,1436605253914,8.818443,0.05865794,-2.1164744
237,1436605253934,8.352771,0.33159694,-2.315193
238,1436605253954,7.9834657,0.6500258,-2.6078842
239,1436605253971,7.875128,0.9187749,-2.9981391
240,1436605253992,8.015787,0.91219085,-3.4290953
241,1436605254011,8.385093,0.7410054,-3.7463272
242,1436605254033,8.683769,0.57041854,-3.8600516
243,1436605254051,9.375095,0.16879122,-3.6900635
244,1436605254074,9.70789,-0.24061728,-3.453636
245,1436605254092,9.8994255,-0.79248077,-3.2758665
246,1436605254114,10.147225,-1.3293805,-3.1082723
247,1436605254133,10.178948,-1.4401124,-2.9299042
248,1436605254153,9.958682,-1.2443863,-2.96881
249,1436605254171,9.771336,-0.9684546,-3.401562
250,1436605254194,9.8677025,-0.84216046,-4.338892
251,1436605254214,9.846753,-0.9343372,-5.097255
252,1436605254235,9.788693,-1.1306617,-5.033809
253,1436605254251,9.437943,-1.2922704,-4.6058455
254,1436605254272,9.147048,-1.323395,-4.3023806
255,1436605254291,8.94773,-1.3772645,-4.086902
256,1436605254314,8.474277,-1.4580688,-4.1665096
257,1436605254332,8.176797,-1.4790181,-4.2874165
258,1436605254353,7.621941,-1.4460979,-4.4861355
259,1436605254423,7.193379,-1.2940661,-4.5555673
260,1436605254424,7.187992,-1.0283096,-4.4657845
261,1436605254425,7.4471645,-0.7793127,-4.5447936
262,1436605254432,7.827842,-0.6099229,-4.7285485
263,1436605254455,8.279748,-0.4770447,-5.01705
264,1436605254471,8.800487,-0.4237737,-5.5389857
265,1436605254511,9.277532,-0.65182143,-6.203377
266,1436605254512,9.311649,-1.1031284,-6.9599442
267,1436605254532,8.916606,-1.4909891,-7.353192
268,1436605254554,8.102577,-1.79206,-7.2149267
269,1436605254579,7.0102224,-1.9835961,-6.7241154
270,1436605254593,5.9771247,-2.0470424,-6.136339
271,1436605254611,5.2259436,-2.0015526,-5.6179943
272,1436605254634,4.955399,-1.9746178,-5.4940944
273,1436605254654,4.687248,-1.7729063,-5.436035
274,1436605254674,4.6710877,-1.501763,-5.834071
275,1436605254692,4.743512,-1.407192,-6.779182
276,1436605254714,5.01705,-1.3192052,-7.8158712
277,1436605254734,5.321712,-1.246182,-8.63828
278,1436605254754,5.710171,-1.2695254,-9.417592
279,1436605254774,6.303933,-1.1007342,-9.764751
280,1436605254791,6.005256,-0.88765025,-9.54209
281,1436605254817,5.266645,-0.7679402,-9.771336
282,1436605254835,4.36044,-0.7398083,-9.86471
283,1436605254853,3.459023,-0.81522566,-9.698313
284,1436605254871,3.259107,-0.8523358,-9.642648
285,1436605254892,2.9071593,-0.8858546,-9.595362
286,1436605254912,2.585738,-0.90141696,-9.859323
287,1436605254931,2.4905684,-0.8690952,-10.0269165
288,1436605254952,2.095525,-0.7009025,-10.159795
289,1436605254972,1.6358383,-0.789488,-10.132261
290,1436605255001,1.0552444,-0.87208796,-9.809643
291,1436605255011,0.66738373,-1.0546459,-9.479243
292,1436605255034,0.25737667,-1.1240777,-9.46009
293,1436605255052,-0.16759412,-1.0199299,-9.527725
294,1436605255081,-0.4830302,-1.0779893,-9.762358
295,1436605255136,-0.6655881,-1.1204864,-9.801862
296,1436605255137,-0.86370826,-1.1593921,-9.758167
297,1436605255138,-1.1504139,-1.2018893,-9.734225
298,1436605255151,-1.6639702,-1.1540052,-9.673772
299,1436605255172,-2.1930888,-0.91578215,-9.53012
300,1436605255192,-2.4049757,-0.6751649,-9.162011
301,1436605255211,-2.5396495,-0.5081693,-9.109938
302,1436605255232,-2.7700913,-0.60333884,-9.176376
303,1436605255254,-2.943671,-0.7158663,-9.341577
304,1436605255275,-2.8856115,-0.7020996,-9.272144
305,1436605255292,-2.758719,-0.80684596,-9.333796
306,1436605255312,-2.806603,-1.0474633,-9.297882
307,1436605255333,-2.831742,-1.2060791,-9.198523
308,1436605255354,-2.9370868,-1.1097125,-9.440337
309,1436605255374,-3.4434607,-1.0851719,-9.788693
310,1436605255393,-3.9097314,-1.0594343,-10.0269165
311,1436605255412,-4.2479124,-0.9959879,-10.1939125
312,1436605255434,-4.484938,-1.009156,-10.242394
313,1436605255455,-4.2425256,-1.043872,-9.602545
314,1436605255475,-3.5727475,-0.9624691,-9.4774475
315,1436605255493,-3.3195608,-1.0055647,-9.795278
316,1436605255513,-2.896984,-0.9451111,-10.340557
317,1436605255534,-2.6581624,-0.88166475,-10.654198
318,1436605255556,-2.2242134,-0.729633,-11.127052
319,1436605255575,-1.8243817,-0.7146692,-11.496957
320,1436605255594,-1.5029601,-0.7529764,-11.329363
321,1436605255614,-1.1994951,-0.8218097,-10.972028
322,1436605255634,-0.61411273,-0.7649474,-10.745776
323,1436605255654,-0.33399114,-0.79726917,-10.500969
324,1436605255675,0.7392098,-0.82121116,-10.737994
325,1436605255694,1.2437878,-0.8834604,-10.5602255
326,1436605255717,1.769315,-0.8182184,-10.514735
327,1436605255734,2.0350714,-0.6745663,-10.435128
328,1436605255755,2.4672248,-0.4177882,-10.251373
329,1436605255773,2.8987796,-0.37708676,-9.932345
330,1436605255799,3.3680432,-0.17238252,-9.518148
331,1436605255858,3.980959,-0.15801731,-8.7771435
332,1436605255859,4.3394904,-0.1328782,-8.484452
333,1436605255870,4.7800236,-0.14544775,-8.06427
334,1436605255872,5.218761,-0.2717419,-7.711125
335,1436605255894,5.475539,-0.533907,-7.433398
336,1436605255915,5.5820813,-0.7679402,-7.1951747
337,1436605255932,5.897517,-0.92416185,-6.9844847
338,1436605255952,6.1704564,-0.9235633,-6.953959
339,1436605255975,6.344036,-0.85532856,-7.0006456
340,1436605255993,6.683414,-0.7200562,-7.0700774
341,1436605256016,6.712743,-0.5710171,-7.109582
342,1436605256033,7.1065893,-0.4818331,-7.04015
343,1436605256054,7.45734,-0.24181437,-7.0467343
344,1436605256075,7.726089,0.0796072,-7.0347633
345,1436605256095,7.86196,0.4878186,-7.050924
346,1436605256116,7.843405,0.66858083,-7.0144124
347,1436605256136,7.784148,0.9008184,-6.96174
348,1436605256155,7.6847887,1.0618285,-6.8001313
349,1436605256176,7.6746135,1.039682,-6.583456
350,1436605256195,7.6351094,1.0923545,-6.479907
351,1436605256216,7.6165543,0.9888053,-6.4182563
352,1436605256235,7.5165963,0.91937345,-6.2943563
353,1436605256260,7.475895,0.8595184,-6.1357403
354,1436605256276,7.469909,0.80325466,-5.9849057
355,1436605256293,7.328053,0.95588505,-6.120178
356,1436605256319,7.275979,0.801459,-6.142923
357,1436605256333,7.0952168,0.76075757,-6.3338604
358,1436605256355,7.0820484,0.7344214,-6.281188
359,1436605256374,7.1047935,0.6147113,-6.510433
360,1436605256393,7.16824,0.47764325,-6.742072
361,1436605256413,7.041946,0.40462008,-6.959346
362,1436605256439,6.986879,0.374094,-7.0263834
363,1436605256470,6.7749925,0.3597288,-7.1646485
364,1436605256473,6.5188127,0.3657143,-7.241862
365,1436605256493,6.4924765,0.4249708,-7.3729444
366,1436605256513,6.5684924,0.57760113,-7.727885
367,1436605256564,6.476914,0.6536171,-7.9990277
368,1436605256565,6.3631897,0.717662,-8.145074
369,1436605256581,6.415862,0.80564886,-8.112154
370,1436605256595,6.335656,0.8242039,-7.9792757
371,1436605256613,6.133945,0.7032967,-7.757812
372,1436605256633,6.344036,0.4237737,-7.6728177
373,1436605256653,6.435614,0.2801216,-7.785944
374,1436605256673,6.1141925,0.57041854,-7.949348
375,1436605256706,5.4563856,1.0342951,-8.090606
376,1436605256713,5.433042,1.2611457,-8.180388
377,1436605256733,5.4162827,1.5011644,-8.321048
378,1436605256759,5.744887,1.2557588,-8.306683
379,1436605256775,6.0022635,1.002572,-8.593987
380,1436605256795,5.4521956,0.9876082,-9.062652
381,1436605256816,5.325303,0.90261406,-9.120711
382,1436605256837,5.6179943,0.6769605,-8.853159
383,1436605256856,5.5312047,0.2621651,-8.8884735
384,1436605256877,5.0320134,-0.09935937,-8.907029
385,1436605256896,4.5358152,-0.28431144,-8.801085
386,1436605256916,4.371214,-0.34596214,-8.546103
387,1436605256936,4.321534,-0.3429694,-8.369531
388,1436605256956,4.3718123,-0.39863458,-8.2276745
389,1436605256979,4.5435963,-0.28670564,-8.148665
390,1436605256999,4.982932,-0.059855044,-8.145074
391,1436605257020,5.4821234,0.16460137,-8.313267
392,1436605257041,5.6580973,0.25857377,-8.425795
393,1436605257059,5.8933277,0.46028528,-8.612542
394,1436605257079,6.0627174,0.57760113,-8.678981
395,1436605257097,6.1465144,0.6194997,-8.593987
396,1436605257114,6.101623,0.6907272,-8.479065
397,1436605257133,5.9717374,0.78290397,-8.400655
398,1436605257153,5.849035,0.8170213,-8.269572
399,1436605257179,5.869984,0.8900445,-8.154651
400,1436605257199,5.9226565,0.8936358,-8.046912
401,1436605257220,6.001665,0.81283146,-7.904457
402,1436605257235,6.215946,0.623091,-7.7344685
