id,attr_time,attr_x,attr_y,attr_z
1,1436625480216,-0.76554596,10.142437,0.37349546
2,1436625480229,-0.75357497,10.132261,0.41958386
3,1436625480250,-0.78529817,10.171766,0.4405331
4,1436625480270,-0.78290397,10.198701,0.45070848
5,1436625480294,-0.7661445,10.189722,0.45669398
6,1436625480312,-0.76434886,10.197504,0.44592008
7,1436625480332,-0.7787141,10.155605,0.4297592
8,1436625480352,-0.8295909,10.143036,0.41240123
9,1436625480372,-0.8559271,10.126276,0.40761283
10,1436625480392,-0.87927055,10.144831,0.39444473
11,1436625480411,-0.8511387,10.156802,0.4261679
12,1436625480432,-0.8511387,10.136452,0.48243165
13,1436625480451,-0.81402856,10.204686,0.46746787
14,1436625480472,-0.79367787,10.238205,0.46686932
15,1436625480492,-0.7966706,10.238205,0.4285621
16,1436625480512,-0.7009025,10.168773,0.45908818
17,1436625480530,-0.6889315,10.1861315,0.46926352
18,1436625480557,-0.86011696,10.242394,0.415394
19,1436625480612,-0.93134445,10.0903635,0.5255273
20,1436625480613,-0.8343793,10.100538,0.54647654
21,1436625480614,-0.7954735,10.107721,0.42916065
22,1436625480635,-0.82480246,10.046669,0.40940848
23,1436625480651,-0.7733272,10.044873,0.4237737
24,1436625480680,-0.7332243,10.059837,0.39863458
25,1436625480690,-0.74758947,10.036493,0.41240123
26,1436625480713,-0.7398083,9.930551,0.5117606
27,1436625480730,-0.65182143,9.89763,0.53929394
28,1436625480750,-0.60932434,9.910798,0.521936
29,1436625480770,-0.6171055,9.939528,0.55725044
30,1436625480795,-0.6374562,10.032902,0.5805939
31,1436625480812,-0.6871359,10.254965,0.48841715
32,1436625480834,-0.7918822,10.371083,0.40342298
33,1436625480854,-0.8924387,10.468647,0.35553896
34,1436625480873,-0.9463082,10.487202,0.38486794
35,1436625480895,-0.96067345,10.393828,0.41479546
36,1436625480910,-0.93134445,10.268731,0.3824737
37,1436625480934,-0.7505822,10.183139,0.40043023
38,1436625480959,-0.5770026,10.123283,0.36511576
39,1436625480975,-0.47225627,10.090961,0.38606504
40,1436625480991,-0.4285621,10.09994,0.39444473
41,1436625481011,-0.480636,10.096349,0.41299978
42,1436625481063,-0.557849,10.161591,0.40102878
43,1436625481073,-0.6254852,10.178948,0.4381389
44,1436625481074,-0.6781576,10.22384,0.46148238
45,1436625481101,-0.7062895,10.228628,0.4429273
46,1436625481113,-0.6733692,10.253767,0.44771573
47,1436625481139,-0.6841431,10.244789,0.42916065
48,1436625481151,-0.6356605,10.197504,0.4237737
49,1436625481173,-0.5614403,10.187328,0.44113165
50,1436625481192,-0.61530983,10.283096,0.3477578
51,1436625481212,-0.59495914,10.121488,0.45310268
52,1436625481231,-0.47046062,10.061034,0.47405192
53,1436625481252,-0.4141969,10.0903635,0.39264908
54,1436625481270,-0.5081693,10.02572,0.39145198
55,1436625481290,-0.53809685,10.09156,0.39983168
56,1436625481312,-0.5021838,10.166978,0.32621
57,1436625481335,-0.5770026,10.214263,0.29628247
58,1436625481355,-0.5943606,10.220847,0.35673606
59,1436625481375,-0.54049104,10.201694,0.4177882
60,1436625481393,-0.47465047,10.237606,0.41060558
61,1436625481410,-0.48482585,10.207081,0.47165772
62,1436625481432,-0.53211135,10.20289,0.41060558
63,1436625481451,-0.5793968,10.204087,0.3405752
64,1436625481472,-0.5835867,10.213664,0.350152
65,1436625481493,-0.58657944,10.185533,0.3489549
66,1436625481536,-0.5662287,10.160992,0.40043023
67,1436625481537,-0.56682724,10.186729,0.41000703
68,1436625481554,-0.5722142,10.198102,0.40821138
69,1436625481577,-0.56922144,10.225037,0.39923313
70,1436625481593,-0.55605334,10.254965,0.3716998
71,1436625481610,-0.56922144,10.262746,0.35673606
72,1436625481632,-0.56084174,10.2657385,0.3866636
73,1436625481653,-0.56084174,10.259753,0.41958386
74,1436625481671,-0.60094464,10.237008,0.38067806
75,1436625481691,-0.6596026,10.221446,0.3597288
76,1436625481716,-0.6937199,10.220847,0.34835634
77,1436625481733,-0.6925228,10.222044,0.3196259
78,1436625481751,-0.7080852,10.204087,0.32321724
79,1436625481774,-0.7074866,10.1861315,0.338181
80,1436625481793,-0.6428431,10.160992,0.31064767
81,1436625481814,-0.62129533,10.226234,0.2861071
82,1436625481833,-0.70509243,10.221446,0.2657564
83,1436625481853,-0.6961141,10.092158,0.40402153
84,1436625481873,-0.6452374,10.133459,0.31304187
85,1436625481893,-0.6841431,10.109517,0.26635495
86,1436625481911,-0.75716627,10.098145,0.2837129
87,1436625481932,-0.66259533,10.174759,0.29568392
88,1436625481955,-0.6596026,10.253767,0.24899697
89,1436625482041,-0.7062895,10.263344,0.2621651
90,1436625482042,-0.7284359,10.254366,0.32441434
91,1436625482043,-0.7344214,10.259753,0.3309984
92,1436625482044,-0.79008657,10.234015,0.33997664
93,1436625482073,-0.825401,10.176555,0.34237084
94,1436625482074,-0.8403648,10.183139,0.3226187
95,1436625482091,-0.80564886,10.21546,0.29867667
96,1436625482118,-0.7200562,10.207081,0.30945057
97,1436625482132,-0.7356185,10.204087,0.3345897
98,1436625482153,-0.74758947,10.222044,0.33877954
99,1436625482172,-0.75357497,10.21127,0.362123
100,1436625482192,-0.7469909,10.193314,0.3573346
101,1436625482215,-0.7194576,10.178948,0.3286042
102,1436625482234,-0.7278373,10.159196,0.3286042
103,1436625482253,-0.74639237,10.163386,0.27593175
104,1436625482274,-0.7781156,10.163984,0.25438392
105,1436625482293,-0.7691373,10.159795,0.26755205
106,1436625482314,-0.7428011,10.166978,0.29328972
107,1436625482335,-0.7350199,10.155006,0.33399114
108,1436625482355,-0.7206547,10.13705,0.33279404
109,1436625482374,-0.688333,10.146626,0.32920274
110,1436625482404,-0.7026982,10.1544075,0.29029694
111,1436625482411,-0.7715315,10.198102,0.32022446
112,1436625482431,-0.7134721,10.198102,0.32621
113,1436625482451,-0.7272388,10.280104,0.25617957
114,1436625482471,-0.85473,10.307637,0.2813187
115,1436625482497,-0.8655039,10.189722,0.41838676
116,1436625482511,-0.75956047,10.229825,0.3878607
117,1436625482531,-0.7445967,10.195109,0.32441434
118,1436625482552,-0.7858967,10.174759,0.30047232
119,1436625482571,-0.7032967,10.238205,0.2813187
120,1436625482591,-0.65182143,10.26933,0.28072014
121,1436625482616,-0.6691794,10.298658,0.31184477
122,1436625482632,-0.7152678,10.269928,0.32022446
123,1436625482655,-0.7422025,10.288484,0.32441434
124,1436625482673,-0.736217,10.253767,0.32800564
125,1436625482692,-0.7493851,10.181941,0.37828386
126,1436625482715,-0.76554596,10.163984,0.3226187
127,1436625482732,-0.7679402,10.159196,0.2657564
128,1436625482752,-0.7493851,10.120889,0.29508537
129,1436625482777,-0.7164649,10.126875,0.30765492
130,1436625482791,-0.7044938,10.1065235,0.33039984
131,1436625482811,-0.6937199,10.137649,0.3286042
132,1436625482831,-0.7032967,10.146626,0.33758244
133,1436625482855,-0.6901286,10.1382475,0.3489549
134,1436625482873,-0.7009025,10.135853,0.3597288
135,1436625482896,-0.7236475,10.155006,0.34117374
136,1436625482915,-0.7697359,10.134656,0.3453636
137,1436625482934,-0.7918822,10.116699,0.33877954
138,1436625483028,-0.79008657,10.1304655,0.3369839
139,1436625483038,-0.7966706,10.14124,0.35075054
140,1436625483039,-0.78170687,10.152613,0.32680854
141,1436625483040,-0.770933,10.1304655,0.35075054
142,1436625483041,-0.75357497,10.146626,0.34715924
143,1436625483122,-0.75956047,10.141838,0.34715924
144,1436625483161,-0.7128736,10.126276,0.3752911
145,1436625483162,-0.7134721,10.21546,0.3693056
146,1436625483163,-0.8415619,10.242993,0.33399114
147,1436625483164,-0.8607155,10.105926,0.4321534
148,1436625483165,-0.8122329,10.165182,0.38367084
149,1436625483172,-0.8451532,10.149021,0.27593175
150,1436625483195,-0.88166475,10.102334,0.3597288
151,1436625483215,-0.79487497,10.093954,0.35673606
152,1436625483232,-0.7404069,10.140042,0.3274071
153,1436625483273,-0.8098387,10.21127,0.3465607
154,1436625483274,-0.8391677,10.251971,0.34955344
155,1436625483291,-0.81283146,10.280702,0.3585317
156,1436625483314,-0.78170687,10.213664,0.43993455
157,1436625483332,-0.7733272,10.159196,0.49919105
158,1436625483353,-0.7954735,10.141838,0.4321534
159,1436625483371,-0.8403648,10.094553,0.3866636
160,1436625483393,-0.8499416,10.102933,0.40402153
161,1436625483412,-0.85413146,10.107122,0.42916065
162,1436625483433,-0.8583213,10.136452,0.47165772
163,1436625483453,-0.84934306,10.168175,0.49679685
164,1436625483474,-0.830788,10.108319,0.5363012
165,1436625483504,-0.7727286,10.069414,0.53330845
166,1436625483515,-0.74758947,10.092757,0.52253455
167,1436625483532,-0.7248446,10.108918,0.5081693
168,1436625483552,-0.6703765,10.136452,0.5141548
169,1436625483572,-0.6123171,10.17835,0.53809685
170,1436625483591,-0.5410896,10.198701,0.5793968
171,1436625483612,-0.5177461,10.141838,0.6931214
172,1436625483633,-0.5081693,10.065823,0.7398083
173,1436625483652,-0.50996494,10.051457,0.7721301
174,1436625483676,-0.54887074,10.052654,0.7978677
175,1436625483694,-0.57161564,10.069414,0.7835025
176,1436625483715,-0.45789108,10.05864,0.81343
177,1436625483733,-0.415394,10.113707,0.8206126
178,1436625483755,-0.4225766,10.151415,0.75118077
179,1436625483776,-0.3597288,10.014946,0.81163436
180,1436625483796,-0.24061728,10.01315,0.8110358
181,1436625483816,-0.26874915,10.015544,0.6997054
182,1436625483835,-0.41000703,9.98442,0.6859388
183,1436625483856,-0.46567222,9.967062,0.6338649
184,1436625483875,-0.427365,9.9928,0.5291186
185,1436625483895,-0.47285482,9.980229,0.42317516
186,1436625483918,-0.46686932,9.96347,0.30346507
187,1436625483967,-0.3854665,9.955689,0.16280572
188,1436625483978,-0.3705027,10.047866,0.0077811554
189,1436625483979,-0.40581718,10.375273,-0.18016368
190,1436625484000,-0.4429273,10.542868,-0.33279404
191,1436625484020,-0.3537433,10.449493,-0.24779987
192,1436625484033,-0.31483752,10.152014,-0.11372458
193,1436625484062,-0.30945057,10.031705,-0.17537527
194,1436625484073,-0.40880993,10.296265,-0.521936
195,1436625484098,-0.45609543,10.655395,-0.82240826
196,1436625484116,-0.35194764,10.861895,-0.86490536
197,1436625484133,-0.10175357,10.925341,-0.6572084
198,1436625484153,0.14844051,10.867282,-0.30825347
199,1436625484173,0.31423897,10.576386,0.017956512
200,1436625484193,0.25438392,10.345944,0.19871874
201,1436625484219,0.18435353,10.290278,0.15562311
202,1436625484233,-0.06464344,10.267534,-0.0676362
203,1436625484252,-0.15143326,10.272921,-0.31603462
204,1436625484272,-0.023942016,10.287286,-0.46986207
205,1436625484292,0.18495208,10.296265,-0.4985925
206,1436625484312,0.42916065,10.371083,-0.44592008
207,1436625484332,0.6338649,10.524312,-0.48123455
208,1436625484355,0.8810662,10.430939,-0.4782418
209,1436625484373,1.1881226,10.447099,-0.38067806
210,1436625484398,1.359308,10.427347,-0.36990416
211,1436625484414,1.6160861,10.484209,-0.22266077
212,1436625484433,1.6238673,10.924144,-0.14724341
213,1436625484455,1.2509704,11.999141,-0.24361002
214,1436625484474,0.81642276,11.476605,0.6793547
215,1436625484495,0.5243302,10.858902,1.4024036
216,1436625484513,0.009576807,10.501567,1.3652935
217,1436625484533,-0.42556936,10.693702,0.47225627
218,1436625484552,-0.2220622,10.585963,-0.18674773
219,1436625484577,0.7206547,10.228628,-0.039504327
220,1436625484596,1.7322049,9.522339,0.59136784
221,1436625484614,2.3415294,8.465898,1.2204443
222,1436625484634,2.2882583,7.6524673,1.347337
223,1436625484657,1.9440918,8.024766,1.4466964
224,1436625484677,1.395221,9.403826,1.4748282
225,1436625484697,0.8607155,10.687118,1.8740613
226,1436625484717,0.57879823,11.055226,2.5396495
227,1436625484736,0.4973954,11.064803,2.6964695
228,1436625484756,0.38726214,10.758346,2.5480292
229,1436625484776,0.31244332,10.233417,2.5659857
230,1436625484794,0.092176765,9.734225,2.516306
231,1436625484817,-0.2208651,9.372103,2.2469583
232,1436625484865,-0.45310268,9.116522,1.929128
233,1436625484866,-0.533907,8.919,1.7729063
234,1436625484882,-0.62608373,8.839992,1.6472107
235,1436625484908,-0.7781156,8.774151,1.6142905
236,1436625484913,-0.9044097,8.689755,1.6047137
237,1436625484934,-1.1432313,8.298902,1.6777369
238,1436625484955,-1.2234371,7.864354,1.882441
239,1436625484975,-1.1097125,7.6602483,2.0859482
240,1436625485001,-0.88645315,7.7967176,2.1523874
241,1436625485016,-0.7529764,8.120534,1.9093759
242,1436625485034,-0.90500826,8.690353,1.447295
243,1436625485054,-1.1593921,8.782531,1.1569979
244,1436625485077,-1.3916297,8.462306,1.1647792
245,1436625485097,-1.6430209,8.371924,1.103727
246,1436625485116,-2.0015526,9.127894,0.86969376
247,1436625485135,-2.4432828,11.704654,0.077811554
248,1436625485157,-2.3253684,15.0822735,-1.1695676
249,1436625485177,-0.7290344,15.054142,-0.31423897
250,1436625485197,1.8441339,13.102867,0.62847793
251,1436625485217,3.196858,11.072584,1.2743138
252,1436625485237,3.2980127,10.460267,0.78170687
253,1436625485257,2.5181017,12.370241,-1.4293385
254,1436625485277,1.7956513,13.952809,-3.3596635
255,1436625485297,1.9369092,13.812748,-3.1262288
256,1436625485346,2.484583,12.856863,-1.7351977
257,1436625485347,2.6384103,11.917738,-0.16340427
258,1436625485362,1.6603789,10.830172,0.9983821
259,1436625485388,-0.0017956513,10.47164,0.8295909
260,1436625485394,-0.6973112,10.107122,-0.5033809
261,1436625485414,-0.15083471,9.19553,-1.3395559
262,1436625485438,0.5823896,8.471284,-1.2030864
263,1436625485454,1.0420763,8.061875,-0.6039374
264,1436625485477,1.352724,7.498041,-0.13587095
265,1436625485502,1.6759412,6.785766,0.25917232
266,1436625485516,1.977012,6.464943,0.24540567
267,1436625485535,2.079364,6.6774287,-0.18076223
268,1436625485554,1.8926164,6.9120603,-0.7565677
269,1436625485574,1.6364368,6.9000893,-1.1563994
270,1436625485594,1.3670892,6.602011,-1.2389994
271,1436625485614,1.1049241,6.4709287,-1.0468647
272,1436625485640,0.96306765,6.633734,-0.99419224
273,1436625485660,0.62009823,7.471705,-1.0324994
274,1436625485675,0.20171149,8.450335,-1.0923545
275,1436625485697,-0.3274071,9.188946,-1.067814
276,1436625485714,-0.7314286,9.490017,-1.0546459
277,1436625485735,-1.2671312,9.069236,-0.8206126
278,1436625485757,-2.0290859,9.127894,-0.7158663
279,1436625485776,-3.153762,10.69849,-1.2324153
280,1436625485821,-4.57113,13.244125,-1.6328455
281,1436625485822,-5.6060233,14.927848,-0.44232875
282,1436625485845,-5.288193,16.387712,1.3293805
283,1436625485891,-3.750517,16.12854,2.5312698
284,1436625485892,-1.2916719,15.9100685,2.6886885
285,1436625485896,1.3976152,15.537172,3.1800983
286,1436625485916,3.4051533,13.860632,4.264672
287,1436625485944,4.184466,11.663952,3.4823663
288,1436625485956,4.146757,10.157999,1.8555063
289,1436625485977,2.5258827,9.539098,1.3425486
290,1436625485996,0.741604,9.326612,0.8924387
291,1436625486016,-0.45609543,9.051279,0.40222588
292,1436625486035,-1.055843,8.349778,0.18794483
293,1436625486056,-1.0085574,7.504027,0.4177882
294,1436625486076,-0.98222125,6.8522053,0.3645172
295,1436625486095,-1.3192052,6.341043,0.25677812
296,1436625486115,-2.0410569,5.9238534,0.016759412
297,1436625486140,-2.6210523,5.7179523,-0.28311434
298,1436625486159,-3.0119057,5.8520274,-0.18974048
299,1436625486180,-3.4219127,6.4966664,-0.39743748
300,1436625486198,-3.4572272,7.6590514,-0.7625532
301,1436625486217,-2.996942,9.043498,-1.0001777
302,1436625486238,-2.5863364,9.671378,-0.78410107
303,1436625486255,-2.1200657,9.665991,-0.008978256
304,1436625486276,-1.2384008,9.788095,0.8810662
305,1436625486295,-0.6937199,11.073183,0.85054016
306,1436625486352,-0.3417723,11.871649,0.39444473
307,1436625486353,-0.031124622,14.021643,0.26635495
308,1436625486358,1.228824,18.744804,-1.079785
309,1436625486383,1.9979613,17.081432,-1.3365631
310,1436625486396,2.8443117,14.926052,-0.587178
311,1436625486425,3.221997,15.370775,-1.1067197
312,1436625486435,1.8082209,14.598645,-0.50757074
313,1436625486457,1.0552444,13.575722,0.51714754
314,1436625486476,1.3904326,12.734758,0.623091
315,1436625486496,1.3563153,11.299435,0.635062
316,1436625486517,0.87687635,9.779117,0.33758244
317,1436625486535,0.14664486,8.389881,-0.19273324
318,1436625486556,-0.635062,7.3986816,-0.7302315
319,1436625486575,-1.2144588,6.6654577,-1.1121067
320,1436625486595,-1.2773066,6.0848637,-1.3682863
321,1436625486621,-0.80445176,5.7825956,-1.2258313
322,1436625486641,-0.14185645,5.478532,-0.7302315
323,1436625486661,0.4854244,5.386954,-0.4141969
324,1436625486678,0.8415619,5.8843493,-0.5057751
325,1436625486695,1.0833763,6.793547,-0.89603
326,1436625486715,1.3790601,7.937377,-1.2850877
327,1436625486735,1.6166847,8.975264,-1.2431892
328,1436625486756,1.7417817,9.783307,-0.47524905
329,1436625486775,1.4981717,10.518925,0.4165911
330,1436625486840,0.45070848,11.556213,0.80564886
331,1436625486841,-1.5209166,12.975975,0.61890113
332,1436625486842,-3.8827965,14.091074,1.127669
333,1436625486861,-5.129577,16.160263,1.917157
334,1436625486875,-5.1080294,17.367538,3.0041246
335,1436625486895,-3.9665937,15.295358,3.989937
336,1436625486946,-2.5240872,12.87482,3.300407
337,1436625486947,-1.5125369,11.207258,1.7824832
338,1436625486960,-0.7721301,9.770139,1.2934675
339,1436625486977,0.28790274,8.482059,1.1881226
340,1436625486998,1.0827777,7.394492,1.2030864
341,1436625487017,1.0630256,6.865972,0.8822633
342,1436625487035,0.78410107,6.6103907,0.6799533
343,1436625487056,0.027533319,5.9543796,0.41180268
344,1436625487077,-0.9223662,5.5802855,0.24660277
345,1436625487105,-2.154183,5.60722,0.10534488
346,1436625487134,-3.3716345,5.807735,0.15502456
347,1436625487137,-4.1862617,6.3260794,0.08200141
348,1436625487156,-4.7459064,7.0132155,-0.30466217
349,1436625487176,-4.812944,7.451953,-0.4141969
350,1436625487196,-4.128801,8.204929,-0.516549
351,1436625487216,-3.3452983,10.395025,-1.6035166
352,1436625487236,-2.315193,14.027628,-3.1010897
353,1436625487256,-0.4973954,16.109386,-2.4235306
354,1436625487275,1.8082209,16.697163,-0.97743285
355,1436625487295,3.1956608,17.711706,-1.3874398
356,1436625487315,3.0400376,15.144523,-0.31304187
357,1436625487335,2.2894554,14.002489,0.19632454
358,1436625487355,1.1019313,13.788806,0.15741876
359,1436625487375,0.7182605,13.163321,0.48961425
360,1436625487395,0.4177882,12.398374,0.53689975
361,1436625487415,-0.52133745,11.339538,0.17058687
362,1436625487435,-1.3461399,9.691729,-0.6015432
363,1436625487459,-1.7824832,8.012196,-0.9600749
364,1436625487480,-2.0290859,6.8204823,-0.97982705
365,1436625487495,-2.44029,6.1524997,-0.94690675
366,1436625487516,-2.4624364,5.855619,-0.9959879
367,1436625487536,-1.7381904,5.8478374,-1.1414356
368,1436625487556,-0.6476316,6.183026,-1.4257472
369,1436625487581,0.32621,6.239888,-1.365892
370,1436625487601,0.9487024,6.4206505,-1.1150994
371,1436625487620,1.3281834,7.3687544,-1.0690111
372,1436625487639,1.2922704,9.057863,-1.2318168
373,1436625487656,0.42916065,11.456854,-1.3940239
374,1436625487682,-0.9888053,13.669096,-0.85891986
375,1436625487695,-2.5498247,14.055759,1.6795325
376,1436625487715,-4.020463,14.965556,3.3381157
377,1436625487735,-5.535993,15.710752,3.484162
378,1436625487757,-5.9202623,16.429611,3.0855274
379,1436625487776,-2.7856536,15.146917,4.086902
380,1436625487796,0.004189853,13.154343,4.1162314
381,1436625487817,1.2503718,11.848306,2.6048915
382,1436625487838,2.1266496,11.108498,1.5101427
383,1436625487859,2.111686,10.811616,1.3754689
384,1436625487880,1.1899183,10.694899,1.8483237
385,1436625487896,0.16819267,9.89763,2.1769278
386,1436625487920,-0.5859809,8.277354,2.1254525
387,1436625487940,-1.2024878,6.905476,1.6496049
388,1436625487959,-2.0961237,6.057929,0.94092125
389,1436625487989,-3.210026,5.643732,0.20590134
390,1436625487996,-4.008492,5.46297,-0.16819267
391,1436625488016,-3.9761705,5.2660465,0.11192893
392,1436625488040,-3.4009635,5.2121773,0.581791
393,1436625488060,-2.8574798,5.4911017,0.700304
394,1436625488078,-2.7862523,6.3242836,0.28909984
395,1436625488102,-2.7485435,7.409456,-0.22445641
396,1436625488134,-2.3959973,8.397064,-0.41718966
397,1436625488138,-1.7393875,9.304466,-0.26755205
398,1436625488156,-1.0223241,10.851719,-0.3417723
399,1436625488178,-0.47285482,12.568362,-0.12090719
400,1436625488198,0.16460137,14.22934,0.36391866
401,1436625488218,1.122282,16.604986,0.22445641
402,1436625488238,1.726818,17.744625,-0.40162733
403,1436625488257,2.0260932,15.9022875,-0.037110128
404,1436625488278,2.0189106,15.14572,0.08499416
405,1436625488300,1.0528502,14.42746,-0.15981296
406,1436625488320,0.2088941,14.03481,-0.39324763
