id,attr_time,attr_x,attr_y,attr_z
1,1436624160041,-9.43372,-2.65813,1.04439
2,1436624160042,-9.39281,-2.63039,1.09953
3,1436624160050,-9.38037,-2.63075,1.01968
4,1436624160076,-9.384,-2.65773,1.02686
5,1436624160089,-9.39323,-2.6174,0.999802
6,1436624160109,-9.40309,-2.68185,0.946655
7,1436624160129,-9.40881,-2.69597,0.95697
8,1436624160159,-9.42482,-2.67215,0.906815
9,1436624160168,-9.43976,-2.65636,0.900726
10,1436624160190,-9.44173,-2.67284,0.873276
11,1436624160210,-9.43379,-2.69864,0.881775
12,1436624160229,-9.39067,-2.65065,0.901657
13,1436624160249,-9.37773,-2.63516,0.926514
14,1436624160269,-9.37376,-2.62573,0.937668
15,1436624160287,-9.34572,-2.60248,0.923981
16,1436624160309,-9.41363,-2.62546,0.926697
17,1436624160327,-9.47409,-2.61295,0.94281
18,1436624160349,-9.51277,-2.60829,0.930542
19,1436624160369,-9.57901,-2.63202,0.976593
20,1436624160389,-9.5947,-2.62897,1.00952
21,1436624160405,-9.55499,-2.62349,0.990158
22,1436624160429,-9.56955,-2.62999,1.01781
23,1436624160447,-9.53513,-2.62425,1.07787
24,1436624160468,-9.49832,-2.64537,1.07643
25,1436624160487,-9.49196,-2.62741,1.0827
26,1436624160507,-9.51007,-2.64632,1.07376
27,1436624160525,-9.47754,-2.67349,1.03297
28,1436624160546,-9.46686,-2.70866,1.03017
29,1436624160566,-9.48196,-2.73915,1.0025
30,1436624160606,-9.48825,-2.7195,0.952896
31,1436624160607,-9.44844,-2.76509,0.945312
32,1436624160645,-9.4348,-2.73428,0.90799
33,1436624160665,-9.37933,-2.72174,0.925034
34,1436624160683,-9.43675,-2.67665,0.960587
35,1436624160705,-9.46495,-2.72772,0.899582
36,1436624160723,-9.48013,-2.70129,0.973862
37,1436624160744,-9.47357,-2.65918,0.928009
38,1436624160764,-9.451,-2.63528,0.990753
39,1436624160784,-9.44971,-2.61633,0.973663
40,1436624160804,-9.44095,-2.59961,0.971924
41,1436624160823,-9.446,-2.61737,0.997742
42,1436624160843,-9.46295,-2.60201,1.03497
43,1436624160861,-9.48852,-2.6431,1.0367
44,1436624160882,-9.46219,-2.70181,0.998856
45,1436624160902,-9.46027,-2.73106,1.03143
46,1436624160922,-9.43002,-2.75835,1.05307
47,1436624160942,-9.41678,-2.74748,1.06622
48,1436624160962,-9.45537,-2.75095,0.966034
49,1436624160981,-9.40895,-2.72064,1.04166
50,1436624161000,-9.37674,-2.73819,1.04828
51,1436624161021,-9.40613,-2.74707,1.02969
52,1436624161040,-9.4418,-2.7567,0.974457
53,1436624161060,-9.51436,-2.80289,0.954102
54,1436624161080,-9.51889,-2.79251,0.976517
55,1436624161100,-9.53125,-2.75583,1.00612
56,1436624161119,-9.48218,-2.70267,1.00807
57,1436624161140,-9.50295,-2.71613,1.09357
58,1436624161158,-9.48131,-2.70145,1.06569
59,1436624161177,-9.44635,-2.715,1.101
60,1436624161199,-9.42435,-2.70876,1.0769
61,1436624161217,-9.42197,-2.69479,1.04666
62,1436624161238,-9.45891,-2.72847,1.05785
63,1436624161258,-9.4886,-2.75363,1.02643
64,1436624161277,-9.44635,-2.80791,0.991013
65,1436624161297,-9.42955,-2.78334,0.977219
66,1436624161317,-9.43314,-2.79181,1.0336
67,1436624161336,-9.44296,-2.79285,0.981277
68,1436624161356,-9.42558,-2.79071,1.00902
69,1436624161377,-9.41258,-2.78448,1.00249
70,1436624161395,-9.41312,-2.7532,1.03778
71,1436624161415,-9.4008,-2.75659,1.05011
72,1436624161436,-9.40564,-2.76389,1.02332
73,1436624161455,-9.44333,-2.76276,1.02861
74,1436624161475,-9.48633,-2.7706,1.07393
75,1436624161494,-9.47719,-2.76323,1.03365
76,1436624161514,-9.46913,-2.7684,1.08096
77,1436624161534,-9.48494,-2.74571,1.07834
78,1436624161554,-9.49484,-2.73038,1.08258
79,1436624161574,-9.48628,-2.71492,1.017
80,1436624161594,-9.4958,-2.73026,1.07243
81,1436624161613,-9.46367,-2.74983,1.04622
82,1436624161652,-9.43625,-2.7303,1.05727
83,1436624161672,-9.41806,-2.75073,1.05611
84,1436624161692,-9.39732,-2.72653,1.02438
85,1436624161711,-9.36093,-2.73135,1.05661
86,1436624161732,-9.3726,-2.77663,1.05774
87,1436624161751,-9.43076,-2.78197,1.05823
88,1436624161771,-9.47311,-2.81459,1.01418
89,1436624161791,-9.48804,-2.8166,1.0209
90,1436624161810,-9.45479,-2.83379,0.995499
91,1436624161831,-9.41383,-2.77577,1.03665
92,1436624161850,-9.41653,-2.77222,1.03516
93,1436624161870,-9.38501,-2.72963,1.04544
94,1436624161890,-9.38802,-2.73,1.05508
95,1436624161910,-9.39385,-2.73245,1.02751
96,1436624161929,-9.45256,-2.70981,1.04736
97,1436624161949,-9.46483,-2.72185,1.07005
98,1436624161969,-9.47751,-2.73184,1.09367
99,1436624161987,-9.42592,-2.74989,1.092
100,1436624162008,-9.45512,-2.79187,1.09142
101,1436624162027,-9.44047,-2.80299,1.02536
102,1436624162048,-9.41431,-2.79662,1.00253
103,1436624162068,-9.40157,-2.74043,1.02463
104,1436624162088,-9.42912,-2.78775,1.04785
105,1436624162107,-9.43808,-2.77687,1.0464
106,1436624162127,-9.42191,-2.79384,1.02008
107,1436624162147,-9.43512,-2.78204,1.02635
108,1436624162166,-9.43073,-2.78317,1.02568
109,1436624162186,-9.40161,-2.75716,1.02531
110,1436624162206,-9.41975,-2.74033,1.01901
111,1436624162226,-9.41759,-2.74718,0.999573
112,1436624162245,-9.43079,-2.74806,1.08128
113,1436624162266,-9.47571,-2.744,0.970474
114,1436624162285,-9.5247,-2.7305,0.94017
115,1436624162303,-9.54213,-2.7262,1.04184
116,1436624162325,-9.53487,-2.69418,1.06958
117,1436624162343,-9.44684,-2.68858,1.04845
118,1436624162364,-9.4061,-2.68053,1.05232
119,1436624162384,-9.39931,-2.66876,1.08563
120,1436624162403,-9.35472,-2.67024,1.063
121,1436624162423,-9.38951,-2.70049,1.06947
122,1436624162443,-9.41493,-2.66159,0.994598
123,1436624162463,-9.46414,-2.70885,0.970306
124,1436624162480,-9.48221,-2.77039,0.920395
125,1436624162502,-9.46353,-2.76642,0.904709
126,1436624162521,-9.44934,-2.75456,0.906677
127,1436624162541,-9.46645,-2.74974,0.89476
128,1436624162562,-9.4364,-2.72252,0.935547
129,1436624162581,-9.40274,-2.66843,0.962082
130,1436624162601,-9.38841,-2.62952,0.971832
131,1436624162619,-9.3886,-2.63597,1.01898
132,1436624162660,-9.43576,-2.65106,1.02164
133,1436624162680,-9.48512,-2.69948,1.0369
134,1436624162700,-9.50835,-2.71623,1.03827
135,1436624162719,-9.53375,-2.73871,1.02684
136,1436624162739,-9.47559,-2.77699,1.02789
137,1436624162759,-9.43115,-2.77597,1.05783
138,1436624162778,-9.45841,-2.75073,1.03882
139,1436624162797,-9.42053,-2.75459,1.05408
140,1436624162818,-9.4433,-2.80026,1.06793
141,1436624162837,-9.45543,-2.79137,1.08865
142,1436624162858,-9.40729,-2.75854,1.01041
143,1436624162877,-9.4321,-2.79201,0.913757
144,1436624162897,-9.41971,-2.77162,0.905243
145,1436624162917,-9.3915,-2.68106,0.885147
146,1436624162937,-9.42154,-2.64212,0.89032
147,1436624162956,-9.41798,-2.59952,0.865265
148,1436624162976,-9.46533,-2.62152,0.905167
149,1436624162996,-9.45027,-2.64861,0.994446
150,1436624163014,-9.45227,-2.70114,1.02745
151,1436624163036,-9.52065,-2.72411,1.16035
152,1436624163055,-9.51521,-2.82298,1.16542
153,1436624163075,-9.49117,-2.87279,1.1991
154,1436624163095,-9.45674,-2.96536,1.16725
155,1436624163112,-9.44295,-2.90689,1.10295
156,1436624163134,-9.39723,-2.90721,1.08823
157,1436624163153,-9.40922,-2.91498,1.04195
158,1436624163173,-9.42154,-2.88849,0.937973
159,1436624163194,-9.46428,-2.80049,0.892288
160,1436624163213,-9.48515,-2.82228,0.843918
161,1436624163233,-9.48248,-2.74431,0.834381
162,1436624163253,-9.42191,-2.71028,0.898941
163,1436624163272,-9.46523,-2.67818,1.00426
164,1436624163290,-9.46182,-2.67438,1.0251
165,1436624163312,-9.43948,-2.68912,1.06583
166,1436624163331,-9.44606,-2.68176,1.10405
167,1436624163351,-9.4689,-2.69017,1.04082
168,1436624163371,-9.45703,-2.74414,1.03555
169,1436624163391,-9.44135,-2.75755,0.985718
170,1436624163411,-9.43918,-2.76559,0.950516
171,1436624163429,-9.44293,-2.78896,0.964661
172,1436624163450,-9.42645,-2.81183,0.915512
173,1436624163471,-9.42685,-2.7843,0.965271
174,1436624163490,-9.42416,-2.74129,1.02254
175,1436624163510,-9.43925,-2.77769,1.03889
176,1436624163529,-9.45847,-2.79355,1.10094
177,1436624163549,-9.42015,-2.80476,1.1019
178,1436624163569,-9.42189,-2.83131,1.09526
179,1436624163589,-9.44524,-2.87762,1.0685
180,1436624163607,-9.4518,-2.83449,1.11263
181,1436624163628,-9.43826,-2.8222,1.09389
182,1436624163667,-9.41313,-2.79466,1.07475
183,1436624163687,-9.43282,-2.82718,1.10312
184,1436624163707,-9.48245,-2.85905,1.11447
185,1436624163727,-9.44574,-2.83711,1.08308
186,1436624163747,-9.43248,-2.81778,1.10068
187,1436624163766,-9.42535,-2.83382,1.06865
188,1436624163786,-9.40791,-2.76952,1.09317
189,1436624163806,-9.33272,-2.75362,1.0721
190,1436624163825,-9.38452,-2.72597,1.01297
191,1436624163845,-9.35152,-2.72539,1.02905
192,1436624163865,-9.40202,-2.71677,1.02328
193,1436624163885,-9.46553,-2.75009,1.03774
194,1436624163904,-9.52773,-2.7421,1.03638
195,1436624163924,-9.57434,-2.7652,1.00948
196,1436624163944,-9.573,-2.76488,1.01118
197,1436624163963,-9.51482,-2.6936,1.07336
198,1436624163984,-9.42415,-2.68956,1.0976
199,1436624164003,-9.3801,-2.67506,1.1241
200,1436624164023,-9.38252,-2.6666,1.14673
201,1436624164043,-9.37389,-2.68828,1.13409
202,1436624164062,-9.39887,-2.75586,1.09862
203,1436624164082,-9.44115,-2.77476,1.03465
204,1436624164102,-9.45841,-2.80199,1.0493
205,1436624164122,-9.45308,-2.8358,1.07173
206,1436624164140,-9.43199,-2.80724,1.076
207,1436624164161,-9.4509,-2.79018,1.02971
208,1436624164180,-9.4269,-2.75171,1.00362
209,1436624164200,-9.41631,-2.74698,1.03459
210,1436624164221,-9.4059,-2.73875,1.0746
211,1436624164239,-9.397,-2.70874,1.06531
212,1436624164260,-9.37451,-2.69363,1.052
213,1436624164279,-9.43013,-2.67273,1.05176
214,1436624164299,-9.44685,-2.66901,1.07857
215,1436624164319,-9.46606,-2.68657,1.04858
216,1436624164339,-9.46333,-2.6651,1.04813
217,1436624164359,-9.43407,-2.68045,1.05937
218,1436624164379,-9.40184,-2.6888,1.03629
219,1436624164398,-9.4539,-2.68893,1.04434
220,1436624164415,-9.46017,-2.74014,1.03796
221,1436624164437,-9.46028,-2.69983,1.0553
222,1436624164457,-9.45935,-2.67865,1.01062
223,1436624164477,-9.4671,-2.71692,0.968719
224,1436624164497,-9.51605,-2.72339,1.02368
225,1436624164517,-9.46698,-2.74147,1.05206
226,1436624164536,-9.42592,-2.72688,1.04503
227,1436624164556,-9.44383,-2.73344,1.08089
228,1436624164576,-9.44087,-2.70312,1.08521
229,1436624164595,-9.45963,-2.71361,1.0881
230,1436624164616,-9.43455,-2.69885,1.13342
231,1436624164636,-9.46068,-2.69316,1.03363
232,1436624164655,-9.4568,-2.73543,1.00073
233,1436624164674,-9.49809,-2.7769,0.963333
234,1436624164695,-9.44711,-2.72003,0.956055
235,1436624164732,-9.41098,-2.7471,1.00406
236,1436624164754,-9.45506,-2.74501,0.982376
237,1436624164773,-9.39166,-2.70203,1.05017
238,1436624164793,-9.39505,-2.6834,1.04863
239,1436624164813,-9.41426,-2.71053,1.02332
240,1436624164832,-9.43545,-2.67717,0.983398
241,1436624164853,-9.49248,-2.66565,1.01099
242,1436624164873,-9.4409,-2.61949,1.04985
243,1436624164892,-9.37976,-2.59769,1.0271
244,1436624164910,-9.36505,-2.61293,0.979843
245,1436624164932,-9.37347,-2.61984,0.921921
246,1436624164950,-9.40187,-2.66919,0.878967
247,1436624164971,-9.43721,-2.73529,0.912064
248,1436624164991,-9.46809,-2.77118,0.914673
249,1436624165014,-9.47043,-2.78316,1.02068
250,1436624165030,-9.50944,-2.83432,1.0688
251,1436624165049,-9.50322,-2.92079,1.11981
252,1436624165070,-9.50743,-2.93684,1.12761
253,1436624165089,-9.52011,-2.85315,1.15096
254,1436624165110,-9.5092,-2.7348,1.14839
255,1436624165129,-9.51901,-2.70131,1.03992
256,1436624165149,-9.48996,-2.65308,1.01099
257,1436624165169,-9.43928,-2.6375,1.01602
258,1436624165188,-9.45294,-2.64037,0.922348
259,1436624165208,-9.40857,-2.70903,0.856293
260,1436624165226,-9.47038,-2.71701,0.91832
261,1436624165247,-9.4322,-2.71092,0.985626
262,1436624165266,-9.4355,-2.74341,1.03084
263,1436624165287,-9.43477,-2.77989,1.06406
264,1436624165307,-9.43533,-2.7794,1.08934
265,1436624165326,-9.40494,-2.78563,1.05098
266,1436624165346,-9.39581,-2.76645,1.01552
267,1436624165366,-9.43131,-2.77974,0.990814
268,1436624165386,-9.5016,-2.82207,0.938278
269,1436624165406,-9.50745,-2.85278,0.949768
270,1436624165425,-9.47611,-2.81433,0.981308
271,1436624165443,-9.45702,-2.78156,0.966354
272,1436624165465,-9.50406,-2.72386,1.0242
273,1436624165484,-9.46028,-2.69069,1.02888
274,1436624165504,-9.47211,-2.67639,1.00665
275,1436624165524,-9.43597,-2.6922,1.0224
276,1436624165542,-9.44173,-2.68987,0.941849
277,1436624165564,-9.43094,-2.70451,0.93454
278,1436624165582,-9.39804,-2.72284,0.961731
279,1436624165603,-9.40662,-2.71959,0.925766
280,1436624165622,-9.44896,-2.75888,0.889435
281,1436624165643,-9.5105,-2.77992,0.887238
282,1436624165662,-9.48874,-2.74191,0.870529
283,1436624165681,-9.44156,-2.72987,0.943497
284,1436624165702,-9.43167,-2.66577,0.951599
285,1436624165741,-9.47018,-2.66504,0.962463
286,1436624165760,-9.50215,-2.70116,0.944702
287,1436624165781,-9.50148,-2.74004,1.04189
288,1436624165800,-9.45488,-2.7433,1.01646
289,1436624165820,-9.46239,-2.78372,1.04912
290,1436624165840,-9.42238,-2.7786,1.04594
291,1436624165858,-9.43928,-2.78754,1.03186
292,1436624165880,-9.45015,-2.80118,1.01218
293,1436624165899,-9.48175,-2.79935,0.96669
294,1436624165919,-9.48209,-2.77982,0.921555
295,1436624165939,-9.4285,-2.76903,0.911941
296,1436624165958,-9.44789,-2.74681,1.01572
297,1436624165978,-9.42363,-2.74324,1.02585
298,1436624165998,-9.43211,-2.72238,1.03264
299,1436624166017,-9.41096,-2.70999,0.989395
300,1436624166036,-9.39865,-2.72897,0.977371
301,1436624166057,-9.40263,-2.76514,1.00339
302,1436624166076,-9.44101,-2.7924,0.967377
303,1436624166097,-9.46205,-2.78037,0.962112
304,1436624166117,-9.50104,-2.84937,0.917618
305,1436624166136,-9.46788,-2.83949,0.939041
306,1436624166156,-9.41899,-2.76834,0.969543
307,1436624166176,-9.37512,-2.74272,0.965714
308,1436624166195,-9.44452,-2.70839,0.973114
309,1436624166215,-9.44218,-2.67964,0.975418
310,1436624166235,-9.45761,-2.73201,1.00566
311,1436624166255,-9.453,-2.7413,0.983521
312,1436624166275,-9.49045,-2.72156,1.00705
313,1436624166294,-9.50232,-2.70889,1.10933
314,1436624166314,-9.55171,-2.73433,1.0591
315,1436624166334,-9.52684,-2.76964,1.07013
316,1436624166353,-9.4876,-2.80293,1.06392
317,1436624166373,-9.40701,-2.83122,1.04097
318,1436624166392,-9.3858,-2.82935,1.02359
319,1436624166413,-9.38614,-2.80998,1.00624
320,1436624166432,-9.38399,-2.84299,1.01483
321,1436624166452,-9.40996,-2.83492,0.978897
322,1436624166472,-9.43573,-2.82991,0.954651
323,1436624166492,-9.41185,-2.79092,0.960434
324,1436624166511,-9.40758,-2.73567,0.965714
325,1436624166531,-9.41882,-2.71373,0.997696
326,1436624166551,-9.42094,-2.70753,0.973694
327,1436624166570,-9.44777,-2.71733,0.988556
328,1436624166591,-9.44308,-2.75401,1.02197
329,1436624166610,-9.46185,-2.79372,1.02779
330,1436624166630,-9.47713,-2.79086,1.02881
331,1436624166650,-9.47266,-2.81964,1.05627
332,1436624166668,-9.49269,-2.87061,1.09222
333,1436624166688,-9.4695,-2.87018,1.11328
334,1436624166709,-9.43639,-2.8831,1.11559
335,1436624166748,-9.45459,-2.89015,1.03966
336,1436624166769,-9.41365,-2.84396,1.05225
337,1436624166788,-9.33043,-2.76221,1.00243
338,1436624166808,-9.33505,-2.76074,1.00581
339,1436624166828,-9.36502,-2.74345,0.985687
340,1436624166846,-9.42839,-2.77191,0.931641
341,1436624166867,-9.52348,-2.76761,0.929916
342,1436624166886,-9.49847,-2.7805,0.897202
343,1436624166907,-9.45284,-2.75832,0.888184
344,1436624166926,-9.48651,-2.68539,0.870987
345,1436624166946,-9.48581,-2.61093,0.854279
346,1436624166966,-9.45824,-2.56212,0.832733
347,1436624166985,-9.44826,-2.526,0.85582
348,1436624167006,-9.48801,-2.49403,0.878296
349,1436624167024,-9.51486,-2.55046,0.891174
350,1436624167045,-9.47313,-2.58792,0.909256
351,1436624167065,-9.46957,-2.62418,0.960968
352,1436624167084,-9.47977,-2.67239,1.06166
353,1436624167104,-9.49483,-2.70544,1.01219
354,1436624167124,-9.44733,-2.69798,0.993744
355,1436624167143,-9.45529,-2.66959,0.976334
356,1436624167161,-9.50301,-2.64084,0.98761
357,1436624167183,-9.47498,-2.6221,0.90976
358,1436624167201,-9.50293,-2.61993,0.895706
359,1436624167223,-9.50447,-2.5977,0.839554
360,1436624167242,-9.479,-2.61314,0.787186
361,1436624167262,-9.44661,-2.6183,0.742264
362,1436624167281,-9.42383,-2.61374,0.678436
363,1436624167302,-9.40306,-2.5885,0.654892
364,1436624167321,-9.36758,-2.59978,0.666367
365,1436624167339,-9.37746,-2.64294,0.678818
366,1436624167360,-9.38229,-2.6416,0.771881
367,1436624167379,-9.39839,-2.66843,0.812439
368,1436624167400,-9.48358,-2.68047,0.930923
369,1436624167420,-9.50297,-2.63953,1.09665
370,1436624167439,-9.49431,-2.7132,1.13667
371,1436624167460,-9.50589,-2.75612,1.14322
372,1436624167478,-9.49182,-2.68939,1.15479
373,1436624167499,-9.47865,-2.6673,1.12131
374,1436624167518,-9.47363,-2.67239,1.06821
375,1436624167539,-9.49034,-2.70235,0.977753
376,1436624167558,-9.48076,-2.75673,0.881897
377,1436624167578,-9.45418,-2.7473,0.837753
378,1436624167598,-9.46054,-2.7193,0.899063
379,1436624167618,-9.41849,-2.70161,0.812805
380,1436624167637,-9.46559,-2.71967,0.844238
381,1436624167656,-9.44066,-2.74701,0.875793
382,1436624167676,-9.42438,-2.78427,0.912872
383,1436624167716,-9.40808,-2.78661,1.00504
384,1436624167717,-9.44119,-2.78566,0.990677
385,1436624167755,-9.41956,-2.74664,1.02484
386,1436624167776,-9.41632,-2.75854,1.04375
387,1436624167795,-9.43291,-2.81329,1.01123
388,1436624167815,-9.48084,-2.82042,1.00066
389,1436624167835,-9.48434,-2.86049,0.975479
390,1436624167854,-9.45879,-2.88432,0.962067
391,1436624167873,-9.44765,-2.87756,0.987823
392,1436624167894,-9.44899,-2.84645,0.993805
393,1436624167914,-9.47774,-2.83963,1.02846
394,1436624167934,-9.47748,-2.84517,1.0125
395,1436624167953,-9.44488,-2.84605,0.985764
396,1436624167971,-9.49077,-2.81137,0.975433
397,1436624167993,-9.46462,-2.80266,0.900497
398,1436624168012,-9.47525,-2.78191,0.848419
399,1436624168032,-9.45053,-2.79588,0.870743
400,1436624168052,-9.42076,-2.78366,0.873154
401,1436624168072,-9.41863,-2.78276,0.91394
402,1436624168091,-9.46193,-2.78291,0.881165
403,1436624168111,-9.46614,-2.81013,0.906189
404,1436624168131,-9.45796,-2.80408,0.926926
405,1436624168149,-9.39389,-2.77631,0.98114
406,1436624168171,-9.35501,-2.78992,0.934555
407,1436624168190,-9.34425,-2.77695,0.948975
408,1436624168209,-9.377,-2.78104,0.985947
409,1436624168230,-9.41924,-2.86543,0.919373
410,1436624168250,-9.43924,-2.88808,0.886093
411,1436624168269,-9.51732,-2.85588,0.950226
412,1436624168288,-9.50476,-2.86298,0.944275
413,1436624168309,-9.4897,-2.87794,0.916
414,1436624168328,-9.48676,-2.84201,0.939346
415,1436624168348,-9.44051,-2.79158,0.953873
416,1436624168368,-9.43277,-2.75038,0.935425
417,1436624168388,-9.42069,-2.69127,0.926453
418,1436624168407,-9.45743,-2.70985,0.911194
419,1436624168427,-9.46976,-2.72679,0.948349
420,1436624168447,-9.49065,-2.7146,0.954742
421,1436624168465,-9.48265,-2.71916,0.954956
422,1436624168487,-9.43475,-2.71049,0.94516
423,1436624168505,-9.39015,-2.74257,0.934662
424,1436624168526,-9.40839,-2.74272,0.944778
425,1436624168546,-9.43402,-2.78421,0.905777
426,1436624168566,-9.44112,-2.73273,0.881668
427,1436624168585,-9.43355,-2.75684,0.927399
428,1436624168605,-9.42845,-2.74425,0.959
429,1436624168625,-9.44963,-2.73041,0.999878
430,1436624168644,-9.44637,-2.73141,0.9814
431,1436624168665,-9.45831,-2.7392,1.04272
432,1436624168683,-9.46548,-2.74611,1.0192
433,1436624168703,-9.464,-2.75391,1.03758
434,1436624168724,-9.46315,-2.75826,0.983719
435,1436624168763,-9.42488,-2.7482,0.976395
436,1436624168781,-9.45436,-2.79227,0.886383
437,1436624168803,-9.43791,-2.80847,0.929932
438,1436624168821,-9.45963,-2.78961,0.940338
439,1436624168842,-9.43706,-2.74922,0.926208
440,1436624168862,-9.41272,-2.77765,0.910156
441,1436624168881,-9.41771,-2.75583,0.95874
442,1436624168902,-9.38959,-2.7397,0.951614
443,1436624168921,-9.39819,-2.77519,0.918289
444,1436624168941,-9.43303,-2.78487,0.927689
445,1436624168961,-9.39436,-2.75464,0.903076
446,1436624168980,-9.38277,-2.80075,0.907486
447,1436624168999,-9.39442,-2.78622,0.925186
448,1436624169020,-9.42195,-2.80032,0.900742
449,1436624169039,-9.46112,-2.82893,0.845062
450,1436624169059,-9.51575,-2.83646,0.851303
451,1436624169079,-9.49794,-2.79204,0.850006
452,1436624169098,-9.48338,-2.73375,0.865066
453,1436624169118,-9.4709,-2.72888,0.852615
454,1436624169138,-9.40897,-2.71576,0.895004
455,1436624169158,-9.41998,-2.71361,0.933105
