id,attr_time,attr_x,attr_y,attr_z
1,1435994343812,0.22325931,10.213664,0.57400984
2,1435994343834,0.2717419,10.207081,0.57879823
3,1435994343853,0.2825158,10.1861315,0.5506664
4,1435994343878,0.27832595,10.200497,0.56323594
5,1435994343897,0.30107087,10.204686,0.5614403
6,1435994343915,0.34596214,10.192117,0.5793968
7,1435994343938,0.2885013,10.176555,0.58897364
8,1435994343957,0.25378537,10.181343,0.52612585
9,1435994343973,0.26276365,10.1699705,0.52373165
10,1435994343993,0.23882163,10.172364,0.5506664
11,1435994344017,0.23762453,10.189124,0.5734113
12,1435994344033,0.23283611,10.183139,0.55126494
13,1435994344057,0.23523031,10.199898,0.55006784
14,1435994344081,0.26276365,10.21546,0.5470751
15,1435994344096,0.30406362,10.210671,0.55844754
16,1435994344116,0.320823,10.190321,0.57879823
17,1435994344135,0.31004912,10.17416,0.5823896
18,1435994344180,0.26874915,10.196306,0.5823896
19,1435994344181,0.2753332,10.199898,0.55006784
20,1435994344194,0.25977087,10.15381,0.54647654
21,1435994344213,0.2896984,10.175956,0.5835867
22,1435994344232,0.28491,10.175357,0.58538234
23,1435994344255,0.25797522,10.208278,0.5674258
24,1435994344271,0.25977087,10.205285,0.52612585
25,1435994344291,0.24959552,10.172364,0.5351041
26,1435994344313,0.31244332,10.184336,0.61411273
27,1435994344332,0.2753332,10.263344,0.58119243
28,1435994344354,0.25977087,10.164583,0.51475334
29,1435994344382,0.33399114,10.111911,0.59974754
30,1435994344393,0.362123,10.147225,0.5674258
31,1435994344414,0.35434186,10.155006,0.557849
32,1435994344436,0.29987377,10.19451,0.5327099
33,1435994344454,0.23523031,10.214862,0.5638345
34,1435994344472,0.21547815,10.188525,0.58657944
35,1435994344497,0.25617957,10.204087,0.60094464
36,1435994344515,0.2873042,10.220248,0.60812724
37,1435994344535,0.30286652,10.229825,0.5859809
38,1435994344556,0.29568392,10.198102,0.5883751
39,1435994344573,0.24720132,10.20289,0.59615624
40,1435994344593,0.23882163,10.189124,0.60094464
41,1435994344620,0.25977087,10.196905,0.5907693
42,1435994344635,0.24660277,10.192117,0.5746084
43,1435994344653,0.24600422,10.196905,0.5781997
44,1435994344678,0.2681506,10.192716,0.5674258
45,1435994344693,0.2633622,10.180145,0.5734113
46,1435994344713,0.23343466,10.19092,0.55964464
47,1435994344743,0.23343466,10.183737,0.56922144
48,1435994344765,0.23523031,10.196306,0.55964464
49,1435994344772,0.25258827,10.199898,0.5859809
50,1435994344798,0.25797522,10.198102,0.58897364
51,1435994344812,0.25797522,10.177752,0.5859809
52,1435994344831,0.27353755,10.157999,0.60812724
53,1435994344856,0.23762453,10.185533,0.5907693
54,1435994344872,0.20649989,10.214862,0.59136784
55,1435994344895,0.19812019,10.191518,0.557849
56,1435994344915,0.21547815,10.191518,0.581791
57,1435994344936,0.22625206,10.176555,0.5662287
58,1435994344955,0.24420857,10.198102,0.599149
59,1435994344978,0.25079262,10.214862,0.5859809
60,1435994344996,0.25318682,10.198701,0.5566519
61,1435994345015,0.23223756,10.157401,0.56922144
62,1435994345038,0.24061728,10.212467,0.6003461
63,1435994345056,0.19273324,10.25676,0.52373165
64,1435994345074,0.22026655,10.155006,0.5434838
65,1435994345098,0.29568392,10.17416,0.57041854
66,1435994345116,0.35913026,10.141838,0.58777654
67,1435994345134,0.3441665,10.170568,0.56922144
68,1435994345155,0.2669535,10.210671,0.56802434
69,1435994345172,0.1933318,10.207679,0.56323594
70,1435994345194,0.15083471,10.213664,0.5979519
71,1435994345215,0.15981296,10.198102,0.6171055
72,1435994345288,0.23582886,10.188525,0.59136784
73,1435994345289,0.26396075,10.187927,0.5859809
74,1435994345296,0.24061728,10.205285,0.5895722
75,1435994345297,0.22625206,10.181343,0.62129533
76,1435994345313,0.21188685,10.192716,0.56682724
77,1435994345334,0.1945289,10.168175,0.59974754
78,1435994345352,0.20231004,10.17416,0.60453594
79,1435994345373,0.2088941,10.165182,0.581791
80,1435994345412,0.24121583,10.168175,0.6063316
81,1435994345413,0.23223756,10.205285,0.5979519
82,1435994345432,0.207697,10.191518,0.5859809
83,1435994345455,0.18495208,10.187927,0.5895722
84,1435994345472,0.20530279,10.192716,0.5758055
85,1435994345495,0.21547815,10.195109,0.55844754
86,1435994345520,0.22864626,10.189722,0.5770026
87,1435994345533,0.23702596,10.1939125,0.59855044
88,1435994345552,0.24660277,10.205285,0.5734113
89,1435994345574,0.25198972,10.18254,0.57999533
90,1435994345592,0.26635495,10.180744,0.5398925
91,1435994345612,0.2645593,10.183139,0.5482722
92,1435994345636,0.2741361,10.172963,0.545878
93,1435994345656,0.28550854,10.203489,0.5626374
94,1435994345677,0.2789245,10.187927,0.5506664
95,1435994345698,0.2741361,10.149619,0.53330845
96,1435994345716,0.30466217,10.216658,0.63087213
97,1435994345737,0.26515785,10.247782,0.50517654
98,1435994345759,0.19931729,10.21965,0.48123455
99,1435994345774,0.30705637,10.125677,0.55844754
100,1435994345797,0.4381389,10.181343,0.55725044
101,1435994345818,0.40761283,10.162787,0.5351041
102,1435994345838,0.33997664,10.188525,0.5201403
103,1435994345859,0.2693477,10.191518,0.5243302
104,1435994345878,0.23642741,10.200497,0.5446809
105,1435994345897,0.23403321,10.1939125,0.55964464
106,1435994345915,0.28491,10.183139,0.54049104
107,1435994345939,0.3238158,10.158598,0.52971715
108,1435994345959,0.3333926,10.19092,0.56203884
109,1435994345979,0.3298013,10.1861315,0.5722142
110,1435994345999,0.35075054,10.168175,0.5554548
111,1435994346016,0.31783026,10.199898,0.5554548
112,1435994346036,0.27593175,10.228628,0.55126494
113,1435994346091,0.2777274,10.189722,0.54887074
114,1435994346092,0.2789245,10.163984,0.54887074
115,1435994346095,0.29987377,10.15381,0.54288524
116,1435994346116,0.25677812,10.184934,0.54408234
117,1435994346137,0.24660277,10.2178545,0.51834464
118,1435994346158,0.2657564,10.224439,0.5626374
119,1435994346179,0.30047232,10.206482,0.55964464
120,1435994346195,0.29688102,10.184934,0.56682724
121,1435994346215,0.29029694,10.187927,0.5422867
122,1435994346239,0.2693477,10.199898,0.5470751
123,1435994346258,0.27712885,10.214862,0.56922144
124,1435994346277,0.28191724,10.19092,0.55126494
125,1435994346301,0.27353755,10.19451,0.54408234
126,1435994346314,0.2789245,10.174759,0.53809685
127,1435994346334,0.30166942,10.201694,0.52612585
128,1435994346359,0.30466217,10.209475,0.5554548
129,1435994346377,0.28311434,10.210671,0.54168814
130,1435994346397,0.2777274,10.188525,0.5470751
131,1435994346420,0.3321955,10.195708,0.599149
132,1435994346436,0.27234045,10.266935,0.5291186
133,1435994346483,0.24779987,10.175956,0.51475334
134,1435994346484,0.3393781,10.134057,0.5267244
135,1435994346495,0.3633201,10.166978,0.5243302
136,1435994346515,0.37948096,10.157401,0.53091425
137,1435994346539,0.36631286,10.176555,0.5410896
138,1435994346560,0.31603462,10.181343,0.5303157
139,1435994346580,0.2633622,10.209475,0.5303157
140,1435994346601,0.27473465,10.219051,0.5291186
141,1435994346618,0.32800564,10.192716,0.55964464
142,1435994346635,0.3728969,10.181343,0.5243302
143,1435994346657,0.3369839,10.1861315,0.52612585
144,1435994346673,0.32800564,10.180744,0.5518635
145,1435994346697,0.35553896,10.1939125,0.52852005
146,1435994346723,0.34476504,10.187927,0.55964464
147,1435994346734,0.30645782,10.198701,0.5267244
148,1435994346756,0.31543607,10.185533,0.5267244
149,1435994346777,0.31184477,10.184934,0.50876784
150,1435994346799,0.30406362,10.180744,0.52253455
151,1435994346815,0.30705637,10.172963,0.53091425
152,1435994346837,0.29807812,10.186729,0.545878
153,1435994346855,0.27234045,10.216658,0.5315128
154,1435994346879,0.27114335,10.201095,0.53570265
155,1435994346901,0.27593175,10.199898,0.52133745
156,1435994346919,0.28491,10.180744,0.5434838
157,1435994346941,0.31603462,10.175357,0.56682724
158,1435994346958,0.30466217,10.210073,0.5734113
159,1435994346978,0.30885202,10.210073,0.5470751
160,1435994346998,0.30526072,10.192716,0.51475334
161,1435994347021,0.29867667,10.195109,0.5327099
162,1435994347035,0.29029694,10.199898,0.5686229
163,1435994347058,0.29448682,10.238205,0.5770026
164,1435994347079,0.23104046,10.224439,0.53091425
165,1435994347096,0.23702596,10.1460285,0.51235914
166,1435994347118,0.30825347,10.191518,0.57999533
167,1435994347162,0.2741361,10.25676,0.5021838
168,1435994347163,0.29747957,10.187927,0.4902128
169,1435994347175,0.37110126,10.174759,0.5434838
170,1435994347201,0.38367084,10.189722,0.5315128
171,1435994347215,0.3776853,10.181343,0.5201403
172,1435994347235,0.31124622,10.178948,0.4866215
173,1435994347258,0.25079262,10.19451,0.4854244
174,1435994347276,0.24061728,10.19451,0.5033809
175,1435994347295,0.2885013,10.220248,0.51954174
176,1435994347320,0.33159694,10.230424,0.545878
177,1435994347338,0.35314476,10.199299,0.50757074
178,1435994347360,0.33638534,10.201095,0.5117606
179,1435994347417,0.33159694,10.178948,0.52133745
180,1435994347418,0.31783026,10.192716,0.5386954
181,1435994347419,0.30885202,10.187328,0.51475334
182,1435994347437,0.28491,10.199898,0.5117606
183,1435994347459,0.30466217,10.187328,0.5009867
184,1435994347477,0.32022446,10.186729,0.52732295
185,1435994347499,0.32321724,10.211869,0.5291186
186,1435994347515,0.30585927,10.207679,0.49919105
187,1435994347539,0.30047232,10.205883,0.4985925
188,1435994347560,0.28311434,10.193314,0.5267244
189,1435994347578,0.30226797,10.179547,0.50278234
190,1435994347598,0.3226187,10.157401,0.4950012
191,1435994347618,0.33518824,10.175357,0.5141548
192,1435994347638,0.34715924,10.195109,0.51116204
193,1435994347658,0.33877954,10.207679,0.4961983
194,1435994347680,0.33399114,10.198102,0.47225627
195,1435994347698,0.33399114,10.184336,0.47465047
196,1435994347718,0.34356794,10.179547,0.4782418
197,1435994347746,0.3573346,10.201095,0.47884035
198,1435994347762,0.36870706,10.208278,0.5009867
199,1435994347778,0.3441665,10.183139,0.4441244
200,1435994347806,0.35793316,10.180744,0.51116204
201,1435994347815,0.36152446,10.229227,0.46148238
202,1435994347834,0.30107087,10.240001,0.41120413
203,1435994347856,0.35913026,10.177153,0.45190558
204,1435994347874,0.45609543,10.167576,0.45010993
205,1435994347896,0.46567222,10.158598,0.45429978
206,1435994347919,0.45789108,10.171167,0.44592008
207,1435994347938,0.39444473,10.217256,0.43035775
208,1435994347958,0.34237084,10.221446,0.45549688
209,1435994347984,0.31783026,10.208278,0.45070848
210,1435994347998,0.36631286,10.197504,0.45370123
211,1435994348024,0.41479546,10.185533,0.46387658
212,1435994348084,0.4357447,10.183139,0.43155485
213,1435994348085,0.4261679,10.199299,0.44232875
214,1435994348086,0.44113165,10.192117,0.43993455
215,1435994348098,0.41240123,10.231023,0.45010993
216,1435994348116,0.37349546,10.222044,0.46088383
217,1435994348138,0.39324763,10.192117,0.43754035
218,1435994348159,0.37948096,10.149619,0.46088383
219,1435994348179,0.374094,10.149619,0.44891283
220,1435994348199,0.3453636,10.165182,0.439336
221,1435994348219,0.3441665,10.192117,0.44711718
222,1435994348237,0.34476504,10.172963,0.44472298
223,1435994348259,0.3776853,10.171167,0.44891283
224,1435994348281,0.3824737,10.143634,0.47884035
225,1435994348302,0.35913026,10.172364,0.5201403
226,1435994348321,0.3238158,10.224439,0.50158525
227,1435994348341,0.29269117,10.286688,0.4285621
228,1435994348359,0.30945057,10.264542,0.3854665
229,1435994348379,0.39564183,10.198701,0.3800795
230,1435994348401,0.45848963,10.160394,0.39683893
231,1435994348419,0.47524905,10.123882,0.42676646
232,1435994348438,0.46447513,10.13705,0.4345476
233,1435994348461,0.39863458,10.126875,0.38606504
234,1435994348479,0.39264908,10.157401,0.48362875
235,1435994348498,0.39983168,10.229825,0.45370123
236,1435994348521,0.3824737,10.234015,0.415394
237,1435994348539,0.44352585,10.187927,0.4189853
238,1435994348561,0.5363012,10.180145,0.46267948
239,1435994348583,0.5770026,10.190321,0.47524905
240,1435994348602,0.51475334,10.213664,0.44472298
241,1435994348619,0.41060558,10.205883,0.42916065
242,1435994348642,0.32022446,10.187328,0.41958386
243,1435994348657,0.2645593,10.210671,0.45310268
244,1435994348679,0.29149407,10.207081,0.48243165
245,1435994348709,0.362123,10.189722,0.45669398
246,1435994348719,0.36391866,10.190321,0.45789108
247,1435994348763,0.35075054,10.201694,0.5057751
248,1435994348764,0.35194764,10.15381,0.47285482
249,1435994348775,0.40162733,10.163984,0.47764325
250,1435994348795,0.3812766,10.198102,0.47046062
251,1435994348818,0.33758244,10.213664,0.47884035
252,1435994348837,0.32800564,10.207081,0.46088383
253,1435994348859,0.35194764,10.190321,0.45729253
254,1435994348880,0.34835634,10.191518,0.45729253
255,1435994348897,0.3537433,10.17835,0.45250413
256,1435994348919,0.3585317,10.180145,0.45130703
257,1435994348943,0.35194764,10.212467,0.4381389
258,1435994348960,0.35913026,10.21127,0.45070848
259,1435994348977,0.36391866,10.211869,0.46148238
260,1435994349002,0.3549404,10.213664,0.46028528
261,1435994349020,0.3633201,10.200497,0.4985925
262,1435994349040,0.3764882,10.199299,0.46567222
263,1435994349062,0.36631286,10.184934,0.44113165
264,1435994349080,0.3657143,10.146626,0.46507367
265,1435994349100,0.37828386,10.171167,0.46686932
266,1435994349120,0.40701428,10.208278,0.49559975
267,1435994349137,0.37349546,10.23222,0.46327803
268,1435994349160,0.3561375,10.1861315,0.41718966
269,1435994349181,0.374094,10.171167,0.52253455
270,1435994349198,0.34955344,10.245986,0.4854244
271,1435994349217,0.34476504,10.179547,0.44951138
272,1435994349244,0.3788824,10.140641,0.46327803
273,1435994349260,0.40581718,10.148422,0.4985925
274,1435994349280,0.40581718,10.160394,0.45908818
275,1435994349302,0.40043023,10.184934,0.46028528
276,1435994349319,0.32142156,10.20289,0.47105917
277,1435994349338,0.29149407,10.207081,0.48961425
278,1435994349360,0.29508537,10.217256,0.51235914
279,1435994349379,0.33518824,10.181941,0.5255273
280,1435994349401,0.32800564,10.172364,0.521936
281,1435994349439,0.28909984,10.200497,0.5129577
282,1435994349440,0.2753332,10.214862,0.52073884
283,1435994349456,0.29807812,10.209475,0.5410896
284,1435994349479,0.30226797,10.216059,0.53689975
285,1435994349497,0.2873042,10.209475,0.5231331
286,1435994349517,0.26994625,10.189722,0.4902128
287,1435994349540,0.2825158,10.196306,0.48841715
288,1435994349557,0.31663316,10.191518,0.50876784
289,1435994349578,0.30286652,10.179547,0.52971715
290,1435994349602,0.30945057,10.203489,0.5177461
291,1435994349618,0.2645593,10.189124,0.50038815
292,1435994349640,0.26036942,10.220847,0.48602295
293,1435994349662,0.27234045,10.213664,0.50278234
294,1435994349680,0.30107087,10.196905,0.51116204
295,1435994349700,0.3184288,10.198102,0.52133745
296,1435994349723,0.32621,10.233417,0.5303157
297,1435994349740,0.31483752,10.220847,0.492607
298,1435994349760,0.29807812,10.209475,0.5033809
299,1435994349783,0.31483752,10.2178545,0.521936
300,1435994349800,0.30526072,10.22384,0.5291186
301,1435994349820,0.260968,10.243592,0.52612585
302,1435994349845,0.22505496,10.23222,0.46866497
303,1435994349858,0.25558102,10.152014,0.51475334
304,1435994349881,0.2741361,10.226832,0.5626374
305,1435994349900,0.24480712,10.243592,0.49440265
306,1435994349918,0.30047232,10.157999,0.4866215
307,1435994349938,0.35913026,10.155605,0.5267244
308,1435994349962,0.3453636,10.158598,0.51954174
309,1435994349983,0.31603462,10.189124,0.5177461
310,1435994350004,0.2633622,10.225636,0.50517654
311,1435994350024,0.20111294,10.186729,0.49799395
312,1435994350040,0.19752164,10.190321,0.52073884
313,1435994350065,0.2621651,10.176555,0.53689975
314,1435994350159,0.29568392,10.160394,0.51834464
315,1435994350160,0.32202014,10.187328,0.521936
316,1435994350161,0.28550854,10.204686,0.52492875
317,1435994350162,0.30825347,10.178948,0.54408234
318,1435994350163,0.29688102,10.190321,0.54408234
319,1435994350177,0.27712885,10.19092,0.55126494
320,1435994350200,0.25139117,10.199299,0.5710171
321,1435994350219,0.24420857,10.196306,0.54168814
322,1435994350239,0.24600422,10.196905,0.53450555
323,1435994350261,0.23343466,10.186729,0.55246204
324,1435994350281,0.20350714,10.1861315,0.54168814
325,1435994350301,0.1933318,10.195109,0.54168814
326,1435994350323,0.20171149,10.191518,0.5506664
327,1435994350340,0.20709845,10.180744,0.5327099
328,1435994350361,0.20231004,10.190321,0.5566519
329,1435994350383,0.21667525,10.181343,0.58298814
330,1435994350401,0.20111294,10.179547,0.55246204
331,1435994350421,0.20350714,10.166379,0.55485624
332,1435994350443,0.2184709,10.181941,0.53330845
333,1435994350461,0.24121583,10.183737,0.5650316
334,1435994350480,0.24361002,10.208876,0.57161564
335,1435994350503,0.24061728,10.219051,0.56802434
336,1435994350521,0.18674773,10.196306,0.51235914
337,1435994350540,0.1945289,10.183139,0.60812724
338,1435994350563,0.18974048,10.254965,0.54767364
339,1435994350580,0.13706805,10.222044,0.47884035
340,1435994350603,0.17058687,10.133459,0.5021838
341,1435994350624,0.26156655,10.155006,0.516549
342,1435994350644,0.31364042,10.172364,0.533907
343,1435994350661,0.2801216,10.168175,0.4961983
344,1435994350683,0.24001873,10.192117,0.4866215
345,1435994350699,0.20590134,10.202292,0.52492875
346,1435994350718,0.1933318,10.166978,0.545878
347,1435994350751,0.21667525,10.168773,0.5386954
348,1435994350761,0.26396075,10.166978,0.5093664
349,1435994350803,0.26515785,10.1939125,0.50876784
350,1435994350804,0.25558102,10.184336,0.5470751
351,1435994350819,0.2621651,10.155605,0.5530606
352,1435994350838,0.23343466,10.166978,0.52852005
353,1435994350862,0.19931729,10.176555,0.5363012
354,1435994350881,0.17178397,10.155006,0.50278234
355,1435994350899,0.18674773,10.1460285,0.516549
356,1435994350921,0.22385786,10.152014,0.5363012
357,1435994350942,0.24181437,10.178948,0.55365914
358,1435994350962,0.21547815,10.20289,0.53091425
359,1435994350985,0.17597382,10.195708,0.52373165
360,1435994351002,0.18136078,10.197504,0.533907
361,1435994351019,0.18016368,10.195708,0.54767364
362,1435994351044,0.18195933,10.195708,0.5518635
363,1435994351062,0.18854338,10.1861315,0.5686229
364,1435994351082,0.1945289,10.188525,0.5386954
365,1435994351104,0.18854338,10.1939125,0.5189432
366,1435994351122,0.20051439,10.183139,0.5231331
367,1435994351143,0.2112883,10.216658,0.5470751
368,1435994351161,0.20949265,10.216059,0.52612585
369,1435994351179,0.16938977,10.1939125,0.5315128
370,1435994351200,0.16160862,10.208278,0.5351041
371,1435994351221,0.19093758,10.205883,0.5626374
372,1435994351239,0.14604631,10.2735195,0.54767364
373,1435994351265,0.12210429,10.205883,0.5117606
374,1435994351287,0.2100912,10.134656,0.5386954
375,1435994351299,0.2789245,10.1460285,0.5674258
376,1435994351321,0.25677812,10.169372,0.5374983
377,1435994351342,0.23463176,10.177752,0.521936
378,1435994351395,0.19692309,10.214263,0.5105635
379,1435994351396,0.18375498,10.226234,0.53570265
380,1435994351408,0.20051439,10.227431,0.5363012
381,1435994351439,0.22744916,10.199299,0.5626374
382,1435994351440,0.25019407,10.183737,0.5105635
383,1435994351460,0.272939,10.208278,0.5398925
384,1435994351478,0.27114335,10.199898,0.57041854
385,1435994351498,0.26755205,10.195708,0.56084174
386,1435994351520,0.26396075,10.199898,0.52971715
387,1435994351538,0.18794483,10.192716,0.5033809
388,1435994351558,0.1921347,10.193314,0.5267244
389,1435994351580,0.22505496,10.196306,0.5315128
390,1435994351598,0.26755205,10.177752,0.51595044
391,1435994351618,0.24420857,10.181941,0.53091425
392,1435994351640,0.24121583,10.198102,0.5105635
393,1435994351658,0.22744916,10.199299,0.4842273
394,1435994351678,0.23822308,10.222044,0.51116204
395,1435994351700,0.23762453,10.196905,0.54647654
396,1435994351718,0.24181437,10.204087,0.5386954
397,1435994351742,0.24779987,10.202292,0.50996494
398,1435994351760,0.23223756,10.184336,0.50637364
399,1435994351780,0.25318682,10.159795,0.52612585
400,1435994351799,0.25977087,10.179547,0.50876784
401,1435994351822,0.25857377,10.204087,0.53809685
402,1435994351844,0.24540567,10.234613,0.53091425
403,1435994351862,0.22565351,10.210073,0.46567222
404,1435994351883,0.22385786,10.152613,0.5021838
405,1435994351903,0.26755205,10.189124,0.55246204
406,1435994351922,0.2160767,10.2178545,0.45789108
407,1435994351942,0.25558102,10.14543,0.47165772
