id,attr_time,attr_x,attr_y,attr_z
1,1435994343819,-0.9475053,9.952697,-1.192911
2,1435994343836,-0.9600749,9.958083,-1.1563994
3,1435994343856,-0.9792285,9.985018,-1.1911154
4,1435994343879,-0.9355343,9.980229,-1.1971009
5,1435994343896,-0.9672575,9.975441,-1.2054806
6,1435994343916,-0.9684546,9.944916,-1.1905168
7,1435994343944,-0.96905315,9.962872,-1.1408371
8,1435994343956,-0.94930094,9.977237,-1.1839328
9,1435994343976,-0.95588505,9.993398,-1.2354081
10,1435994343996,-0.9744401,9.974843,-1.2378023
11,1435994344056,-0.96067345,9.974244,-1.2042835
12,1435994344057,-0.9588778,9.9790325,-1.2138603
13,1435994344058,-0.96546185,9.974843,-1.1821371
14,1435994344074,-0.97982705,9.955689,-1.2318168
15,1435994344096,-0.9756372,9.973646,-1.2294226
16,1435994344117,-0.973243,9.977836,-1.2312182
17,1435994344134,-0.9540894,9.951499,-1.2395979
18,1435994344156,-0.9660604,9.965266,-1.1941081
19,1435994344176,-0.99179804,9.96347,-1.2030864
20,1435994344197,-0.9708488,9.991602,-1.2108675
21,1435994344217,-0.93613285,9.961675,-1.2240356
22,1435994344240,-0.98222125,9.958682,-1.2413936
23,1435994344258,-0.9672575,9.964069,-1.1971009
24,1435994344277,-0.9780314,9.962274,-1.1653777
25,1435994344300,-0.94930094,9.9712515,-1.1779473
26,1435994344317,-0.9816227,9.978435,-1.1875241
27,1435994344338,-0.95947635,9.977836,-1.2521675
28,1435994344360,-0.9720459,9.951499,-1.2138603
29,1435994344377,-0.97264445,9.942521,-1.1988965
30,1435994344395,-0.97982705,9.976639,-1.2138603
31,1435994344420,-0.94451255,9.958682,-1.2216414
32,1435994344438,-0.9475053,9.983223,-1.2629414
33,1435994344457,-0.9840169,9.987412,-1.276708
34,1435994344480,-0.93972415,9.9712515,-1.2467805
35,1435994344497,-0.9660604,9.959879,-1.2216414
36,1435994344517,-0.9696517,9.970653,-1.22224
37,1435994344543,-0.93972415,9.965266,-1.2228385
38,1435994344558,-0.9720459,9.964667,-1.2030864
39,1435994344579,-0.9235633,9.977237,-1.1899183
40,1435994344599,-0.9540894,9.977836,-1.1947067
41,1435994344617,-0.96067345,9.980229,-1.2425907
42,1435994344636,-0.9427169,9.957485,-1.1923125
43,1435994344664,-0.9624691,9.93893,-1.1941081
44,1435994344712,-0.92296475,9.985018,-1.1893197
45,1435994344713,-0.93134445,9.965864,-1.1767502
46,1435994344716,-0.95827925,9.980229,-1.1988965
47,1435994344735,-0.9259575,9.96766,-1.2491747
48,1435994344755,-0.9516952,9.968858,-1.2372037
49,1435994344777,-0.9576807,9.980229,-1.2252327
50,1435994344800,-0.9343372,9.965864,-1.1947067
51,1435994344814,-0.9355343,9.966463,-1.1779473
52,1435994344839,-0.93014735,9.970653,-1.2228385
53,1435994344859,-0.9223662,9.986814,-1.1881226
54,1435994344879,-0.94331545,9.980229,-1.2018893
55,1435994344900,-0.95109665,9.958083,-1.2006922
56,1435994344917,-0.9367314,9.98442,-1.2336124
57,1435994344937,-0.9427169,9.961675,-1.2210429
58,1435994344957,-0.93493575,9.96766,-1.1851299
59,1435994344974,-0.9187749,9.968858,-1.192911
60,1435994344995,-0.9576807,9.980828,-1.2348095
61,1435994345017,-0.9624691,9.96347,-1.2737153
62,1435994345041,-0.9403227,9.965864,-1.2485762
63,1435994345055,-0.9307459,9.980828,-1.2162545
64,1435994345077,-0.9235633,9.97185,-1.2318168
65,1435994345096,-0.9540894,9.952697,-1.2354081
66,1435994345120,-0.96187055,9.955689,-1.246182
67,1435994345140,-0.94690675,9.969456,-1.2096704
68,1435994345155,-0.9163807,9.968858,-1.2072762
69,1435994345176,-0.9331401,9.989208,-1.2395979
70,1435994345197,-0.94930094,9.961675,-1.2192472
71,1435994345218,-0.94331545,9.957485,-1.2443863
72,1435994345243,-0.92057055,9.968858,-1.2234371
73,1435994345263,-0.9391256,9.96347,-1.216853
74,1435994345276,-0.91458505,9.97604,-1.2174516
75,1435994345304,-0.9103952,10.010756,-1.2300211
76,1435994345347,-0.91458505,9.958083,-1.2090719
77,1435994345348,-0.9516952,9.958083,-1.2036849
78,1435994345355,-0.90261406,9.980229,-1.1857284
79,1435994345379,-0.95229375,9.964069,-1.2162545
80,1435994345396,-0.9187749,9.968259,-1.1731589
81,1435994345416,-0.919972,9.991004,-1.1671734
82,1435994345441,-0.91817635,9.96347,-1.2006922
83,1435994345460,-0.9211691,9.985018,-1.2054806
84,1435994345475,-0.91697925,9.981427,-1.1953052
85,1435994345502,-0.9056068,9.9790325,-1.1713632
86,1435994345517,-0.9528923,9.968259,-1.1833342
87,1435994345537,-0.93493575,9.9790325,-1.1953052
88,1435994345560,-0.90620536,9.997588,-1.228824
89,1435994345577,-0.9187749,9.982025,-1.2437878
90,1435994345599,-0.9367314,9.961076,-1.1755531
91,1435994345621,-0.9451111,9.959281,-1.1713632
92,1435994345639,-0.9223662,9.97185,-1.1779473
93,1435994345658,-0.92057055,9.980828,-1.2659341
94,1435994345681,-0.9475053,9.983223,-1.2725182
95,1435994345697,-0.89782566,9.968259,-1.216853
96,1435994345719,-0.94211835,9.974244,-1.1659763
97,1435994345741,-0.9355343,9.966463,-1.1839328
98,1435994345758,-0.96665895,9.965266,-1.2030864
99,1435994345779,-0.9552865,9.983821,-1.2539631
100,1435994345801,-0.9415198,9.9550905,-1.2473791
101,1435994345819,-0.9139865,9.967062,-1.240795
102,1435994345839,-0.9415198,10.003573,-1.2599486
103,1435994345861,-0.9475053,9.98442,-1.2659341
104,1435994345880,-0.94690675,9.960478,-1.246182
105,1435994345898,-0.9403227,9.937134,-1.1941081
106,1435994345919,-0.961272,9.973646,-1.1959038
107,1435994345938,-0.92416185,9.973646,-1.210269
108,1435994345967,-0.94331545,9.975441,-1.2557588
109,1435994345978,-0.9564836,9.975441,-1.2910733
110,1435994346020,-0.9528923,9.945514,-1.204882
111,1435994346021,-0.9235633,9.959281,-1.1414356
112,1435994346036,-0.9427169,9.980229,-1.1815386
113,1435994346055,-0.94930094,9.9550905,-1.2264298
114,1435994346077,-0.9498995,9.986216,-1.2623428
115,1435994346103,-0.95229375,9.955689,-1.2485762
116,1435994346119,-0.94690675,9.93474,-1.1923125
117,1435994346138,-0.93972415,9.968858,-1.2090719
118,1435994346158,-0.943914,9.980229,-1.2156559
119,1435994346181,-0.94451255,9.968259,-1.2336124
120,1435994346201,-0.95947635,9.969456,-1.2455834
121,1435994346222,-0.9828198,9.96347,-1.2156559
122,1435994346236,-0.94810385,9.97185,-1.2336124
123,1435994346259,-0.9504981,9.964667,-1.2372037
124,1435994346282,-0.96546185,9.947908,-1.2611457
125,1435994346299,-0.9756372,9.995792,-1.2569559
126,1435994346320,-0.95349085,9.9790325,-1.2671312
127,1435994346342,-0.9391256,9.954493,-1.2216414
128,1435994346359,-0.9768343,9.974843,-1.1875241
129,1435994346378,-0.9552865,9.972448,-1.1947067
130,1435994346402,-0.95109665,9.978435,-1.2389994
131,1435994346419,-0.9588778,9.951499,-1.2378023
132,1435994346439,-0.97503865,9.935339,-1.1965023
133,1435994346462,-0.97144735,9.972448,-1.2084733
134,1435994346478,-0.96067345,9.964069,-1.2192472
135,1435994346499,-0.9720459,9.972448,-1.2916719
136,1435994346521,-0.9684546,9.965266,-1.2695254
137,1435994346540,-0.94930094,9.964069,-1.2042835
138,1435994346559,-0.9720459,9.958682,-1.2144588
139,1435994346580,-0.97025025,9.961076,-1.2078748
140,1435994346611,-1.003769,9.965266,-1.2479776
141,1435994346617,-0.94930094,9.9790325,-1.2844892
142,1435994346643,-0.9684546,9.968858,-1.2755109
143,1435994346685,-0.98341835,9.965864,-1.2485762
144,1435994346686,-0.943914,9.945514,-1.246182
145,1435994346704,-0.96306765,9.954493,-1.2258313
146,1435994346723,-0.9498995,9.960478,-1.2306197
147,1435994346737,-0.9696517,9.952697,-1.2270284
148,1435994346758,-0.97623575,9.977237,-1.2551602
149,1435994346776,-0.95588505,9.964069,-1.2354081
150,1435994346800,-0.95229375,9.968858,-1.2258313
151,1435994346819,-0.97025025,9.961675,-1.2366052
152,1435994346841,-0.9792285,9.965266,-1.2443863
153,1435994346862,-0.97623575,9.981427,-1.2593501
154,1435994346883,-0.9876082,9.982025,-1.2880806
155,1435994346899,-0.9540894,9.949704,-1.2282255
156,1435994346919,-0.9684546,9.947908,-1.2360066
157,1435994346940,-0.9636662,9.957485,-1.2336124
158,1435994346959,-0.9995792,9.973646,-1.2563573
159,1435994346980,-0.95468795,9.966463,-1.2844892
160,1435994347003,-0.9636662,9.974244,-1.2826935
161,1435994347019,-0.97623575,9.944916,-1.2509704
162,1435994347038,-0.95468795,9.962872,-1.2348095
163,1435994347063,-0.9427169,9.97604,-1.2084733
164,1435994347079,-0.98102415,9.96347,-1.2533646
165,1435994347100,-0.9983821,9.948506,-1.2719196
166,1435994347122,-0.95827925,9.959281,-1.2479776
167,1435994347139,-0.9696517,9.978435,-1.192911
168,1435994347159,-0.97623575,9.955689,-1.2360066
169,1435994347182,-0.98222125,9.978435,-1.2791022
170,1435994347199,-0.9804256,9.943718,-1.2569559
171,1435994347220,-0.973243,9.97185,-1.2521675
172,1435994347244,-0.97384155,9.949105,-1.2413936
173,1435994347259,-0.97743285,9.969456,-1.2491747
174,1435994347278,-0.9600749,9.950302,-1.2473791
175,1435994347309,-0.99060094,9.933543,-1.1911154
176,1435994347352,-0.96905315,9.994595,-1.2575544
177,1435994347353,-0.94810385,9.958682,-1.2306197
178,1435994347358,-0.94570965,9.964667,-1.2587515
179,1435994347376,-0.9947908,9.973646,-1.2731167
180,1435994347397,-0.9780314,9.94312,-1.252766
181,1435994347422,-0.9672575,9.955689,-1.2018893
182,1435994347439,-0.9923966,9.96347,-1.2503718
183,1435994347458,-0.9935937,9.948506,-1.2473791
184,1435994347479,-0.9720459,9.959879,-1.2150574
185,1435994347500,-0.99179804,9.966463,-1.258153
186,1435994347520,-0.9720459,9.956287,-1.2336124
187,1435994347540,-0.9959879,9.949704,-1.2509704
188,1435994347558,-0.98940384,9.962872,-1.2533646
189,1435994347578,-0.95229375,9.949704,-1.2156559
190,1435994347602,-0.9672575,9.960478,-1.2336124
191,1435994347620,-0.9959879,9.961675,-1.264737
192,1435994347640,-0.9983821,9.985617,-1.2785037
193,1435994347663,-0.99419224,9.954493,-1.270124
194,1435994347680,-0.99419224,9.952697,-1.2216414
195,1435994347699,-0.9768343,9.96347,-1.2455834
196,1435994347723,-0.9684546,9.945514,-1.2210429
197,1435994347740,-0.9876082,9.953894,-1.1971009
198,1435994347766,-1.0067618,9.960478,-1.2108675
199,1435994347780,-1.0043676,9.959879,-1.192911
200,1435994347798,-0.9959879,9.940725,-1.1893197
201,1435994347819,-0.9504981,9.980229,-1.2336124
202,1435994347853,-0.99419224,9.951499,-1.3012487
203,1435994347866,-1.0007763,9.928755,-1.2808979
204,1435994347877,-1.0109516,9.941324,-1.2473791
205,1435994347898,-1.0253168,9.936536,-1.2473791
206,1435994347916,-1.0163386,9.983821,-1.2862848
207,1435994347937,-1.0007763,9.956287,-1.2665327
208,1435994347959,-1.0139444,9.953894,-1.2683283
209,1435994347999,-1.0223241,9.949704,-1.2234371
210,1435994348000,-1.0103531,9.944916,-1.1947067
211,1435994348023,-1.0019734,9.9712515,-1.234211
212,1435994348037,-1.0223241,9.959879,-1.2791022
213,1435994348058,-1.0127473,9.962274,-1.2785037
214,1435994348080,-1.0049661,9.959281,-1.2372037
215,1435994348098,-1.0283096,9.934141,-1.2330139
216,1435994348118,-1.0217255,9.942521,-1.2497733
217,1435994348145,-0.9983821,9.964667,-1.2497733
218,1435994348164,-1.0235212,9.940127,-1.2545617
219,1435994348179,-1.0265139,9.964667,-1.2324153
220,1435994348200,-0.97862995,9.931747,-1.2162545
221,1435994348221,-1.0289081,9.941324,-1.2378023
222,1435994348239,-1.0061632,9.982624,-1.2437878
223,1435994348264,-1.0097545,9.9550905,-1.264737
224,1435994348281,-1.0336965,9.935339,-1.2665327
225,1435994348299,-1.039682,9.914988,-1.2384008
226,1435994348372,-1.0301052,9.944916,-1.2425907
227,1435994348373,-1.0133458,9.962274,-1.2731167
228,1435994348374,-1.050456,9.961076,-1.3150153
229,1435994348384,-1.021127,9.946711,-1.3018472
230,1435994348405,-1.0229226,9.961675,-1.2623428
231,1435994348417,-1.0073603,9.936536,-1.2012907
232,1435994348439,-1.0235212,9.943718,-1.2300211
233,1435994348456,-1.0223241,9.958083,-1.2324153
234,1435994348477,-1.0079589,9.977237,-1.234211
235,1435994348500,-1.0313023,9.968259,-1.2982559
236,1435994348517,-1.027711,9.939528,-1.2910733
237,1435994348537,-1.0169371,9.944916,-1.2312182
238,1435994348562,-0.99179804,9.957485,-1.2198458
239,1435994348578,-1.0253168,9.953295,-1.2491747
240,1435994348600,-1.0552444,9.953295,-1.276708
241,1435994348640,-1.0307038,9.949704,-1.2569559
242,1435994348641,-1.0175357,9.935937,-1.2264298
243,1435994348657,-1.0217255,9.965266,-1.1881226
244,1435994348684,-1.0289081,9.966463,-1.1833342
245,1435994348697,-1.0241197,9.958682,-1.2282255
246,1435994348717,-1.0193313,9.953295,-1.2234371
247,1435994348739,-1.0079589,9.954493,-1.1797429
248,1435994348757,-1.0199299,9.9550905,-1.2108675
249,1435994348777,-1.0175357,9.958083,-1.2485762
250,1435994348799,-1.01574,9.947908,-1.2599486
251,1435994348817,-1.0199299,9.965864,-1.2366052
252,1435994348837,-1.0283096,9.958083,-1.2395979
253,1435994348859,-1.0079589,9.928156,-1.1803415
254,1435994348877,-1.0121487,9.941922,-1.1779473
255,1435994348897,-1.027711,9.964667,-1.2246342
256,1435994348920,-1.0241197,9.965864,-1.2814964
257,1435994348941,-1.0468647,9.961076,-1.2850877
258,1435994348961,-1.0313023,9.954493,-1.2384008
259,1435994348986,-1.0043676,9.965266,-1.1905168
260,1435994349001,-1.0259154,9.933543,-1.1737574
261,1435994349019,-1.0486604,9.982624,-1.2132617
262,1435994349044,-1.0103531,9.973047,-1.2395979
263,1435994349059,-1.0576386,9.962872,-1.2623428
264,1435994349081,-1.027711,9.961675,-1.240795
265,1435994349103,-1.0235212,9.933543,-1.1959038
266,1435994349119,-1.009156,9.955689,-1.1552023
267,1435994349140,-1.0307038,9.9550905,-1.2006922
268,1435994349165,-1.021127,9.949704,-1.240795
269,1435994349185,-1.0163386,9.96347,-1.2395979
270,1435994349204,-1.0103531,9.9473095,-1.246182
271,1435994349226,-1.027711,9.965864,-1.2659341
272,1435994349242,-1.0516531,9.944916,-1.2599486
273,1435994349265,-1.0001777,9.96347,-1.2395979
274,1435994349327,-1.0235212,9.965266,-1.1965023
275,1435994349328,-1.0001777,9.946711,-1.1575965
276,1435994349329,-1.0145429,9.962274,-1.2024878
277,1435994349339,-1.021127,9.962274,-1.2431892
278,1435994349357,-0.9983821,9.959281,-1.2042835
279,1435994349378,-1.0223241,9.97185,-1.2401965
280,1435994349400,-0.98581254,9.944317,-1.1994951
281,1435994349418,-1.0061632,9.949105,-1.1749545
282,1435994349439,-1.021127,9.962872,-1.1707647
283,1435994349465,-0.99179804,9.945514,-1.1923125
284,1435994349484,-0.97743285,9.968259,-1.1821371
285,1435994349500,-1.009156,9.962274,-1.2132617
286,1435994349528,-0.9983821,9.962274,-1.1647792
287,1435994349541,-0.9804256,9.968259,-1.1647792
288,1435994349561,-0.9864111,9.974244,-1.1731589
289,1435994349585,-0.98581254,9.949105,-1.1767502
290,1435994349600,-0.9923966,9.957485,-1.2252327
291,1435994349620,-0.9947908,9.968858,-1.2150574
292,1435994349645,-0.9935937,9.962872,-1.2030864
293,1435994349660,-0.9672575,9.961076,-1.1498153
294,1435994349681,-0.98461545,9.935937,-1.1815386
295,1435994349707,-0.9983821,9.968259,-1.1893197
296,1435994349721,-0.9888053,9.9928,-1.2276269
297,1435994349745,-0.99060094,9.959281,-1.2515689
298,1435994349765,-1.002572,9.972448,-1.198298
299,1435994349785,-0.973243,9.927557,-1.1540052
300,1435994349805,-0.9696517,9.956886,-1.1270704
301,1435994349822,-0.97623575,9.991602,-1.2204443
302,1435994349839,-0.9660604,9.986216,-1.2186487
303,1435994349859,-1.0019734,9.97604,-1.2006922
304,1435994349884,-0.98341835,9.950901,-1.1558008
305,1435994349930,-0.9792285,9.966463,-1.1354501
306,1435994349931,-0.9768343,9.980229,-1.1438298
307,1435994349956,-0.97743285,9.9712515,-1.1713632
308,1435994350801,-1.0103531,9.968259,-1.1959038
309,1435994350802,-0.98461545,9.988011,-1.1647792
310,1435994350803,-0.98940384,9.953295,-1.1450269
311,1435994350804,-0.9947908,9.978435,-1.1683705
312,1435994350805,-0.98341835,9.975441,-1.1917139
313,1435994350806,-1.0031705,9.968858,-1.1881226
314,1435994350807,-0.9947908,9.973047,-1.1803415
315,1435994350808,-0.93732995,9.973047,-1.1252748
316,1435994350809,-0.95588505,9.993398,-1.1384429
317,1435994350810,-0.9576807,9.977836,-1.1384429
318,1435994350811,-0.9828198,9.9712515,-1.1707647
319,1435994350812,-0.9840169,9.965266,-1.1474211
320,1435994350813,-0.9888053,9.949105,-1.1294646
321,1435994350814,-0.92296475,9.974244,-1.079785
322,1435994350815,-0.94930094,9.986814,-1.0833763
323,1435994350816,-0.98461545,9.982624,-1.1510124
324,1435994350817,-0.96785605,9.976639,-1.1737574
325,1435994350818,-0.9648633,9.958682,-1.1414356
326,1435994350819,-0.9780314,9.97604,-1.115698
327,1435994350820,-0.94810385,9.967062,-1.0761937
328,1435994350821,-0.9672575,9.96766,-1.1127052
329,1435994350822,-0.9911995,9.988011,-1.1761516
330,1435994350823,-0.9696517,9.986814,-1.1827357
331,1435994350824,-0.9900024,9.967062,-1.1611878
332,1435994350825,-0.9552865,9.974843,-1.0893618
333,1435994350826,-0.9696517,9.961076,-1.1133038
334,1435994350827,-0.95947635,9.973646,-1.1360487
335,1435994350828,-0.94690675,9.985018,-1.1127052
336,1435994350829,-0.95827925,9.9712515,-1.0827777
337,1435994350830,-0.9684546,9.954493,-1.1019313
338,1435994350831,-0.9744401,9.980828,-1.1210849
339,1435994350832,-0.98102415,9.968858,-1.1246762
340,1435994350833,-0.9636662,9.980229,-1.1198878
341,1435994350834,-0.97743285,9.961076,-1.0971429
342,1435994350835,-0.9780314,9.97604,-1.1593921
343,1435994350836,-0.98222125,9.995792,-1.1923125
344,1435994350837,-0.9816227,9.964069,-1.1312603
345,1435994350838,-0.98461545,9.962872,-1.1049241
346,1435994350839,-0.9792285,9.974244,-1.0947487
347,1435994350840,-0.96665895,9.959879,-1.1366472
348,1435994350841,-0.95827925,9.97604,-1.1450269
349,1435994350842,-0.96785605,9.968858,-1.1270704
350,1435994350843,-0.97623575,10.002377,-1.1288661
351,1435994350844,-0.9780314,9.975441,-1.1085154
352,1435994350845,-1.0001777,9.993398,-1.168969
353,1435994350859,-0.9780314,9.96766,-1.1300632
354,1435994350879,-0.9923966,9.949105,-1.1216835
355,1435994350901,-0.94211835,9.986814,-1.0929531
356,1435994350919,-0.9552865,9.959879,-1.0893618
357,1435994350939,-0.97623575,10.007763,-1.1653777
358,1435994350961,-0.9900024,9.973646,-1.168969
359,1435994350979,-0.9780314,9.944317,-1.1444284
360,1435994350999,-0.9888053,9.975441,-1.0791864
361,1435994351021,-0.9792285,9.981427,-1.1306617
362,1435994351039,-0.96426475,9.965266,-1.1504139
363,1435994351061,-0.98341835,9.977237,-1.2114661
364,1435994351091,-1.0181342,9.962872,-1.1707647
365,1435994351104,-0.97384155,9.966463,-1.1324574
366,1435994351124,-0.9564836,9.958682,-1.086369
367,1435994352114,-0.99060094,9.970653,-1.1121067
368,1435994352115,-0.95827925,9.96766,-1.1294646
369,1435994352116,-0.98581254,9.976639,-1.1348516
370,1435994352117,-0.98581254,9.974843,-1.1408371
371,1435994352118,-0.95109665,9.951499,-1.1204864
372,1435994352119,-0.99179804,9.976639,-1.0989386
373,1435994352120,-0.99419224,9.983821,-1.1210849
374,1435994352121,-0.97264445,9.965266,-1.1563994
375,1435994352122,-1.0139444,9.974843,-1.2198458
376,1435994352123,-1.0163386,9.964069,-1.1611878
377,1435994352124,-0.98461545,9.978435,-1.1761516
378,1435994352125,-0.97144735,9.988011,-1.1833342
379,1435994352126,-1.027711,9.964667,-1.1605892
380,1435994352127,-1.009156,9.974843,-1.1737574
381,1435994352128,-0.97144735,9.978435,-1.1492168
382,1435994352129,-0.9876082,9.982624,-1.1563994
383,1435994352130,-1.002572,9.96347,-1.1659763
384,1435994352131,-0.9935937,9.969456,-1.1360487
385,1435994352132,-0.97982705,9.982624,-1.1755531
386,1435994352133,-1.0235212,9.946711,-1.1288661
387,1435994352134,-1.0019734,9.968259,-1.09834
388,1435994352135,-0.98940384,9.967062,-1.1390414
389,1435994352136,-0.9935937,9.9473095,-1.1647792
390,1435994352137,-1.0073603,9.958682,-1.146224
391,1435994352138,-0.9947908,9.967062,-1.1785458
392,1435994352139,-1.0103531,9.978435,-1.210269
393,1435994352140,-1.0414777,9.941922,-1.1797429
394,1435994352141,-1.0295067,9.952697,-1.1055226
395,1435994352142,-0.9828198,9.962274,-1.1264719
396,1435994352143,-0.9900024,9.958083,-1.1593921
397,1435994352144,-1.039682,9.988011,-1.2198458
398,1435994352145,-1.0049661,9.944916,-1.234211
399,1435994352146,-0.98461545,9.989208,-1.1575965
400,1435994352147,-1.0007763,9.950901,-1.1599907
401,1435994352148,-1.0241197,9.961675,-1.1671734
402,1435994352149,-1.0354922,9.953894,-1.1988965
403,1435994352150,-1.0127473,9.974244,-1.1785458
404,1435994352151,-1.0073603,9.962872,-1.2060791
405,1435994352152,-1.0001777,9.959281,-1.1707647
406,1435994352153,-0.985214,9.948506,-1.1378443
407,1435994352154,-1.002572,9.944317,-1.1767502
408,1435994352155,-1.0229226,9.977237,-1.2348095
