id,attr_time,attr_x,attr_y,attr_z
1,1437233612938,-0.008552114,0.03176499,-0.02076942
2,1437233612958,-0.0070249503,0.032375857,-0.026267206
3,1437233612974,-0.005497787,0.034513887,-0.028710667
4,1437233612998,-0.0012217305,0.03573562,-0.03023783
5,1437233613018,-0.013133603,0.032070424,-0.020158553
6,1437233613038,-0.0070249503,0.030848695,-0.021685716
7,1437233613058,-0.0033597588,0.03481932,-0.027794369
8,1437233613078,-0.0061086523,0.02687807,-0.027183503
9,1437233613098,0.00061086525,0.030848695,-0.027488936
10,1437233613118,0.0,0.03023783,-0.026572637
11,1437233613137,0.003970624,0.028710667,-0.024129177
12,1437233613157,0.005497787,0.02565634,-0.027183503
13,1437233613178,0.004886922,0.024129177,-0.030543262
14,1437233613195,0.0027488936,0.030848695,-0.033292156
15,1437233613214,0.00061086525,0.027488936,-0.028710667
16,1437233613237,0.0012217305,0.02443461,-0.028710667
17,1437233613260,0.004276057,0.029626964,-0.027488936
18,1437233613280,0.009773844,0.0290161,-0.025045475
19,1437233613301,0.0009162979,0.028405234,-0.022907447
20,1437233613318,0.003970624,0.027488936,-0.026267206
21,1437233613335,-0.003970624,0.0290161,-0.02565634
22,1437233613355,-0.00061086525,0.024740042,-0.03023783
23,1437233613378,-0.0027488936,0.026267206,-0.027183503
24,1437233613397,-0.0021380284,0.03145956,-0.026267206
25,1437233613415,-0.0036651916,0.03176499,-0.021685716
26,1437233613465,-0.005192355,0.030543262,-0.021685716
27,1437233613466,0.00061086525,0.030848695,-0.026572637
28,1437233613486,0.0018325958,0.03176499,-0.026267206
29,1437233613496,-0.002443461,0.029932396,-0.024129177
30,1437233613519,0.00061086525,0.032375857,-0.02321288
31,1437233613536,0.0027488936,0.031154128,-0.02687807
32,1437233613556,-0.002443461,0.0290161,-0.01985312
33,1437233613577,0.0018325958,0.027183503,-0.022296581
34,1437233613596,-0.0012217305,0.029932396,-0.02321288
35,1437233613617,-0.004276057,0.031154128,-0.022296581
36,1437233613636,-0.009773844,0.028099801,-0.016187929
37,1437233613658,-0.0018325958,0.028710667,-0.023823744
38,1437233613680,0.00061086525,0.032070424,-0.02687807
39,1437233613697,-0.007330383,0.03390302,-0.02565634
40,1437233613718,-0.0021380284,0.03573562,-0.024740042
41,1437233613739,-0.004581489,0.027488936,-0.022907447
42,1437233613759,-0.005497787,0.027183503,-0.02321288
43,1437233613779,-0.005497787,0.03268129,-0.022296581
44,1437233613799,-0.0061086523,0.034208454,-0.019242255
45,1437233613819,0.0,0.03726278,-0.022907447
46,1437233613839,-0.009162978,0.029626964,-0.01863139
47,1437233613858,-0.01038471,0.02687807,-0.021991149
48,1437233613876,-0.008857546,0.034513887,-0.02321288
49,1437233613895,-0.0033597588,0.029321533,-0.028099801
50,1437233613918,0.0,0.032375857,-0.03023783
51,1437233613938,-0.0027488936,0.02565634,-0.028099801
52,1437233613958,-0.005192355,0.027794369,-0.021380283
53,1437233613979,-0.00580322,0.02687807,-0.01985312
54,1437233613997,-0.004886922,0.03023783,-0.023518313
55,1437233614018,-0.004581489,0.027794369,-0.027183503
56,1437233614053,-0.008857546,0.03145956,-0.02107485
57,1437233614062,-0.00061086525,0.032375857,-0.024740042
58,1437233614079,-0.0021380284,0.025045475,-0.019547688
59,1437233614099,0.002443461,0.034208454,-0.021380283
60,1437233614116,-0.0015271631,0.03145956,-0.020158553
61,1437233614136,0.0018325958,0.032986723,-0.027183503
62,1437233614204,-0.002443461,0.029321533,-0.02443461
63,1437233614205,-0.003970624,0.032070424,-0.025350908
64,1437233614206,-0.0021380284,0.034513887,-0.027183503
65,1437233614215,-0.0067195175,0.033292156,-0.02076942
66,1437233614236,-0.004581489,0.028710667,-0.020158553
67,1437233614257,-0.009773844,0.025045475,-0.023518313
68,1437233614276,0.0018325958,0.03390302,-0.029321533
69,1437233614298,-0.0036651916,0.03481932,-0.029626964
70,1437233614317,-0.002443461,0.03268129,-0.026267206
71,1437233614336,-0.0015271631,0.030543262,-0.022296581
72,1437233614356,-0.0015271631,0.02687807,-0.023518313
73,1437233614378,0.00030543262,0.029626964,-0.02687807
74,1437233614395,-0.0012217305,0.03268129,-0.02687807
75,1437233614419,-0.0027488936,0.035430185,-0.021685716
76,1437233614439,0.005497787,0.03268129,-0.025350908
77,1437233614458,-0.0015271631,0.029932396,-0.030848695
78,1437233614479,-0.005497787,0.03726278,-0.027488936
79,1437233614499,-0.0067195175,0.035124753,-0.02107485
80,1437233614519,-0.008857546,0.03023783,-0.020158553
81,1437233614539,-0.009468411,0.027488936,-0.019242255
82,1437233614559,-0.0036651916,0.034208454,-0.022602014
83,1437233614579,-0.005497787,0.035124753,-0.025961773
84,1437233614597,-0.00061086525,0.03390302,-0.02565634
85,1437233614618,0.0036651916,0.03481932,-0.025350908
86,1437233614636,-0.0015271631,0.03023783,-0.027794369
87,1437233614657,-0.002443461,0.030848695,-0.029626964
88,1437233614677,-0.0027488936,0.02443461,-0.025961773
89,1437233614697,-0.0067195175,0.026572637,-0.024740042
90,1437233614722,0.0027488936,0.02443461,-0.023518313
91,1437233614742,-0.0021380284,0.027183503,-0.022907447
92,1437233614759,-0.00061086525,0.029321533,-0.022296581
93,1437233614776,0.010079277,0.025961773,-0.026572637
94,1437233614796,0.012217305,0.01985312,-0.032070424
95,1437233614816,0.014660766,0.015882496,-0.03940081
96,1437233614837,0.020158553,0.0143553335,-0.046120327
97,1437233614857,0.022907447,0.014966198,-0.042760566
98,1437233614909,0.024740042,0.012217305,-0.04550946
99,1437233614910,0.031154128,0.01160644,-0.052534413
100,1437233614926,0.031154128,0.011301007,-0.050396383
101,1437233614936,0.032986723,0.010995574,-0.05222898
102,1437233614959,0.028710667,0.0125227375,-0.051618114
103,1437233614977,0.03268129,0.01282817,-0.05009095
104,1437233614996,0.035124753,0.014049901,-0.05131268
105,1437233615018,0.031154128,0.010995574,-0.053145275
106,1437233615038,0.029932396,0.015882496,-0.045814894
107,1437233615058,0.026267206,0.013439035,-0.039095376
108,1437233615077,0.027183503,0.009773844,-0.039095376
109,1437233615098,0.025961773,0.0,-0.04550946
110,1437233615118,0.0290161,0.0030543262,-0.03970624
111,1437233615141,0.026267206,0.0030543262,-0.030848695
112,1437233615160,0.02565634,0.00030543262,-0.0290161
113,1437233615180,0.028099801,-0.003970624,-0.034208454
114,1437233615200,0.03359759,-0.007330383,-0.030543262
115,1437233615220,0.027488936,0.0009162979,-0.013133603
116,1437233615240,0.025350908,0.004581489,0.004886922
117,1437233615257,0.025350908,0.0033597588,0.023823744
118,1437233615277,0.033292156,0.0067195175,0.03940081
119,1437233615297,0.043676864,-0.003970624,0.050701816
120,1437233615318,0.053145275,0.02107485,0.08307768
121,1437233615340,0.061086524,0.034208454,0.1826487
122,1437233615358,0.08979719,0.06688975,0.3594942
123,1437233615378,0.08460484,0.08155051,0.5354234
124,1437233615398,0.10323623,0.047647487,0.66767573
125,1437233615421,0.22815818,-0.005497787,0.79351395
126,1437233615440,0.25870144,0.13652839,0.9401216
127,1437233615459,0.28771752,0.21594086,1.0858129
128,1437233615480,0.30115658,0.09743301,1.0580186
129,1437233615498,0.34269542,0.016798794,1.0103711
130,1437233615520,0.3371976,0.2565634,1.1078042
131,1437233615539,0.26450464,0.33505958,1.2064588
132,1437233615559,0.2602286,0.01282817,1.0259482
133,1437233615581,0.2687807,0.01863139,0.95081174
134,1437233615660,0.21930063,0.24281894,1.0806206
135,1437233615661,0.129198,0.2275473,1.0280862
136,1437233615662,0.16737708,-0.29016098,0.79901177
137,1437233615663,0.15974127,-0.19211712,0.5225952
138,1437233615699,0.069027774,0.053145275,0.21288654
139,1437233615700,-0.011911872,-0.103847094,-0.17989981
140,1437233615717,-0.22479841,0.028710667,-0.70096785
141,1437233615737,-0.54367006,0.28893927,-1.0732902
142,1437233615757,-0.68203104,-0.032986723,-1.351234
143,1437233615778,-0.75136423,-0.18753563,-1.7965547
144,1437233615797,-0.6133087,0.44806966,-2.2742512
145,1437233615818,-0.48197266,1.6594155,-2.5384505
146,1437233615840,-0.3032946,2.1126773,-2.6713138
147,1437233615858,-0.42210788,0.7834347,-1.001819
148,1437233615879,-0.15271631,-1.2030991,0.30024028
149,1437233615900,0.048258353,-1.3228287,0.5635232
150,1437233615920,0.106901415,-0.16157386,0.398895
151,1437233615940,-0.1020145,0.61575216,-0.024129177
152,1437233615960,-0.12217305,0.14019357,-0.6215554
153,1437233615980,0.099265605,0.32345316,1.181108
154,1437233616001,0.4981606,-0.3277292,0.8738427
155,1437233616020,0.3930918,1.2147056,0.91507614
156,1437233616040,0.24190263,1.7907515,2.3762658
157,1437233616060,0.65057147,-0.11301007,2.764776
158,1437233616078,0.514654,-2.2452352,2.7394252
159,1437233616101,0.35002577,-2.6758952,2.2815816
160,1437233616120,0.59956425,-2.3735168,1.0125091
161,1437233616140,0.752586,-0.05375614,0.7275405
162,1437233616161,0.46670106,1.2351695,0.8179486
163,1437233616179,0.0888809,0.37048978,0.5665775
164,1437233616200,-0.13408493,-0.3811799,0.030848695
165,1437233616221,-0.49571714,-0.049785517,-0.73792523
166,1437233616240,-0.81061816,0.2855795,-1.2895365
167,1437233616261,-0.7318166,0.076052725,-1.7293595
168,1437233616281,-0.6178902,0.22571471,-2.0299053
169,1437233616299,-0.6062838,1.3457361,-2.4697282
170,1437233616318,-0.40103304,2.3475552,-2.5854871
171,1437233616343,-0.48899764,0.6224717,-1.6869044
172,1437233616412,-0.57787853,-1.2247849,-0.2751948
173,1437233616413,0.032986723,-2.8600712,-1.1355985
174,1437233616414,0.45112398,-1.2092078,-1.7241671
175,1437233616424,0.3042109,0.39278635,-1.1856894
176,1437233616438,-0.04917465,0.99082345,-1.0488557
177,1437233616459,-0.12797627,0.81122905,-0.81581056
178,1437233616478,-0.19975294,0.5143485,-0.61544675
179,1437233616499,0.07727446,0.4841107,1.0198395
180,1437233616520,0.18906279,-0.116980694,3.0961704
181,1437233616539,0.70066243,-0.61544675,1.493871
182,1437233616558,0.44532076,1.6829338,2.3185391
183,1437233616580,0.3747658,0.24648413,3.232699
184,1437233616602,0.9068295,-2.4807239,2.5350907
185,1437233616620,0.86590147,-3.9174788,1.611768
186,1437233616638,0.8268061,-1.0815369,0.4111123
187,1437233616659,0.4596761,1.7437148,0.9410379
188,1437233616678,0.15424347,1.0772609,1.2724323
189,1437233616699,-0.14172074,-0.5467244,0.23090707
190,1437233616722,-0.441961,-0.5467244,-0.45937067
191,1437233616762,-0.7134906,0.25045475,-1.2183707
192,1437233616763,-0.7461719,0.12889257,-1.7534887
193,1437233616779,-0.73792523,0.069027774,-1.9559906
194,1437233616799,-0.57451874,0.2764165,-2.2715025
195,1437233616818,-0.4364632,1.3332134,-2.486527
196,1437233616889,-0.4251622,2.2708917,-2.6352727
197,1437233616890,-0.5699373,1.3222178,-2.3280075
198,1437233616891,-0.44837508,-0.528093,-0.15424347
199,1437233616901,-0.15943582,-1.6740762,0.16249016
200,1437233616921,0.4392121,-0.6914995,-0.7098254
201,1437233616940,0.43218717,1.572978,-0.6826419
202,1437233616962,0.1731803,2.3906212,-0.5128214
203,1437233616981,-0.09010262,2.0766363,-0.34605515
204,1437233616999,-0.052839845,1.3115277,0.17684549
205,1437233617019,0.047036625,0.6197228,2.3921483
206,1437233617049,0.4288274,-0.86529064,2.0201313
207,1437233617104,0.40408736,-0.4016439,1.6029104
208,1437233617105,0.28955013,0.20861048,2.9471195
209,1437233617106,0.52839845,-2.0723603,2.5076017
210,1437233617126,0.56077427,-3.2073479,1.8576412
211,1437233617138,0.6411031,-1.6325374,0.8341365
212,1437233617159,0.552833,0.8011498,0.46211955
213,1437233617178,0.4569272,1.1838568,0.6444628
214,1437233617198,0.15760323,0.31306845,0.75228053
215,1437233617219,-0.1133155,-0.2941316,0.310625
216,1437233617239,-0.44073927,-0.23060162,-0.5222898
217,1437233617259,-0.7489208,0.062002823,-1.2330315
218,1437233617280,-0.7959574,-0.058337633,-1.6462818
219,1437233617302,-0.6731735,-0.2556471,-2.1398609
220,1437233617320,-0.44837508,0.28069258,-2.479502
221,1437233617342,-0.35888332,2.0787745,-2.667954
222,1437233617362,-0.41722095,2.5024095,-2.5784621
223,1437233617381,-0.48899764,0.59437186,-1.4150693
224,1437233617402,-0.5186246,-2.1135938,-0.04337143
225,1437233617422,-0.21685717,-2.8322768,-0.105374254
226,1437233617440,0.28802297,-1.6520851,-1.2186762
227,1437233617460,0.2312125,1.1435398,-0.7189884
228,1437233617480,0.04184427,1.863139,-0.52381694
229,1437233617502,-0.10903945,1.8500054,-0.6386596
230,1437233617522,0.00030543262,1.7757853,-0.24770586
231,1437233617559,0.098043874,1.1221595,2.4425447
232,1437233617560,0.61086524,-0.88331115,2.9770517
233,1437233617579,0.537256,-1.1982121,1.2596041
234,1437233617600,0.41538838,1.7687603,2.8964176
235,1437233617622,0.5928447,-0.8539896,2.3576343
236,1437233617642,0.3643811,-3.4736853,1.5470163
237,1437233617660,0.66737026,-1.9947804,0.42210788
238,1437233617681,0.59773165,0.035430185,0.6780604
239,1437233617699,0.31764993,1.7754798,2.266921
240,1437233617721,0.36132678,-0.70554936,0.8698721
241,1437233617740,0.30482176,-0.083383106,-0.0018325958
242,1437233617759,-0.1337795,0.24801129,-0.49205196
243,1437233617807,-0.32406402,0.059253927,-1.3289373
244,1437233617808,-0.48197266,0.3173445,-1.7733418
245,1437233617826,-0.71868294,0.5537493,-1.9294178
246,1437233617846,-0.59895337,0.4877759,-2.0607538
247,1437233617859,-0.42424592,0.47769663,-2.1389446
248,1437233617881,-0.38423425,0.97341377,-2.4431555
249,1437233617899,-0.4841107,1.3658947,-2.7531698
250,1437233617924,-0.6588182,0.98715824,-2.2440135
251,1437233617939,-0.37568212,0.112704635,-0.07880162
252,1437233617959,0.13958271,-1.6420058,0.18661933
253,1437233617979,0.49327368,-0.17379116,-0.3735441
254,1437233617999,0.24037547,1.6936239,-0.005497787
255,1437233618021,-0.04795292,1.8683313,-0.18784106
256,1437233618042,-0.09132435,0.71685034,-0.050701816
257,1437233618060,0.024129177,-0.02076942,1.0054842
258,1437233618083,0.19272798,-0.13836098,1.921782
259,1437233618103,0.46211955,0.02687807,0.818254
260,1437233618123,0.3277292,1.1554517,2.1682663
261,1437233618142,0.43310347,-0.46273044,2.3478606
262,1437233618160,0.79626286,-2.835331,1.7825048
263,1437233618180,0.689056,-2.8496864,0.94897914
264,1437233618200,0.49296826,-0.50671273,0.77304995
265,1437233618220,0.31856623,1.6453656,1.2825116
266,1437233618243,0.35124752,-0.08735373,1.2321151
267,1437233618260,0.3454443,-0.23182335,0.6093381
268,1437233618282,0.13164146,-0.18081611,-0.02076942
269,1437233618300,-0.082161374,-0.034208454,-0.5164866
270,1437233618320,-0.3848451,0.25228736,-1.0439687
271,1437233618343,-0.66339964,0.35216382,-1.5222762
272,1437233618361,-0.70432764,0.24678956,-1.777007
273,1437233618383,-0.6392705,0.23335053,-1.8188512
274,1437233618402,-0.49846604,0.7483099,-2.0384574
275,1437233618422,-0.4896085,1.7553213,-2.1465805
276,1437233618440,-0.48441613,1.8182404,-2.4294112
277,1437233618460,-0.5335908,0.3368922,-0.9755518
278,1437233618480,-0.2883284,-1.5839735,0.30726522
279,1437233618530,0.06414085,-2.4871378,0.032986723
280,1437233618531,0.43371433,-1.4514158,-0.97433007
281,1437233618550,0.2321288,0.49510628,-0.30909783
282,1437233618560,-0.02321288,0.67073005,-0.2764165
283,1437233618583,0.080634214,1.251052,-0.21624629
284,1437233618602,-0.056199603,2.064419,2.6258042
285,1437233618621,0.57879484,-0.12889257,1.4892895
286,1437233618642,0.39614612,0.552833,0.97066486
287,1437233618661,0.0693332,0.8762862,2.3518312
288,1437233618680,0.5488624,-2.6542094,2.03693
289,1437233618700,0.441961,-3.9187005,0.30726522
290,1437233618723,0.7858781,-1.6636915,1.8771889
291,1437233618740,0.50243664,2.273335,2.597399
292,1437233618763,0.3371976,0.19730948,1.5164729
293,1437233618783,0.23457226,-0.36835176,0.5308419
294,1437233618801,0.16707164,-0.12858713,0.05131268
295,1437233618823,0.02076942,-0.04642576,-0.5687156
296,1437233618843,-0.27152961,0.3295618,-0.90102625
297,1437233618861,-0.60994893,0.60903263,-1.0613784
298,1437233618883,-0.6630942,0.35705075,-1.428203
299,1437233618903,-0.59437186,0.13103059,-1.8457294
300,1437233618921,-0.49693888,0.0018325958,-1.8793269
301,1437233618944,-0.44959682,0.84391034,-2.1087067
302,1437233618963,-0.39187005,2.0610592,-2.1313088
303,1437233618984,-0.42852196,1.9611828,-1.6588045
304,1437233619004,-0.2950479,-0.18784106,-0.4990769
305,1437233619022,-0.08552113,-2.1887302,0.3032946
306,1437233619043,0.2574797,-2.5638015,-1.0005972
307,1437233619063,0.31642818,0.2144137,-1.3634512
308,1437233619083,-0.10262536,1.675298,-0.8335256
309,1437233619104,-0.112399206,2.4810293,-0.3717115
310,1437233619123,-0.14477506,2.2049181,2.3231206
311,1437233619145,0.6365216,-0.97249746,1.0384709
312,1437233619162,0.3915646,0.077579886,1.2235631
313,1437233619182,0.33933565,0.86620694,2.3753495
314,1437233619245,0.72418076,-2.0790799,1.817935
315,1437233619248,0.30024028,-2.420248,0.6963864
316,1437233619249,0.9841039,-0.799928,2.5335636
317,1437233619264,0.44440445,1.5607607,2.4507914
318,1437233619282,0.3753767,-0.37048978,1.3805555
319,1437233619303,0.20189096,-0.14172074,0.47952923
320,1437233619320,0.116675265,0.06414085,0.014049901
321,1437233619340,-0.06169739,0.0070249503,-0.50976706
322,1437233619363,-0.35918877,0.3747658,-0.91690874
323,1437233619381,-0.57451874,0.3912592,-1.1924089
324,1437233619403,-0.73914695,0.19028452,-1.5824465
325,1437233619422,-0.6792821,-0.2660318,-1.7687603
326,1437233619444,-0.57787853,-0.21044308,-1.9181169
327,1437233619464,-0.47311515,0.6805039,-2.2715025
328,1437233619484,-0.39278635,2.1859813,-2.1844542
329,1437233619503,-0.3680463,1.6533068,-1.8011361
330,1437233619524,-0.44043383,-0.18081611,-0.46822822
331,1437233619541,-0.19120082,-2.7693577,0.52564955
332,1437233619563,0.021380283,-2.9746084,-0.4156938
333,1437233619584,0.035124753,-0.21074851,-0.6469063
334,1437233619603,-0.20525073,1.2654073,-0.364992
335,1437233619624,-0.2434298,1.8347337,-0.8524625
336,1437233619644,-0.011911872,2.0503693,0.50610185
337,1437233619662,0.30573806,0.88514376,3.0008755
338,1437233619684,0.58032197,-1.7458528,0.22266038
339,1437233619701,0.38637227,1.4905112,2.0680842
340,1437233619721,0.5833763,-0.50823987,2.4333818
341,1437233619741,0.419359,-2.6871963,1.5085317
342,1437233619766,0.68966687,-1.8206838,1.183246
343,1437233619786,0.58184916,0.5458081,0.6221663
344,1437233619807,0.32589662,1.2244794,0.75411314
345,1437233619823,0.17165314,0.571159,0.8179486
346,1437233619841,0.11942416,0.20372356,0.48502702
347,1437233619861,0.10140363,-0.23060162,0.08277224
348,1437233619881,-0.030848695,0.105374254,0.0033597588
349,1437233619902,-0.3277292,0.19700404,-0.37751472
350,1437233619924,-0.5271767,-0.1432479,-1.1542299
351,1437233619972,-0.61575216,-0.20952678,-1.5958854
352,1437233619973,-0.6227771,0.027488936,-1.6145169
353,1437233619983,-0.5225952,0.4886922,-1.9425515
354,1437233620001,-0.47861293,1.5601498,-2.1001546
355,1437233620022,-0.41325033,1.8939877,-2.0088303
356,1437233620044,-0.5271767,0.754724,-1.3582588
357,1437233620061,-0.46853364,-1.4193454,0.23426682
358,1437233620087,-0.19333886,-3.0094275,0.4260785
359,1437233620102,0.09193522,-2.3533583,-0.344528
360,1437233620122,0.24740042,-0.36774087,-0.61453044
361,1437233620142,0.15943582,0.10934488,-0.43554693
362,1437233620162,0.21013765,-0.081855945,-0.7834347
363,1437233620182,-0.07147124,0.9083566,2.629164
364,1437233620201,0.34605515,-0.21594086,2.4550674
365,1437233620221,0.42852196,0.41141775,-0.11636983
366,1437233620241,0.11942416,2.0809124,2.3313673
367,1437233620265,0.1881465,-2.5244007,1.9339994
368,1437233620285,0.02687807,-4.3148465,0.4437936
369,1437233620305,0.23762658,-2.3765712,-0.57604593
370,1437233620325,-0.20922135,2.221106,-0.24251351
371,1437233620345,-0.2941316,1.1255192,-0.48472157
372,1437233620365,-0.30665436,-0.122478485,-0.9462303
373,1437233620382,-0.31123585,-0.31978795,-1.058324
374,1437233620405,-0.2406809,0.5549711,-1.0571023
375,1437233620423,-0.089491755,1.1258247,-0.9254609
376,1437233620442,-0.01038471,1.4309518,-0.59559363
377,1437233620462,0.129198,0.9682214,-0.2968805
378,1437233620486,0.22632557,0.0290161,-0.18509217
379,1437233620505,0.2565634,-0.7290677,-0.17898351
380,1437233620524,0.20555615,-0.39187005,-0.11881329
381,1437233620544,0.14446963,0.30024028,0.16157386
382,1437233620561,0.07788532,0.29932398,0.21746802
383,1437233620584,0.095294975,-0.21563543,0.20189096
384,1437233620609,0.09193522,-0.34788775,0.21533
