id,attr_time,attr_x,attr_y,attr_z
1,1437233612927,-0.021141248,0.0005179085,-0.016758954
2,1437233612943,-0.02847163,-0.016586319,-0.021645876
3,1437233612966,-0.036718313,-0.014448289,-0.013093762
4,1437233612984,-0.020530382,-0.004369013,-0.009123138
5,1437233613003,-0.018392354,0.009986322,-0.0066796765
6,1437233613025,-0.017781489,0.024341654,-0.009428571
7,1437233613048,-0.02144668,0.031061172,-0.007595975
8,1437233613066,-0.024501007,0.02159276,-0.007290542
9,1437233613083,-0.024195574,0.003266804,-0.010650301
10,1437233613146,-0.022362977,0.002961371,-0.0066796765
11,1437233613147,-0.010756537,0.004793968,-0.0066796765
12,1437233613148,-0.008618511,0.00968089,-0.005152514
13,1437233613163,-0.012894567,0.008153725,-0.007901408
14,1437233613184,-0.022057544,-0.0019255504,-0.015842656
15,1437233613203,-0.018392354,-0.008034203,-0.013093762
16,1437233613223,-0.014421729,-0.0052853115,-0.008206841
17,1437233613243,-0.014421729,0.0005179085,-0.007290542
18,1437233613266,-0.015338028,0.0038776696,-0.007290542
19,1437233613284,-0.018697787,0.002961371,-0.008206841
20,1437233613305,-0.021141248,0.0023505054,-0.008817705
21,1437233613324,-0.024501007,0.006931994,-0.0045416486
22,1437233613346,-0.018392354,0.006931994,-0.005457947
23,1437233613367,-0.020835815,0.0020450726,-0.0063742436
24,1437233613383,-0.021141248,-0.00039838627,-0.0011818893
25,1437233613404,-0.015338028,0.00540483,-0.007595975
26,1437233613423,-0.01900322,0.004793968,-0.0063742436
27,1437233613448,-0.016254326,0.0035722367,-0.0103448685
28,1437233613468,-0.017476056,-0.0016201176,-0.008206841
29,1437233613489,-0.018697787,-0.0071179047,-0.0060688127
30,1437233613504,-0.01564346,-0.009561367,-0.007901408
31,1437233613523,-0.012589134,-0.0062016062,-0.010039436
32,1437233613543,-6.639585e-05,-0.013837423,-0.007901408
33,1437233613564,-0.0046478845,-0.012004826,-0.010039436
34,1437233613584,-0.0061750486,-0.01780805,-0.011566599
35,1437233613606,-0.014116297,-0.03124708,-0.019202415
36,1437233613657,-0.026639035,-0.050794773,-0.023783904
37,1437233613658,-0.022057544,-0.04835131,-0.012482897
38,1437233613671,0.0039042272,-0.037355736,-0.007901408
39,1437233613696,0.009707447,-0.0092559345,-0.005152514
40,1437233613706,0.00787485,-0.006507039,-0.008817705
41,1437233613723,0.0069585554,-0.018418916,-0.0048470814
42,1437233613745,0.0048205256,-0.026971027,3.9840117e-05
43,1437233613765,0.0020716302,-0.03674487,-0.008512273
44,1437233613787,0.009402014,-0.04560242,-0.015537223
45,1437233613804,0.015510667,-0.051100202,-0.01981328
46,1437233613824,0.018259563,-0.060568616,-0.01981328
47,1437233613843,0.019175857,-0.06728813,-0.03386318
48,1437233613868,0.0069585554,-0.067898996,-0.033252314
49,1437233613885,-0.00739678,-0.0529328,-0.035695776
50,1437233613904,-0.020835815,-0.0132265575,-0.03508491
51,1437233613924,-0.03213682,0.013651513,-0.029892556
52,1437233613944,-0.052295376,0.05183059,-0.031725153
53,1437233613966,-0.06817787,0.061604433,-0.038444668
54,1437233613987,-0.07459196,0.060688138,-0.03508491
55,1437233614006,-0.06726158,0.04480564,-0.041498996
56,1437233614027,-0.048935615,0.018538434,-0.036306642
57,1437233614047,-0.04099437,0.008459158,-0.033557747
58,1437233614066,-0.04007807,-0.015670016,-0.046385918
59,1437233614088,-0.028166197,-0.036134005,-0.061046682
60,1437233614152,-0.018697787,-0.049267605,-0.05341087
61,1437233614153,0.002377063,-0.045907848,-0.042109862
62,1437233614154,0.046664793,-0.05537626,-0.028365392
63,1437233614174,0.06560162,-0.079505436,-0.014620925
64,1437233614184,0.07018311,-0.08561409,-0.015231791
65,1437233614230,0.07018311,-0.09263904,-0.026227364
66,1437233614231,0.071404845,-0.08866841,-0.01981328
67,1437233614246,0.06926681,-0.07034246,-0.009428571
68,1437233614267,0.074764594,-0.04957304,-0.007290542
69,1437233614284,0.07171027,-0.06759357,-0.00362535
70,1437233614305,0.05582777,-0.086835824,-0.0011818893
71,1437233614324,0.053689744,-0.09263904,-0.0020981878
72,1437233614346,0.04544306,-0.10485635,-0.0002655927
73,1437233614365,0.024062779,-0.1082161,-0.009734003
74,1437233614385,0.0035987943,-0.113408454,-0.007595975
75,1437233614404,-0.011978269,-0.1503658,-0.0011818893
76,1437233614425,-0.015948894,-0.17144066,-0.0020981878
77,1437233614446,-0.017170623,-0.1775493,-0.007595975
78,1437233614470,-0.008923942,-0.18365797,-0.007901408
79,1437233614487,0.018564995,-0.18457425,-0.011872032
80,1437233614505,0.049108256,-0.17418954,-0.017980684
81,1437233614526,0.09278512,-0.18396339,-0.028976258
82,1437233614545,0.13615654,-0.20595452,-0.015231791
83,1437233614566,0.1599803,-0.22886199,0.01622777
84,1437233614658,0.18136057,-0.2569618,0.029361371
85,1437233614659,0.2115984,-0.2926974,0.0052321944
86,1437233614660,0.2387819,-0.39807165,-0.016148088
87,1437233614661,0.25435898,-0.5144415,-0.012482897
88,1437233614686,0.27848816,-0.5657542,-0.019507848
89,1437233614687,0.31666723,-0.54651195,0.0018724371
90,1437233614706,0.33285517,-0.4838982,0.041884113
91,1437233614737,0.310864,-0.47717872,0.055323143
92,1437233614745,0.22015053,-0.5010025,0.016838636
93,1437233614765,0.10561329,-0.4707646,-0.04974568
94,1437233614788,-0.00525875,-0.3516459,-0.07356942
95,1437233614805,-0.07001047,-0.21084145,-0.051578272
96,1437233614824,-0.112465605,-0.14059195,0.0049267635
97,1437233614848,-0.040688936,-0.14211914,0.06754045
98,1437233614868,0.073237434,-0.20259479,0.11702053
99,1437233614890,0.18105514,-0.13692677,0.12801611
100,1437233614904,0.14715213,0.0075428598,0.11732598
101,1437233614925,0.027727973,0.24578032,0.0754817
102,1437233614945,-0.043437827,0.4302616,3.9840117e-05
103,1437233614968,0.027117107,0.44370064,-0.08487043
104,1437233614986,0.19357789,0.24700204,-0.1557308
105,1437233615006,0.19632678,-0.013837423,-0.236365
106,1437233615026,0.13676742,0.2146262,-0.14504066
107,1437233615045,-0.03885634,0.4742439,0.07731429
108,1437233615067,-0.2547972,0.6779674,0.10419236
109,1437233615090,-0.3650584,0.91284513,-0.053105436
110,1437233615150,-0.30305555,0.86122704,-0.12091148
111,1437233615151,-0.0712322,0.7488278,-0.018896982
112,1437233615152,0.03383662,0.52066964,0.14817467
113,1437233615172,0.016426966,0.30442336,0.052879687
114,1437233615185,-0.10360806,0.426291,-0.18016541
115,1437233615218,-0.33207166,0.17369822,-0.20124026
116,1437233615226,-0.46004793,-0.197097,-0.28370708
117,1437233615246,-0.38368976,-0.44755173,-0.39977148
118,1437233615271,0.077818915,-0.35836542,-0.36586845
119,1437233615286,0.23267326,-0.22641852,-0.048523948
120,1437233615307,0.27879357,-0.74595946,0.43833566
121,1437233615328,0.30536622,-1.6381282,0.6105997
122,1437233615345,0.13982174,-2.0385504,0.3705296
123,1437233615365,0.18105514,0.060688138,0.37694368
124,1437233615385,-6.639585e-05,1.9305466,0.18665917
125,1437233615407,-0.05412797,1.4714814,-0.112664804
126,1437233615431,0.1731139,0.44003546,-0.3484588
127,1437233615446,0.06163099,-0.60546046,-0.19849136
128,1437233615467,-0.11185473,-1.135386,-0.13007446
129,1437233615485,0.33499318,-1.0333716,-0.1370994
130,1437233615505,0.47427043,-0.52604795,0.19673845
131,1437233615525,0.23694932,0.8551184,0.2572141
132,1437233615547,0.03689095,2.1529016,0.22911431
133,1437233615567,-0.30122298,2.1480145,0.08189578
134,1437233615623,-0.44783062,1.1929269,0.057766605
135,1437233615625,-0.28350785,0.5179208,0.16650063
136,1437233615626,-0.19035092,0.06801852,0.22880886
137,1437233615649,-0.07398109,-0.07461852,0.20956662
138,1437233615666,0.17525193,-0.022389539,-0.05402173
139,1437233615685,0.25710785,-0.17816016,-0.23789217
140,1437233615706,0.23939279,-0.4698483,-0.30875257
141,1437233615730,0.13768372,-0.81132203,-0.35548374
142,1437233615794,-0.00159356,-0.8760737,-0.3053928
143,1437233615795,0.03566922,-0.0828652,-0.2436954
144,1437233615796,0.2601622,0.3859739,-0.117246285
145,1437233615807,0.19785394,0.22837064,0.12221289
146,1437233615831,-0.18912919,-0.8021591,0.3723622
147,1437233615846,-0.3644475,-1.7960368,0.44291714
148,1437233615872,-0.25815696,-2.2902267,-0.138932
149,1437233615893,-0.053517103,-1.428296,-0.5210282
150,1437233615908,0.2760447,1.1767389,0.02203099
151,1437233615926,0.58147734,1.4204742,0.27370745
152,1437233615945,0.46296945,0.42659643,0.15092357
153,1437233615966,0.09583944,-0.18060362,-0.012482897
154,1437233615986,-0.051073644,0.020371031,-0.17985997
155,1437233616009,-0.13415132,-0.09477707,-0.311196
156,1437233616028,-0.08406037,0.19874367,-0.16550463
157,1437233616049,0.06346358,0.78212,0.15825394
158,1437233616066,0.112943664,0.93483627,0.2920334
159,1437233616117,0.032920327,0.84534454,0.26607165
160,1437233616118,-0.09383421,0.7607397,0.18543744
161,1437233616127,-0.10360806,0.6584197,0.13412477
162,1437233616150,-0.12040685,0.56068134,0.09258592
163,1437233616169,-0.1546153,0.44003546,-0.04394246
164,1437233616186,0.112638235,0.20088172,-0.27576584
165,1437233616206,0.22503746,-0.0074233375,-0.32677308
166,1437233616236,0.15387164,-0.39165756,-0.24888775
167,1437233616245,0.06499076,-0.65585685,-0.11632998
168,1437233616265,0.07720806,-0.924943,-0.050661974
169,1437233616285,0.25771874,-0.5049731,-0.032641448
170,1437233616305,0.40585357,-0.15006039,0.010424551
171,1437233616325,0.30689338,-0.5407087,0.083117515
172,1437233616345,0.09003623,-1.6304923,0.036386322
173,1437233616365,-0.0037315898,-2.9698143,-0.2763767
174,1437233616385,-0.11979598,-2.1573637,-0.32830024
175,1437233616406,-0.02022495,1.4849204,0.06631872
176,1437233616426,-0.016559757,2.2368956,0.024779882
177,1437233616446,-0.057182297,0.61260486,0.0046213306
178,1437233616466,-0.14423059,-0.39226845,0.0464656
179,1437233616487,0.077818915,-1.0541409,-0.14656782
180,1437233616505,0.4192926,-1.2389277,-0.1651992
181,1437233616525,0.5090898,-0.4472463,0.069678485
182,1437233616545,0.3658419,1.1495554,0.28134328
183,1437233616566,0.08270584,1.8205909,0.20040365
184,1437233616585,-0.17996621,1.8233398,0.10388693
185,1437233616606,-0.43805677,1.4760629,0.058682907
186,1437233616625,-0.4343916,0.49256986,0.13229217
187,1437233616645,-0.25907326,-0.0019255504,0.24774571
188,1437233616665,-0.13842738,0.2830431,0.27737266
189,1437233616688,0.009707447,0.5148664,0.14817467
190,1437233616705,0.1572314,0.6568926,-0.17069699
191,1437233616726,0.20701692,0.5481586,-0.37625316
192,1437233616752,0.18502577,-0.07614568,-0.39183024
193,1437233616766,0.13615654,-0.6583003,-0.28889942
194,1437233616785,0.18960726,-1.0229869,-0.13129619
195,1437233616805,0.34232357,-0.45854732,-0.069293365
196,1437233616825,0.5503232,0.024036221,0.016838636
197,1437233616845,0.40218836,-0.04865674,0.12679438
198,1437233616865,0.076291755,-0.6671578,0.17810707
199,1437233616885,-0.09413964,-1.9023273,-0.013704628
200,1437233616905,-0.16072395,-2.529686,-0.35945436
201,1437233616925,-0.14361973,-0.15250385,-0.27484953
202,1437233616946,-0.14392516,1.4461305,-0.09983663
203,1437233616966,-0.15889136,0.31083745,-0.0048470814
204,1437233616988,-0.16133483,-0.43808332,0.015006039
205,1437233617005,0.011540044,-0.008339636,0.11213362
206,1437233617026,0.22045594,0.6877413,0.20529057
207,1437233617047,0.33743665,0.57473123,0.1203803
208,1437233617066,0.23053524,0.15048534,-0.01401006
209,1437233617087,0.06896138,-0.5379598,-0.0256165
210,1437233617106,0.097672045,-1.0834625,-0.020729577
211,1437233617126,0.032920327,-0.7511518,0.07059477
212,1437233617146,-0.15614247,0.3804761,0.20895576
213,1437233617166,-0.3219924,1.5548645,0.25507608
214,1437233617186,-0.34398353,1.709108,0.23949902
215,1437233617206,-0.2593787,1.3340367,0.2721803
216,1437233617226,-0.1827151,0.5658737,0.14695294
217,1437233617246,-0.010451106,-0.002536416,-0.30875257
218,1437233617266,0.00787485,0.03075574,-0.5149196
219,1437233617286,-0.115825355,-0.18640685,-0.47826767
220,1437233617307,-0.15217184,-0.61126363,-0.38541615
221,1437233617326,0.09339598,-0.72060853,-0.35090226
222,1437233617346,0.5772013,-0.20625997,-0.25743985
223,1437233617366,0.43853486,0.2952604,0.047381897
224,1437233617386,0.37103423,-0.52604795,0.30761048
225,1437233617406,0.4089079,-1.9408119,0.106024966
226,1437233617426,0.04849739,-2.6775153,-0.46330145
227,1437233617446,-0.217229,-0.63844717,-0.18138713
228,1437233617466,-0.066039845,1.4314697,-0.082426965
229,1437233617486,0.013983503,0.75737995,-0.09128451
230,1437233617506,0.0066531226,0.16270263,0.09808372
231,1437233617526,0.1553988,0.32091674,0.28958994
232,1437233617546,0.31636178,0.6373449,0.108163
233,1437233617566,0.43578595,0.28976262,-0.127631
234,1437233617586,0.5622351,-0.18946117,-0.38144553
235,1437233617610,0.4754922,-0.86507815,-0.35395658
236,1437233617627,0.31605637,-1.2529776,-0.10838874
237,1437233617649,-0.032747686,-0.5153578,0.13504106
238,1437233617670,-0.37666482,0.8367924,0.21567528
239,1437233617692,-0.5324354,1.7448436,0.19796018
240,1437233617711,-0.42431232,1.7674456,0.25385433
241,1437233617731,-0.009840241,1.3135728,0.40473807
242,1437233617747,0.1327968,0.3682588,0.32471472
243,1437233617792,0.20671149,-0.26184872,-0.06379558
244,1437233617793,0.20732234,0.07748693,-0.44375378
245,1437233617809,0.15356621,0.15079075,-0.5509606
246,1437233617917,0.07048854,-0.19679156,-0.4477244
247,1437233617918,0.09186882,-0.69189787,-0.3194427
248,1437233617919,0.32063785,-0.39440647,-0.24308452
249,1437233617920,0.35240284,0.07076742,-0.08303784
250,1437233617924,0.050635416,-0.07614568,0.14695294
251,1437233617976,-0.05046278,-0.9615948,0.2581304
252,1437233617977,-0.07886802,-1.8467386,-0.1285473
253,1437233617978,-0.22303222,-1.892859,-0.41901374
254,1437233618062,-0.3400129,0.45286363,0.031804834
255,1437233618063,-0.27006882,0.5866431,0.24255334
256,1437233618064,-0.2996958,-0.3937956,0.29814208
257,1437233618065,-0.21509096,0.6196298,0.4615485
258,1437233618084,0.11050022,1.8493016,0.44749862
259,1437233618088,0.2659654,1.3346475,-0.010955734
260,1437233618107,0.3811135,0.213099,-0.5506552
261,1437233618127,0.42295778,-1.1191981,-0.5888342
262,1437233618147,0.41165677,-1.6384336,-0.26843545
263,1437233618167,0.2946761,-1.5568831,0.3106648
264,1437233618188,0.03383662,-0.22458592,0.37969258
265,1437233618214,-0.2593787,1.7210199,0.33204508
266,1437233618230,-0.4924238,2.6440372,0.18391028
267,1437233618256,-0.3476487,2.0780706,0.09961088
268,1437233618270,-0.15522617,0.741192,0.16039197
269,1437233618288,0.09553401,-0.8155981,0.19673845
270,1437233618307,0.30780968,-0.51077634,-0.025311068
271,1437233618328,0.3866113,0.100394376,-0.3869433
272,1437233618348,0.2751284,0.15140162,-0.5714246
273,1437233618373,0.14867929,-0.4435811,-0.5979972
274,1437233618387,0.25710785,-0.65585685,-0.5301912
275,1437233618406,0.27970988,-0.36600122,-0.29164833
276,1437233618427,-0.10757868,-0.36050344,0.14939639
277,1437233618448,-0.3051936,-1.0596387,0.4584942
278,1437233618471,-0.12346117,-1.6653117,0.17077668
279,1437233618488,-0.16194569,-1.4337937,-0.34418273
280,1437233618508,-0.05840403,0.7662375,-0.1642829
281,1437233618527,0.18563664,0.84259564,0.034553725
282,1437233618549,0.33285517,0.36153927,0.15428331
283,1437233618568,0.25863504,0.6773566,0.32868534
284,1437233618589,0.028644267,1.1617727,0.26607165
285,1437233618607,-0.06329095,0.5698443,-0.009734003
286,1437233618629,-0.11643623,-0.37455335,-0.44222662
287,1437233618651,-0.08833642,-1.2664167,-0.4907904
288,1437233618672,0.22076139,-1.3140641,0.006148493
289,1437233618688,0.42326322,-0.43930507,0.29722577
290,1437233618708,0.07171027,0.66544473,0.32685274
291,1437233618732,-0.2416636,1.8321973,0.18604831
292,1437233618747,-0.4456926,1.9882734,0.011340849
293,1437233618809,-0.42370144,1.4018427,0.09136419
294,1437233618810,-0.28228614,0.385363,0.29142255
295,1437233618811,-0.22455938,-0.47901133,0.20590143
296,1437233618835,-0.25357547,-0.10210746,-0.052189138
297,1437233618850,-0.21234207,0.33466122,-0.3325763
298,1437233618876,-0.14850666,0.28059962,-0.3823618
299,1437233618888,-0.11338189,-0.10485635,-0.34418273
300,1437233618910,-0.02144668,-0.59751916,-0.32677308
301,1437233618929,0.15784226,-0.56728137,-0.29684067
302,1437233618950,-0.026944466,-0.38218915,-0.12304951
303,1437233618971,-0.32565758,-0.6634926,0.096251115
304,1437233618988,-0.3494813,-1.3525486,-0.001792755
305,1437233619015,-0.15492074,-2.7862494,-0.19329901
306,1437233619031,0.09156339,-0.30827448,0.14573121
307,1437233619048,0.44891956,2.1244965,0.46185395
308,1437233619068,0.12057948,1.964755,0.34365153
309,1437233619089,0.1572314,1.2589003,0.42886722
310,1437233619109,0.22870263,0.5857268,0.34945476
311,1437233619131,0.0982829,-0.35592195,0.13717909
312,1437233619152,-0.25632435,-0.9136419,-0.28981572
313,1437233619171,-0.39071473,-1.3562138,-0.8154653
314,1437233619189,0.0011553355,-2.0813107,-0.4581091
315,1437233619220,0.42723384,-0.8772955,0.34365153
316,1437233619269,0.3921091,0.98217833,0.6915393
317,1437233619270,-0.034885716,2.3737295,0.45024753
318,1437233619271,-0.4915075,2.4210715,0.09258592
319,1437233619290,-0.50067043,1.2775316,0.043411274
320,1437233619314,-0.39071473,0.100394376,0.06876218
321,1437233619332,-0.3644475,-0.3995988,0.08647728
322,1437233619349,-0.3174109,0.038086124,0.01714407
323,1437233619371,-0.06298552,0.51975334,-0.076318316
324,1437233619391,0.12210664,0.46966243,-0.14565152
325,1437233619410,0.1694487,-0.12868008,-0.17161329
326,1437233619430,0.16334005,-0.54681736,-0.15176018
327,1437233619450,0.13737828,-0.7099184,-0.13373965
328,1437233619475,-0.045270424,-0.46404508,-0.21254127
329,1437233619492,-0.24716139,-0.45793644,-0.44619724
330,1437233619510,-0.47684672,-0.872714,-0.48773608
331,1437233619529,-0.1460632,-2.0205297,-0.6755771
332,1437233619550,0.10439156,-1.2755796,-0.037528373
333,1437233619573,0.2387819,1.2063658,0.22392195
334,1437233619594,-0.025111873,1.2970793,0.116104245
335,1437233619614,-0.12132315,1.0182195,0.27248573
336,1437233619631,0.22412115,1.0173031,0.6099888
337,1437233619649,0.43364793,1.0166923,0.70314574
338,1437233619670,0.54513085,0.84015214,0.58585966
339,1437233619688,0.576285,0.33893725,0.25202173
340,1437233619713,0.5542938,-0.25390747,-0.016453521
341,1437233619732,0.4889312,-0.4890906,-0.15267646
342,1437233619783,0.3762266,-0.4341127,-0.28523424
343,1437233619784,0.19510505,-0.24627164,-0.34418273
344,1437233619800,-0.01564346,-0.5132198,-0.28523424
345,1437233619825,-0.3100805,-1.138135,-0.19177185
346,1437233619829,-0.104218915,-2.0892522,-0.23850304
347,1437233619849,0.24947205,-1.5254235,0.05990463
348,1437233619876,0.28704026,0.82671314,0.26515535
349,1437233619891,0.050329987,1.9094718,0.13748452
350,1437233619913,-0.21295294,1.7033048,-0.07326399
351,1437233619936,-0.20104107,0.64864594,-0.012482897
352,1437233619951,-0.10788411,-0.20015132,0.06540242
353,1437233619970,0.022535618,-0.603017,0.12648895
354,1437233619989,0.13737828,-0.77711356,0.09533481
355,1437233620009,0.32491392,-0.54651195,0.053795982
356,1437233620029,0.39363626,-0.039188333,-0.026227364
357,1437233620049,0.27818272,0.3374101,-0.15939598
358,1437233620072,0.14104347,0.11291712,-0.320359
359,1437233620096,-0.1387328,-0.86202383,-0.4758242
360,1437233620123,-0.42767206,-1.566657,-0.5857799
361,1437233620176,0.67066365,-1.9212642,-0.0002655927
362,1437233620177,0.934252,0.44919845,0.50553083
363,1437233620178,0.63126284,2.691074,0.31830063
364,1437233620189,-0.07153763,1.9128315,0.2101775
365,1437233620217,-0.29633605,0.8523695,0.24224792
366,1437233620229,-0.25815696,0.32488737,0.15153442
367,1437233620260,-0.18088251,0.012735214,0.12312919
368,1437233620272,-0.08742013,0.1193312,0.08708814
369,1437233620289,0.084538445,0.23783904,0.08892073
370,1437233620309,0.20548975,0.3746729,0.0632644
371,1437233620329,0.31300205,0.5649574,-0.12335494
372,1437233620349,0.3472105,0.27449098,-0.3166938
373,1437233620369,0.24366882,-0.3021658,-0.32524592
374,1437233620392,0.16792154,-0.5034459,-0.32860568
375,1437233620409,0.101031795,-0.63172764,-0.30600366
376,1437233620429,0.16517265,-0.26795736,-0.28889942
377,1437233620450,0.2836805,0.41254652,-0.24980403
378,1437233620470,0.16792154,0.17094931,-0.19726963
379,1437233620489,-0.3650584,-0.41670305,-0.06715533
380,1437233620509,-0.38033003,-2.2523532,-0.646561
