id,attr_time,attr_x,attr_y,attr_z
1,1436890975209,0.021547815,10.12448,1.2761095
2,1436890975227,0.019153614,10.088568,1.2737153
3,1436890975249,-0.0005985504,10.0987425,1.2659341
4,1436890975267,-0.044292733,10.110115,1.246182
5,1436890975295,-0.05805939,10.129269,1.2306197
6,1436890975310,-0.05566519,10.140042,1.2312182
7,1436890975330,-0.060453594,10.135853,1.216853
8,1436890975348,-0.08738836,10.1460285,1.2413936
9,1436890975370,-0.05805939,10.140641,1.3162124
10,1436890975390,-0.0724246,10.146626,1.3359646
11,1436890975407,-0.08619126,10.201694,1.2731167
12,1436890975428,-0.11731588,10.150817,1.2401965
13,1436890975448,-0.12868834,10.097546,1.2575544
14,1436890975470,-0.090979666,10.059837,1.3024458
15,1436890975488,-0.08798691,10.0903635,1.276708
16,1436890975508,-0.05805939,10.113108,1.2623428
17,1436890975529,-0.05207389,10.135254,1.2503718
18,1436890975552,-0.05925649,10.162787,1.22224
19,1436890975619,-0.08439561,10.160394,1.2964603
20,1436890975620,-0.092775315,10.143634,1.3108255
21,1436890975621,-0.094570965,10.117896,1.316811
22,1436890975629,-0.14425065,10.143634,1.2629414
23,1436890975656,-0.17956513,10.191518,1.2449849
24,1436890975668,-0.14903906,10.132261,1.2940661
25,1436890975690,-0.10295067,10.086173,1.3311762
26,1436890975710,-0.12868834,10.1161,1.3347675
27,1436890975729,-0.19153613,10.128072,1.2964603
28,1436890975750,-0.24241292,10.099341,1.2755109
29,1436890975768,-0.23403321,10.078991,1.2826935
30,1436890975791,-0.2813187,10.065224,1.2970588
31,1436890975808,-0.2681506,10.071808,1.2886791
32,1436890975831,-0.22685061,10.089166,1.2761095
33,1436890975851,-0.13706805,10.116699,1.282095
34,1436890975868,-0.1316811,10.135853,1.2593501
35,1436890975891,-0.09816227,10.160394,1.2563573
36,1436890975911,-0.08200141,10.149021,1.2814964
37,1436890975930,-0.074220255,10.14124,1.2922704
38,1436890975951,-0.074220255,10.155605,1.3120226
39,1436890975971,-0.08020575,10.160992,1.2940661
40,1436890975989,-0.09876082,10.152613,1.2797008
41,1436890976011,-0.11133038,10.096947,1.2575544
42,1436890976030,-0.108337626,10.0903635,1.2802993
43,1436890976051,-0.11791443,10.116699,1.2569559
44,1436890976073,-0.11791443,10.129868,1.2808979
45,1436890976088,-0.107140526,10.125079,1.2749124
46,1436890976110,-0.11791443,10.113108,1.2802993
47,1436890976130,-0.107739076,10.129269,1.299453
48,1436890976152,-0.11252748,10.086772,1.323395
49,1436890976171,-0.110731825,10.061034,1.3174095
50,1436890976189,-0.12330139,10.116699,1.3257892
51,1436890976210,-0.19273324,10.127473,1.3365631
52,1436890976235,-0.2100912,10.155006,1.3078327
53,1436890976259,-0.23523031,10.147824,1.3389573
54,1436890976309,-0.2208651,10.155605,1.371279
55,1436890976310,-0.27712885,10.180744,1.3664906
56,1436890976311,-0.28670564,10.198701,1.3311762
57,1436890976329,-0.22864626,10.096947,1.3455414
58,1436890976348,-0.1592144,10.060435,1.3449428
59,1436890976369,-0.17178397,10.041881,1.271321
60,1436890976389,-0.15382746,10.011953,1.2036849
61,1436890976409,-0.10594343,10.015544,1.2384008
62,1436890976428,-0.0676362,10.049063,1.3072342
63,1436890976451,-0.04129998,10.142437,1.3503298
64,1436890976469,0.0053869537,10.209475,1.3024458
65,1436890976489,0.045489833,10.207679,1.323395
66,1436890976508,0.021547815,10.166978,1.34195
67,1436890976531,-0.047285482,10.16578,1.3443443
68,1436890976552,-0.09935937,10.070012,1.3628993
69,1436890976572,-0.15622166,10.089765,1.3383588
70,1436890976589,-0.2148796,10.102933,1.3036429
71,1436890976611,-0.219668,10.113108,1.2719196
72,1436890976632,-0.19393034,10.140641,1.2719196
73,1436890976651,-0.14903906,10.097546,1.3293805
74,1436890976672,-0.10474633,10.084377,1.3623008
75,1436890976689,-0.11971009,10.065823,1.3377602
76,1436890976711,-0.18375498,10.0664215,1.2695254
77,1436890976733,-0.2112883,10.088568,1.240795
78,1436890976749,-0.2148796,10.08737,1.3042414
79,1436890976772,-0.15622166,10.113108,1.3455414
80,1436890976792,-0.12749124,10.115502,1.3724761
81,1436890976812,-0.11791443,10.098145,1.3850456
82,1436890976833,-0.11252748,10.109517,1.3395559
83,1436890976851,-0.16160862,10.11251,1.292869
84,1436890976872,-0.2100912,10.134057,1.2755109
85,1436890976889,-0.2160767,10.107122,1.3449428
86,1436890976911,-0.2148796,10.113707,1.3724761
87,1436890976934,-0.24121583,10.184336,1.3329718
88,1436890976953,-0.24361002,10.17835,1.3210008
89,1436890976976,-0.18854338,10.147225,1.3042414
90,1436890977004,-0.18794483,10.115502,1.3365631
91,1436890977020,-0.14604631,10.064626,1.3239936
92,1436890977088,-0.12389994,10.135254,1.2443863
93,1436890977089,-0.107739076,10.135853,1.1845313
94,1436890977090,-0.08678981,10.119692,1.2198458
95,1436890977091,-0.11791443,10.09575,1.270124
96,1436890977110,-0.16340427,10.103531,1.282095
97,1436890977129,-0.18734628,10.126276,1.2569559
98,1436890977149,-0.17178397,10.16578,1.2569559
99,1436890977171,-0.15023616,10.1699705,1.270124
100,1436890977193,-0.1592144,10.220847,1.2563573
101,1436890977209,-0.16220717,10.149021,1.3024458
102,1436890977229,-0.13946225,10.108918,1.3275849
103,1436890977251,-0.20649989,10.1143055,1.2785037
104,1436890977270,-0.25438392,10.118495,1.2611457
105,1436890977291,-0.28311434,10.115502,1.2354081
106,1436890977312,-0.26276365,10.104729,1.2802993
107,1436890977333,-0.2100912,10.072407,1.2910733
108,1436890977352,-0.20111294,10.097546,1.3000516
109,1436890977372,-0.19692309,10.132261,1.2802993
110,1436890977391,-0.1921347,10.134057,1.2725182
111,1436890977412,-0.18734628,10.123283,1.2964603
112,1436890977433,-0.2148796,10.107122,1.3156139
113,1436890977452,-0.19692309,10.11251,1.3018472
114,1436890977473,-0.18315643,10.10413,1.2922704
115,1436890977489,-0.14664486,10.073005,1.2797008
116,1436890977513,-0.14185645,10.096947,1.3198037
117,1436890977533,-0.13587095,10.1143055,1.34195
118,1436890977552,-0.0796072,10.149619,1.3239936
119,1436890977572,-0.05746084,10.189124,1.3449428
120,1436890977591,-0.08798691,10.187328,1.3162124
121,1436890977612,-0.13587095,10.171167,1.316811
122,1436890977633,-0.12689269,10.077793,1.3706805
123,1436890977652,-0.107739076,10.086173,1.3784616
124,1436890977672,-0.10354923,10.073005,1.2982559
125,1436890977692,-0.10115502,10.040684,1.2354081
126,1436890977713,-0.14903906,10.007763,1.2826935
127,1436890977732,-0.16460137,10.043676,1.3383588
128,1436890977751,-0.14963761,10.096947,1.3305776
129,1436890977820,-0.12749124,10.143036,1.2731167
130,1436890977821,-0.14185645,10.1143055,1.2228385
131,1436890977822,-0.2220622,10.118495,1.2162545
132,1436890977830,-0.2885013,10.178948,1.2312182
133,1436890977857,-0.22864626,10.245388,1.2653356
134,1436890977870,-0.11133038,10.228628,1.292869
135,1436890977890,-0.14065935,10.218452,1.283292
136,1436890977925,-0.20410569,10.1699705,1.2659341
137,1436890977930,-0.29149407,10.131064,1.2204443
138,1436890977953,-0.3250129,10.157999,1.2425907
139,1436890977971,-0.20470424,10.157999,1.2605472
140,1436890977993,-0.038307227,10.128072,1.2791022
141,1436890978010,0.044891283,10.1161,1.246182
142,1436890978033,0.038905777,10.152014,1.2366052
143,1436890978053,-0.044891283,10.170568,1.2485762
144,1436890978073,-0.06464344,10.173561,1.2509704
145,1436890978092,-0.08559271,10.093954,1.2808979
146,1436890978113,-0.077213004,10.070012,1.2808979
147,1436890978133,-0.1364695,10.125677,1.270124
148,1436890978153,-0.11971009,10.202292,1.2856863
149,1436890978172,-0.039504327,10.238205,1.3359646
150,1436890978190,0.034715924,10.190321,1.401805
151,1436890978213,-0.01616086,10.131064,1.3892355
152,1436890978234,-0.2160767,10.077195,1.3299791
153,1436890978252,-0.37948096,10.039486,1.3036429
154,1436890978273,-0.40282443,9.968259,1.340753
155,1436890978291,-0.3196259,10.01734,1.3706805
156,1436890978314,-0.25737667,10.058042,1.3036429
157,1436890978333,-0.22146365,10.071808,1.2737153
158,1436890978354,-0.21787235,10.088568,1.3006501
159,1436890978373,-0.25079262,10.0987425,1.3730747
160,1436890978390,-0.25438392,10.078392,1.3928268
161,1436890978413,-0.24301147,10.107721,1.3670892
162,1436890978433,-0.19692309,10.129269,1.3772645
163,1436890978453,-0.15263036,10.118495,1.4161704
164,1436890978472,-0.12569559,10.136452,1.4598645
165,1436890978544,-0.061052144,10.128671,1.4496891
166,1436890978545,0.04129998,10.0508585,1.4377182
167,1436890978546,0.07182605,10.057443,1.4012065
168,1436890978554,0.088585466,10.0341,1.353921
169,1436890978573,0.06284779,10.059238,1.3198037
170,1436890978594,0.073023155,10.085575,1.2521675
171,1436890978610,0.11312603,10.102334,1.2737153
172,1436890978636,0.1436521,10.0987425,1.3096284
173,1436890978652,0.18315643,10.129269,1.3617022
174,1436890978671,0.12749124,10.157401,1.3670892
175,1436890978696,0.10235212,10.1621895,1.3718776
176,1436890978711,0.045489833,10.162787,1.3688848
177,1436890978733,-0.04189853,10.188525,1.3180081
178,1436890978753,-0.10474633,10.168175,1.2880806
179,1436890978774,-0.108337626,10.157999,1.2850877
180,1436890978793,-0.074818805,10.1143055,1.2797008
181,1436890978814,-0.035314474,10.11251,1.292869
182,1436890978834,-0.050876785,10.080787,1.2785037
183,1436890978854,-0.035314474,10.080787,1.2802993
184,1436890978874,-0.08678981,10.095152,1.2904748
185,1436890978893,-0.12389994,10.133459,1.3012487
186,1436890978914,-0.15442601,10.157401,1.3299791
187,1436890978932,-0.17417817,10.212467,1.3066356
188,1436890978953,-0.14903906,10.187328,1.2970588
189,1436890978973,-0.051475335,10.110115,1.3455414
190,1436890978993,0.05626374,10.090961,1.3569138
191,1436890979013,0.047884032,10.102334,1.2635399
192,1436890979033,0.03172317,10.135853,1.1623849
193,1436890979053,-0.0011971008,10.133459,1.1899183
194,1436890979074,-0.036511578,10.084377,1.2964603
195,1436890979093,-0.08559271,10.075399,1.3341689
196,1436890979114,-0.10115502,10.11251,1.2952632
197,1436890979135,-0.107739076,10.116699,1.2719196
198,1436890979155,-0.08619126,10.110115,1.2336124
199,1436890979173,-0.11372458,10.123283,1.2689269
200,1436890979286,-0.108337626,10.118495,1.2779051
201,1436890979287,-0.076015905,10.090961,1.2862848
202,1436890979288,-0.009576807,10.103531,1.2904748
203,1436890979289,0.047884032,10.101137,1.2707225
204,1436890979300,0.05207389,10.125677,1.2366052
205,1436890979301,0.050876785,10.144831,1.2174516
206,1436890979332,0.038307227,10.17416,1.2611457
207,1436890979333,0.031124622,10.156802,1.2838906
208,1436890979351,-0.0047884034,10.142437,1.2557588
209,1436890979376,-0.06284779,10.152014,1.2533646
210,1436890979391,-0.0712275,10.129269,1.2360066
211,1436890979415,-0.061052144,10.131064,1.2318168
212,1436890979436,0.008978256,10.118495,1.2366052
213,1436890979452,0.0700304,10.113108,1.2491747
214,1436890979472,0.110731825,10.129868,1.246182
215,1436890979494,0.1340753,10.146626,1.2485762
216,1436890979514,0.1388637,10.121488,1.2443863
217,1436890979534,0.10474633,10.125079,1.2611457
218,1436890979555,0.076614454,10.115502,1.2108675
219,1436890979574,0.02932897,10.120889,1.2330139
220,1436890979595,-0.0053869537,10.1143055,1.1976994
221,1436890979614,-0.037708677,10.127473,1.210269
222,1436890979634,-0.05327099,10.129868,1.2312182
223,1436890979655,-0.060453594,10.120889,1.2575544
224,1436890979673,-0.04129998,10.103531,1.2725182
225,1436890979694,-0.073023155,10.143036,1.276708
226,1436890979712,-0.08020575,10.202292,1.2252327
227,1436890979732,-0.062249243,10.126276,1.2545617
228,1436890979751,0.04309563,10.09156,1.2976574
229,1436890979777,0.038905777,10.101137,1.228824
230,1436890979797,0.04189853,10.097546,1.1300632
231,1436890979817,0.048482586,10.096947,1.1252748
232,1436890979835,0.048482586,10.10413,1.18094
233,1436890979852,0.01616086,10.119094,1.2228385
234,1436890979872,-0.009576807,10.110115,1.2126632
235,1436890979891,-0.0676362,10.115502,1.1623849
236,1436890979914,-0.05805939,10.143634,1.163582
237,1436890979936,-0.04070143,10.174759,1.1881226
238,1436890979998,-0.05626374,10.187927,1.1994951
239,1436890979999,-0.065242,10.177752,1.2252327
240,1436890980000,-0.07062895,10.192117,1.2485762
241,1436890980012,-0.109534726,10.16578,1.2707225
242,1436890980036,-0.18076223,10.134057,1.2623428
243,1436890980052,-0.21068975,10.092757,1.2144588
244,1436890980079,-0.2693477,10.023325,1.2264298
245,1436890980093,-0.31663316,9.961675,1.292869
246,1436890980114,-0.38307226,9.950901,1.2826935
247,1436890980133,-0.39205053,10.0508585,1.2348095
248,1436890980153,-0.3669114,10.221446,1.1815386
249,1436890980174,-0.2657564,10.260351,1.2024878
250,1436890980194,-0.1376666,10.210073,1.3395559
251,1436890980213,-0.10115502,10.151415,1.3215994
252,1436890980234,-0.090381116,10.149619,1.2437878
253,1436890980253,-0.08259996,10.134656,1.2024878
254,1436890980273,-0.094570965,9.9790325,1.2162545
255,1436890980295,0.024540568,9.951499,1.1671734
256,1436890980315,0.10534488,9.921572,1.1145009
257,1436890980335,0.17597382,9.949105,1.1941081
258,1436890980355,0.2112883,9.922171,1.2413936
259,1436890980373,0.23403321,9.903615,1.2749124
260,1436890980394,0.10414778,10.070611,1.2419921
261,1436890980416,-0.130484,10.005369,1.0815806
262,1436890980434,-0.06344634,9.832388,1.0606314
263,1436890980454,0.51235914,9.625888,1.3742718
264,1436890980474,0.9068039,9.632472,1.5987282
265,1436890980495,1.3844471,9.788095,1.6681601
266,1436890980515,1.4251486,10.092158,1.4730326
267,1436890980535,1.3856442,10.505158,1.6232687
268,1436890980555,1.1905168,10.924743,1.7316064
269,1436890980575,0.7158663,11.173141,1.4185646
270,1436890980592,-0.053869538,11.271901,0.93732995
271,1436890980612,-0.9648633,11.186908,0.741604
272,1436890980632,-1.4239515,10.927136,0.9768343
273,1436890980652,-1.3856442,10.863091,0.63087213
274,1436890980688,-1.5245079,10.549451,0.45310268
275,1436890980699,-1.3096284,10.231621,0.81761986
276,1436890980713,-1.0809821,9.702502,0.9223662
277,1436890980733,-0.7266402,9.752781,0.9684546
278,1436890980753,-0.6572084,9.802461,0.39983168
279,1436890980773,-0.58119243,9.552266,0.36990416
280,1436890980793,-0.14844051,9.547478,0.8559271
281,1436890980825,0.3417723,9.870096,0.7541735
282,1436890980842,0.55485624,10.005967,0.5722142
283,1436890980853,0.6877344,10.086772,0.37828386
284,1436890980879,0.7529764,10.232818,0.21667525
285,1436890980893,0.78050977,10.198701,0.29568392
286,1436890980913,0.84335756,10.213066,0.6799533
287,1436890980936,0.80445176,10.17835,0.54408234
288,1436890980956,0.7763199,10.416573,0.52971715
289,1436890980976,0.4950012,10.863091,0.4225766
290,1436890980996,0.51714754,11.332953,0.1388637
291,1436890981019,0.18614918,11.474811,0.2681506
292,1436890981033,0.19692309,11.546637,0.11911154
293,1436890981053,0.46507367,11.841123,0.14425065
294,1436890981074,0.21308395,12.103288,0.22744916
295,1436890981096,0.42796355,12.712612,0.20530279
296,1436890981113,0.48123455,13.046603,0.05267244
297,1436890981136,0.54049104,13.821128,0.14065935
298,1436890981157,0.86011696,14.279019,-0.0047884034
299,1436890981173,1.2150574,14.013263,0.26874915
300,1436890981195,1.8177977,13.918692,0.78170687
301,1436890981213,2.4366987,12.837709,1.0845734
302,1436890981237,3.020884,10.761338,1.543063
303,1436890981257,3.8534677,8.865729,1.7579426
304,1436890981276,4.5034933,8.591593,1.7040731
305,1436890981297,4.425682,9.114127,1.4347254
306,1436890981316,3.731962,9.405023,1.292869
307,1436890981335,2.9203274,9.680356,1.8010383
308,1436890981355,1.9632454,9.864111,2.2703018
309,1436890981381,0.93732995,9.7958765,2.4875755
310,1436890981436,0.12928689,9.686341,2.6485856
311,1436890981437,-0.4189853,9.8677025,2.3720553
312,1436890981438,-0.65182143,10.152613,2.0231004
313,1436890981455,-0.66498953,10.111312,1.8561049
314,1436890981480,-0.62488663,9.710283,1.8800468
315,1436890981494,-0.7404069,9.255983,1.8483237
316,1436890981514,-0.9816227,8.886678,1.5185224
317,1436890981547,-1.1115081,8.585009,1.0815806
318,1436890981555,-1.1043255,8.129512,0.973243
319,1436890981575,-0.7517793,7.9152308,1.1659763
320,1436890981595,-0.33159694,7.9278,1.353921
321,1436890981614,0.006584055,8.1959505,1.3850456
322,1436890981635,0.1352724,8.492233,1.282095
323,1436890981655,0.13946225,8.683171,1.282095
324,1436890981676,0.10594343,8.875904,1.4676456
325,1436890981695,0.020350715,9.249998,1.8171991
326,1436890981716,-0.16998832,9.632472,2.1290438
327,1436890981736,-0.4878186,9.858724,2.4486697
328,1436890981756,-0.6781576,10.00896,2.6719291
329,1436890981776,-1.0564415,10.523115,2.7940333
330,1436890981796,-1.4203602,11.641806,2.9640217
331,1436890981816,-1.7537527,12.953828,2.5959132
332,1436890981835,-1.8788497,14.2042,2.3307555
333,1436890981856,-1.6573862,15.456966,2.046444
334,1436890981876,-1.5460558,14.850036,1.5951369
335,1436890981897,-1.2802993,12.472593,1.6819267
336,1436890981917,-0.581791,10.784681,1.5717934
337,1436890981937,-0.2753332,9.564238,0.8870517
338,1436890981956,-0.25737667,8.765172,0.22146365
339,1436890981976,-0.074220255,8.297106,0.05267244
340,1436890982028,0.4441244,8.504205,0.06404489
341,1436890982029,0.7080852,8.882488,-0.015562311
342,1436890982034,0.59256494,9.022549,0.18136078
343,1436890982057,0.46327803,9.422979,0.39624038
344,1436890982075,0.22625206,9.841965,0.30466217
345,1436890982094,-0.27712885,10.041282,0.3645172
346,1436890982121,-0.61770403,9.806051,0.712275
347,1436890982187,-0.7942764,9.407417,0.98222125
348,1436890982188,-0.74998367,9.166202,0.94211835
349,1436890982189,-0.60214174,9.151836,0.8086416
350,1436890982229,-0.3866636,8.979453,0.7290344
351,1436890982230,-0.110731825,8.6334915,0.9032126
352,1436890982243,0.23044191,8.422203,1.0660183
353,1436890982258,0.52492875,8.757391,0.9367314
354,1436890982276,0.7026982,9.776124,0.5955577
355,1436890982294,0.89184016,11.098921,0.45070848
356,1436890982316,1.027711,11.687894,0.6739678
357,1436890982334,1.2378023,11.5951185,0.98820674
358,1436890982356,1.5005659,11.828553,1.0450691
359,1436890982375,1.7914615,12.532449,0.6769605
360,1436890982395,1.9321208,12.896966,0.4285621
361,1436890982418,2.2631192,13.342886,0.28790274
362,1436890982436,2.6982653,13.588292,0.7332243
363,1436890982457,3.4638114,13.509283,1.1941081
364,1436890982477,3.7475243,11.662156,1.9895816
365,1436890982497,3.5835214,9.547478,2.846706
366,1436890982517,3.3464954,8.054094,2.9724014
367,1436890982537,3.2213984,7.86615,2.2697031
368,1436890982557,2.6862943,8.34918,1.4431051
369,1436890982576,1.8674773,8.693346,1.6597804
370,1436890982598,1.2904748,9.108142,2.2619221
371,1436890982616,0.8583213,9.354146,2.5558102
372,1436890982637,0.4794389,9.394848,2.5701754
373,1436890982656,0.22385786,9.431957,2.272696
374,1436890982675,0.25498247,9.404425,2.0679917
375,1436890982694,0.3633201,8.929773,2.047641
376,1436890982715,0.53929394,8.122928,1.9452889
377,1436890982737,0.6422446,7.597999,1.7896658
378,1436890982758,0.5315128,7.3765354,1.4975731
379,1436890982777,0.36272156,7.477092,1.1755531
380,1436890982796,0.27114335,7.629722,1.2395979
381,1436890982817,0.37349546,7.9451585,1.4359225
382,1436890982837,0.4830302,8.478467,1.7609353
383,1436890982857,0.42916065,9.139865,2.2290018
384,1436890982880,0.24061728,9.677961,2.6042929
385,1436890982955,-0.022744916,10.08318,2.7473464
386,1436890982956,-0.065242,10.645818,3.032855
387,1436890982957,-0.062249243,10.894217,3.2932243
388,1436890982958,-0.1921347,10.85531,3.469797
389,1436890982976,-0.46746787,10.8948145,3.5936968
390,1436890982997,-0.64823014,10.870275,3.4530375
391,1436890983014,-0.59735334,11.159374,3.34051
392,1436890983043,-0.61291564,11.518504,3.341707
393,1436890983055,-0.6745663,12.567763,3.2788591
394,1436890983077,-0.7200562,13.726557,3.2435448
395,1436890983098,-0.6835446,14.598046,3.0573955
396,1436890983115,-0.28790274,14.169484,2.5516205
397,1436890983138,0.3369839,12.046426,2.211644
398,1436890983158,0.75836337,10.064626,2.0458453
399,1436890983178,1.1055226,9.471462,1.7058687
400,1436890983196,1.1204864,9.173983,1.0690111
401,1436890983220,1.1240777,8.614338,0.694917
402,1436890983237,1.2467805,8.504803,0.7218518
403,1436890983257,1.2629414,8.996812,0.76434886
404,1436890983276,1.0271125,9.34038,0.6835446
405,1436890983298,0.6787562,9.221268,0.7086837
406,1436890983318,0.5231331,9.112331,0.83617496
407,1436890983338,0.29927522,8.954913,0.9804256
