id,attr_time,attr_x,attr_y,attr_z
1,1436893598016,1.58345,-10.0094,2.30591
2,1436893598036,1.48953,-9.72466,2.42752
3,1436893598056,1.67702,-9.33772,2.46884
4,1436893598075,1.76532,-9.51376,2.5358
5,1436893598095,1.61337,-10.0689,2.50252
6,1436893598115,1.50583,-10.1847,2.54803
7,1436893598133,1.3428,-9.81284,2.80583
8,1436893598155,1.11725,-9.40474,2.93317
9,1436893598173,0.988647,-9.4092,2.90581
10,1436893598194,1.06541,-9.31503,2.91077
11,1436893598214,1.13637,-9.20473,2.89299
12,1436893598233,1.22762,-9.26573,2.97284
13,1436893598252,1.25986,-9.33112,3.1019
14,1436893598272,1.25914,-9.33144,3.03944
15,1436893598292,1.36668,-9.42903,2.98135
16,1436893598312,1.3739,-9.427,3.10889
17,1436893598332,1.39366,-9.27435,3.25772
18,1436893598371,1.51398,-9.06224,3.31712
19,1436893598372,1.61024,-9.02969,3.30875
20,1436893598392,1.72292,-9.37564,3.12198
21,1436893598430,1.87978,-9.42369,3.213
22,1436893598450,2.0108,-9.29721,3.30711
23,1436893598470,2.06175,-9.26404,3.2701
24,1436893598489,2.21175,-9.7196,3.17394
25,1436893598510,2.15504,-9.87795,3.15411
26,1436893598530,2.08817,-9.97694,3.19922
27,1436893598549,2.03056,-9.92584,2.99426
28,1436893598569,2.03246,-9.85916,2.89729
29,1436893598589,1.99109,-9.401,2.89804
30,1436893598608,1.99492,-9.1684,2.92245
31,1436893598628,1.99911,-9.07144,2.9762
32,1436893598648,2.00551,-9.03995,3.00938
33,1436893598667,1.93503,-9.0784,3.06189
34,1436893598688,1.82336,-9.10063,3.12485
35,1436893598707,1.81972,-8.87923,3.2131
36,1436893598727,1.87247,-8.69037,3.36504
37,1436893598747,1.98489,-8.66284,3.38216
38,1436893598765,2.02934,-9.02109,3.31302
39,1436893598787,2.0206,-9.3466,3.25722
40,1436893598805,1.92932,-9.4955,3.59421
41,1436893598826,1.7115,-9.48625,4.17412
42,1436893598846,1.45511,-9.04938,4.83119
43,1436893598866,1.31447,-8.98303,4.6555
44,1436893598885,1.39243,-9.33832,4.26823
45,1436893598905,1.52963,-9.28505,4.08243
46,1436893598925,1.65393,-9.10002,4.24359
47,1436893598943,1.70963,-8.85135,4.28584
48,1436893598964,1.70291,-8.78777,4.08812
49,1436893598983,1.76952,-8.70851,3.91351
50,1436893599004,1.8869,-8.58975,3.89148
51,1436893599024,2.03589,-8.68417,4.12827
52,1436893599045,2.15666,-8.85455,4.38852
53,1436893599063,2.11383,-9.23637,4.56267
54,1436893599082,2.02217,-9.52989,4.57278
55,1436893599103,1.96844,-9.474,4.72356
56,1436893599123,1.94559,-9.31839,4.61761
57,1436893599142,1.88721,-9.21326,4.48679
58,1436893599163,1.86107,-8.99991,4.4947
59,1436893599182,1.88071,-8.866,4.53111
60,1436893599201,1.85736,-8.60049,4.49467
61,1436893599222,1.78758,-8.67169,4.36642
62,1436893599241,1.84311,-8.65356,4.3036
63,1436893599260,1.89,-8.55663,4.44948
64,1436893599281,1.85777,-8.58205,4.57289
65,1436893599299,1.77612,-8.77359,4.59184
66,1436893599320,1.65538,-9.03011,4.6058
67,1436893599340,1.5874,-9.00522,4.58313
68,1436893599359,1.56386,-9.06566,4.48199
69,1436893599379,1.58235,-9.2254,4.41237
70,1436893599399,1.34779,-8.97041,4.3515
71,1436893599419,1.31613,-8.41812,4.35486
72,1436893599459,1.49153,-8.19116,4.51382
73,1436893599477,1.46735,-8.13754,4.64325
74,1436893599498,1.39346,-8.26056,4.8139
75,1436893599518,1.32317,-8.59752,4.97089
76,1436893599537,1.27364,-8.75369,4.95595
77,1436893599557,1.37051,-8.70395,4.80791
78,1436893599576,1.4892,-8.7601,4.79877
79,1436893599597,1.65625,-8.77763,4.94197
80,1436893599615,1.69261,-9.03908,4.88214
81,1436893599636,1.74113,-8.89972,4.80167
82,1436893599656,1.92557,-8.59045,4.8102
83,1436893599676,2.11554,-8.72038,4.59563
84,1436893599696,2.15623,-9.02017,4.43126
85,1436893599715,2.09062,-8.92328,4.4203
86,1436893599734,2.0452,-8.72405,4.33081
87,1436893599755,1.96533,-8.37383,4.20613
88,1436893599774,1.86995,-8.41708,4.08742
89,1436893599793,1.81543,-8.59662,4.05104
90,1436893599815,1.82915,-9.02826,4.09003
91,1436893599834,1.71474,-9.43652,4.12022
92,1436893599854,1.33968,-9.80942,3.97488
93,1436893599874,0.963059,-9.56175,3.9257
94,1436893599891,0.817795,-8.9603,4.03354
95,1436893599913,0.785828,-8.67178,4.23517
96,1436893599932,0.725845,-8.68883,4.33173
97,1436893599953,0.494614,-8.46683,4.34407
98,1436893599972,0.553528,-8.29933,4.31841
99,1436893599992,0.552765,-8.43564,4.41017
100,1436893600012,0.665588,-8.55199,4.21484
101,1436893600031,1.03442,-8.23912,4.38065
102,1436893600051,1.44701,-8.23831,4.19875
103,1436893600069,1.71176,-8.68996,3.85167
104,1436893600091,1.91779,-8.92059,3.63339
105,1436893600109,2.26541,-8.79193,3.43384
106,1436893600130,2.58827,-8.66109,3.26797
107,1436893600150,2.78946,-8.95429,3.33919
108,1436893600170,2.88748,-9.44933,3.32259
109,1436893600189,2.8213,-9.84616,3.44342
110,1436893600208,2.59081,-10.0259,3.56587
111,1436893600229,2.46376,-9.73425,3.70212
112,1436893600248,2.5321,-9.45012,3.81905
113,1436893600269,2.54565,-9.36452,3.82648
114,1436893600289,2.56351,-9.284,3.61426
115,1436893600308,2.85933,-9.1107,3.30748
116,1436893600328,3.06845,-9.09123,2.81012
117,1436893600348,2.98701,-8.82858,2.4041
118,1436893600367,2.76805,-8.86493,2.61665
119,1436893600386,2.80388,-9.55826,3.215
120,1436893600407,2.89204,-10.1012,3.57683
121,1436893600446,3.08905,-10.7513,3.81123
122,1436893600447,3.02318,-11.153,3.56931
123,1436893600466,2.93072,-9.69518,2.5481
124,1436893600505,3.29984,-4.4873,3.5547
125,1436893600525,3.87773,-1.07973,6.55531
126,1436893600545,3.58263,0.127045,8.50671
127,1436893600565,2.45517,-1.83073,10.7581
128,1436893600585,1.69086,-3.1366,11.5918
129,1436893600603,2.20961,-4.22368,10.896
130,1436893600624,3.10786,-5.04205,9.22395
131,1436893600644,3.34534,-4.99892,8.64133
132,1436893600664,3.0197,-4.35809,8.39479
133,1436893600684,2.4536,-4.09642,8.52081
134,1436893600702,2.04848,-4.26686,8.51898
135,1436893600723,2.23508,-5.14555,7.95671
136,1436893600741,2.49159,-6.05483,8.1432
137,1436893600763,2.7413,-6.40324,9.09785
138,1436893600782,2.881,-6.5139,10.0764
139,1436893600802,3.38197,-6.34001,10.7372
140,1436893600822,3.99522,-5.77274,10.1695
141,1436893600842,4.39932,-5.21375,8.8734
142,1436893600861,4.81204,-5.08551,6.88057
143,1436893600882,4.95305,-5.67009,4.75351
144,1436893600901,4.81989,-7.09319,2.72037
145,1436893600920,4.47342,-8.30356,1.64818
146,1436893600941,1.17465,-7.18852,2.06413
147,1436893600960,-3.21988,-7.79533,3.8855
148,1436893600980,-3.46433,-9.18892,6.15335
149,1436893601000,-2.77458,-7.69987,8.47394
150,1436893601018,-1.95032,-6.23859,9.28142
151,1436893601039,-0.56279,-4.8644,9.44841
152,1436893601058,0.816986,-4.35808,9.83052
153,1436893601079,1.55008,-4.06477,9.97498
154,1436893601098,1.84247,-4.03281,10.1688
155,1436893601118,2.0387,-4.06833,10.3566
156,1436893601138,2.16817,-3.87074,10.1041
157,1436893601158,2.00795,-3.78955,9.71669
158,1436893601178,1.68153,-4.36363,8.95627
159,1436893601195,1.37004,-5.39612,8.08882
160,1436893601217,0.910965,-6.33508,7.33209
161,1436893601236,0.181442,-6.75565,7.24338
162,1436893601256,-0.251373,-6.73787,7.65436
163,1436893601277,-0.395966,-6.29431,7.94475
164,1436893601296,-0.539871,-5.44307,8.30325
165,1436893601316,-0.418411,-4.70848,8.55113
166,1436893601335,-0.0637054,-4.07361,8.77267
167,1436893601356,0.260651,-3.74251,9.00536
168,1436893601375,0.548004,-3.74142,9.15562
169,1436893601395,0.896255,-4.05678,9.15038
170,1436893601415,0.988983,-4.19711,9.226
171,1436893601435,0.648178,-4.39587,9.35796
172,1436893601453,0.476471,-5.51625,8.76712
173,1436893601475,0.779984,-6.31198,8.25089
174,1436893601494,0.792328,-6.1685,8.36755
175,1436893601512,0.630859,-6.34091,7.9659
176,1436893601534,0.837402,-6.78032,7.22459
177,1436893601573,0.536301,-6.81776,4.94778
178,1436893601593,1.16454,-8.45445,4.66829
179,1436893601612,1.13861,-7.20314,4.80266
180,1436893601632,0.877533,-6.08679,4.73795
181,1436893601652,1.03969,-7.11494,4.6834
182,1436893601672,1.12204,-7.51704,4.35709
183,1436893601691,1.91365,-7.41426,3.79858
184,1436893601712,1.10077,-7.09154,3.30432
185,1436893601729,0.0816956,-7.0506,2.62099
186,1436893601751,-0.770935,-9.21753,2.16232
187,1436893601770,-1.22565,-10.5445,2.10504
188,1436893601790,-1.29143,-9.58382,4.20828
189,1436893601810,-2.13196,-9.5352,4.77008
190,1436893601829,-1.83086,-15.1868,2.63202
191,1436893601850,-0.527237,-14.3605,1.68359
192,1436893601868,0.0665894,-12.5448,1.0779
193,1436893601889,0.0896606,-10.6632,0.628983
194,1436893601909,0.0865326,-9.69617,1.12842
195,1436893601928,0.377319,-9.08827,0.968491
196,1436893601949,-0.20163,-9.19751,1.54216
197,1436893601968,-0.262329,-9.42857,1.47287
198,1436893601988,-0.0163116,-9.97354,1.1194
199,1436893602008,0.240555,-10.2587,0.318268
200,1436893602027,0.3983,-10.7602,-0.432907
201,1436893602046,0.544006,-11.068,-0.880051
202,1436893602067,0.770828,-10.8723,-0.987381
203,1436893602087,0.912033,-10.4669,-0.971603
204,1436893602106,0.964889,-9.83105,-1.07684
205,1436893602126,0.945374,-9.70311,-1.56694
206,1436893602144,0.985413,-9.51604,-1.72861
207,1436893602166,1.03484,-9.07047,-1.85408
208,1436893602185,1.06833,-9.01251,-2.43697
209,1436893602205,1.23325,-9.44496,-3.21426
210,1436893602225,1.2619,-9.74741,-3.69138
211,1436893602244,1.07886,-10.0256,-4.02049
212,1436893602265,1.00465,-10.1344,-4.2354
213,1436893602284,1.05933,-10.2126,-4.48828
214,1436893602304,1.22287,-10.2335,-4.56297
215,1436893602322,1.36125,-10.1842,-3.82831
216,1436893602344,1.43582,-10.16,-3.10539
217,1436893602363,1.29547,-9.91925,-2.75034
218,1436893602383,1.07094,-9.46469,-3.2018
219,1436893602403,1.01016,-9.05623,-3.79561
220,1436893602423,1.13025,-8.32436,-3.75496
221,1436893602441,1.23647,-8.02353,-3.85669
222,1436893602461,1.24327,-8.25284,-4.18701
223,1436893602482,1.13582,-8.68953,-4.3611
224,1436893602502,1.16374,-8.69878,-4.35092
225,1436893602521,1.26282,-8.84645,-4.22549
226,1436893602542,1.32332,-9.07219,-4.39462
227,1436893602561,1.26466,-8.87622,-4.20482
228,1436893602601,1.21553,-8.7623,-4.03764
229,1436893602620,1.22455,-9.06833,-3.79498
230,1436893602639,1.23021,-9.29457,-3.647
231,1436893602660,1.21687,-9.59161,-3.81108
232,1436893602679,1.34407,-9.53583,-4.1075
233,1436893602699,1.60927,-9.24017,-4.15285
234,1436893602719,1.96631,-8.84576,-3.96533
235,1436893602738,2.2334,-8.75285,-3.84384
236,1436893602758,2.48151,-8.85648,-3.6848
237,1436893602778,2.63641,-9.02527,-3.74538
238,1436893602798,2.64745,-9.18218,-3.80322
239,1436893602818,2.54749,-9.31451,-3.98914
240,1436893602838,2.51404,-9.22241,-3.94833
241,1436893602856,2.53296,-8.85132,-3.73254
242,1436893602877,2.55232,-8.85382,-3.69179
243,1436893602897,2.47186,-8.92004,-3.70184
244,1436893602917,2.5188,-9.11999,-3.72456
245,1436893602936,2.61665,-9.64421,-3.86362
246,1436893602955,2.651,-9.90895,-3.79877
247,1436893602976,2.65964,-9.58124,-3.47916
248,1436893602994,2.63971,-9.24179,-2.99954
249,1436893603016,2.58554,-9.30638,-2.81863
250,1436893603035,2.52664,-9.32968,-2.59976
251,1436893603055,2.49832,-9.4865,-2.43835
252,1436893603075,2.52776,-9.7096,-2.30223
253,1436893603095,2.51651,-9.73743,-2.06393
254,1436893603114,2.53162,-9.75946,-1.77316
255,1436893603134,2.51424,-9.69992,-1.37424
256,1436893603153,2.46104,-9.76886,-1.01979
257,1436893603173,2.31755,-9.86203,-0.571243
258,1436893603194,2.23027,-9.86383,-0.0408325
259,1436893603213,2.18372,-10.0189,0.451981
260,1436893603233,2.04333,-10.1116,0.827591
261,1436893603253,1.89972,-9.97055,1.13353
262,1436893603271,1.86162,-9.86821,1.05449
263,1436893603292,1.89709,-10.0484,0.668732
264,1436893603311,1.81226,-10.4038,0.559662
265,1436893603332,1.54883,-10.1637,0.609238
266,1436893603351,1.41078,-10.1844,0.680939
267,1436893603372,1.32666,-9.93527,0.842209
268,1436893603391,1.07381,-9.64659,1.09241
269,1436893603411,0.884277,-9.44647,1.23636
270,1436893603430,0.783554,-9.22113,1.55406
271,1436893603449,0.86348,-8.97705,1.84119
272,1436893603470,0.951935,-9.27249,1.92636
273,1436893603489,0.992126,-9.67947,2.23645
274,1436893603509,0.617355,-10.1041,3.31714
275,1436893603529,0.315674,-10.3484,3.90669
276,1436893603549,0.185089,-10.3539,4.03609
277,1436893603569,0.152756,-10.1212,4.07343
278,1436893603587,0.02211,-9.95876,3.7227
279,1436893603609,-0.227692,-10.0659,3.57159
280,1436893603648,-0.192062,-9.84569,3.86021
281,1436893603668,-0.365707,-9.23265,4.36734
282,1436893603687,-0.293442,-9.03688,4.80017
283,1436893603707,-0.494522,-8.51755,5.01337
284,1436893603727,-0.278122,-8.88274,4.5835
285,1436893603747,-0.0862274,-8.99295,4.38519
286,1436893603765,0.187683,-8.96036,4.53215
287,1436893603786,0.457535,-8.83325,4.72002
288,1436893603805,0.767639,-9.02756,4.76004
289,1436893603826,0.875061,-9.2187,4.73824
290,1436893603846,0.885254,-9.33295,4.54347
291,1436893603865,1.04602,-9.09236,4.35416
292,1436893603885,1.30568,-8.58839,4.24632
293,1436893603904,1.50531,-8.24023,4.2016
294,1436893603925,1.7094,-8.12341,4.24609
295,1436893603944,1.97665,-8.0087,4.0135
296,1436893603964,2.29199,-8.20808,3.9128
297,1436893603984,2.32056,-8.29884,3.90936
298,1436893604004,2.40382,-8.3777,3.92941
299,1436893604024,2.4012,-8.57979,3.94904
300,1436893604043,2.37947,-8.88875,3.98209
301,1436893604063,2.61156,-9.25224,4.13133
302,1436893604081,2.55003,-9.66682,4.03102
303,1436893604102,2.53091,-10.0061,3.9995
304,1436893604121,2.55614,-10.1733,4.00146
305,1436893604142,2.33286,-10.1337,3.93227
306,1436893604162,1.90208,-9.73166,4.00278
307,1436893604181,1.61176,-9.00761,3.9959
308,1436893604202,1.44174,-8.59438,3.9454
309,1436893604221,1.29111,-8.38811,4.03685
310,1436893604240,1.15137,-8.31052,4.23871
311,1436893604262,1.1244,-8.36447,4.32805
312,1436893604280,1.15097,-8.46625,4.27803
313,1436893604299,1.18855,-8.7247,4.06685
314,1436893604320,1.25011,-8.7668,3.94202
315,1436893604339,1.40385,-8.74554,3.94539
316,1436893604359,1.64355,-8.68585,4.12323
317,1436893604379,1.93259,-8.68509,4.24292
318,1436893604397,2.22559,-8.8176,4.28206
319,1436893604419,2.30116,-8.90329,4.47369
320,1436893604437,2.42441,-8.77574,4.70778
321,1436893604458,2.57158,-8.88994,4.87108
322,1436893604478,2.60394,-9.07631,4.69336
323,1436893604498,2.62926,-8.8848,4.49991
324,1436893604517,2.63319,-8.68426,4.34905
325,1436893604537,2.67084,-8.64073,4.18964
326,1436893604557,2.71852,-8.66681,4.17744
327,1436893604575,2.7057,-8.59952,4.22661
328,1436893604597,2.55101,-8.67979,4.25552
329,1436893604616,2.37068,-8.94923,4.17885
330,1436893604636,2.20776,-8.9035,4.19453
331,1436893604656,2.00883,-8.7187,4.35307
332,1436893604676,1.96425,-8.58845,4.36827
333,1436893604714,1.89264,-8.44606,4.42624
334,1436893604734,1.99094,-8.51076,4.52123
335,1436893604754,1.97256,-8.58159,4.46208
336,1436893604774,1.96489,-8.48381,4.43105
337,1436893604795,1.96336,-8.51926,4.46336
338,1436893604814,2.03679,-8.54304,4.38998
339,1436893604834,2.08974,-8.69716,4.42632
340,1436893604854,2.09424,-9.01675,4.40404
341,1436893604873,2.10394,-9.01424,4.40678
342,1436893604891,2.17004,-8.63473,4.56659
343,1436893604913,2.16733,-8.35992,4.60286
344,1436893604931,2.0744,-8.15932,4.48698
345,1436893604952,2.0835,-8.13712,4.40147
346,1436893604972,2.08626,-8.19116,4.15976
347,1436893604992,2.08499,-8.01904,3.97021
348,1436893605011,2.13051,-7.86372,3.68315
349,1436893605031,2.23256,-7.79462,3.411
350,1436893605051,2.25333,-7.73013,3.22298
351,1436893605070,2.28044,-8.01321,3.0799
352,1436893605091,2.26094,-8.20543,2.80927
353,1436893605110,2.35733,-8.50079,2.73729
354,1436893605130,2.34891,-8.91248,2.45648
355,1436893605150,2.23689,-8.52685,2.15515
356,1436893605170,2.03674,-7.72494,1.9911
357,1436893605189,1.67871,-7.69324,2.15411
358,1436893605208,1.23906,-8.22987,1.66638
359,1436893605229,1.04866,-8.71744,1.60008
360,1436893605247,0.955795,-8.36327,1.54497
361,1436893605269,0.64357,-8.72383,1.44647
362,1436893605288,-0.143723,-9.83374,0.760239
363,1436893605308,-0.907227,-10.7802,0.526733
364,1436893605328,-1.36002,-10.8818,0.293152
365,1436893605348,-1.2816,-10.6081,0.372131
366,1436893605367,-1.24141,-10.5901,-0.0584259
367,1436893605387,-1.50896,-11.6437,-0.583038
368,1436893605406,-2.01907,-12.734,-0.957809
369,1436893605426,-2.14792,-12.6258,-0.892487
370,1436893605446,-1.81206,-11.9727,-0.767731
371,1436893605466,-1.49184,-11.6953,-0.849274
372,1436893605486,-1.52322,-11.7954,-0.989075
373,1436893605506,-1.69987,-11.7159,-0.934952
374,1436893605523,-1.52969,-11.4387,-0.861374
375,1436893605545,-1.30516,-11.4471,-0.834702
376,1436893605564,-1.31607,-11.4185,-1.20334
377,1436893605585,-1.15935,-11.5651,-1.25424
378,1436893605604,-1.05283,-12.332,-1.65472
379,1436893605625,-1.15405,-12.6504,-1.81383
380,1436893605644,-1.47751,-11.8473,-1.93852
381,1436893605664,-1.80263,-11.3091,-1.87761
382,1436893605684,-2.3324,-10.3766,-1.73413
383,1436893605704,-2.78082,-8.50148,-1.2204
384,1436893605742,-3.05005,-7.38257,-1.16537
385,1436893605763,-3.33708,-6.33817,-1.62202
386,1436893605782,-3.72743,-4.59917,-1.39973
387,1436893605802,-4.31276,-3.16196,-0.542557
388,1436893605822,-4.84679,-3.47505,0.690948
389,1436893605840,-5.38049,-4.76717,0.982666
390,1436893605862,-5.51794,-4.31143,0.595642
391,1436893605881,-5.38568,-3.5938,0.420029
392,1436893605901,-6.28305,-6.33867,0.712997
393,1436893605921,-9.3896,-12.2525,0.208023
394,1436893605940,-12.2464,-18.043,-2.96895
395,1436893605960,-12.1695,-19.9123,-4.38066
396,1436893605980,-10.0789,-19.8919,-4.41849
397,1436893606000,-8.57211,-18.9273,-4.528
398,1436893606018,-7.63019,-17.202,-4.58254
399,1436893606039,-6.11974,-15.0255,-4.53415
400,1436893606058,-4.00797,-13.1517,-3.79831
401,1436893606079,-1.86639,-11.3475,-3.18652
402,1436893606098,-0.485245,-9.59843,-2.77318
403,1436893606118,0.292587,-8.14368,-2.21658
404,1436893606136,0.936508,-6.57314,-1.56685
405,1436893606157,1.88013,-4.2211,-1.29411
406,1436893606178,4.02026,-1.50575,-1.20869
407,1436893606197,8.57181,0.0963898,-0.121399
408,1436893606217,9.77499,0.752441,0.299103
409,1436893606236,5.8922,-1.29375,0.815475
410,1436893606257,3.20767,-3.21658,0.742828
411,1436893606277,2.71979,-4.93416,0.468063
412,1436893606296,2.67136,-7.77217,-0.156372
413,1436893606316,2.18069,-14.4245,-1.98921
414,1436893606334,0.50061,-18.5988,-4.42287
415,1436893606355,1.04132,-19.9123,-6.39818
416,1436893606374,-1.6152,-19.9123,-8.69441
417,1436893606395,-3.94012,-19.9123,-9.64464
418,1436893606415,-3.5584,-19.776,-8.75107
419,1436893606434,-1.77734,-18.9318,-8.06155
420,1436893606455,-2.47861,-16.307,-7.07101
421,1436893606474,-3.78473,-13.217,-5.72563
422,1436893606494,-3.95729,-10.6062,-4.64354
423,1436893606514,-3.51006,-7.551,-3.69806
424,1436893606533,-3.74649,-5.14967,-3.27525
425,1436893606552,-4.67239,-3.53731,-2.87694
426,1436893606573,-5.25806,-2.76845,-1.5316
427,1436893606593,-5.13731,-2.52528,0.224182
428,1436893606613,-4.83469,-2.09969,1.09589
429,1436893606632,-4.5632,-0.498489,0.967056
430,1436893606777,-4.13516,0.810516,0.913834
431,1436893606778,-3.21236,0.397171,1.60336
432,1436893606779,-2.01163,-0.911392,2.99881
433,1436893606780,0.471542,-1.48242,10.0737
434,1436893606781,-1.70024,-13.437,3.41476
435,1436893606782,-4.55476,-19.5152,0.192459
436,1436893606790,-5.51032,-19.9123,0.175888
437,1436893606810,-2.85191,-19.9123,1.46664
438,1436893606829,-0.636276,-19.9095,0.906998
439,1436893606850,0.204956,-19.1238,-0.768372
440,1436893606868,0.740158,-17.3196,-1.42329
441,1436893606889,1.40875,-15.3723,-1.17499
442,1436893606909,1.91997,-12.9362,-0.836121
443,1436893606929,2.27699,-10.3899,-0.493469
444,1436893606948,2.18776,-7.14595,-0.396332
445,1436893606966,2.34785,-3.31596,-1.11385
446,1436893606988,2.92394,0.035141,-1.09641
447,1436893607007,4.31328,1.79095,0.0904694
448,1436893607027,5.78622,1.63188,1.42976
449,1436893607048,5.71446,-0.752365,1.82935
450,1436893607067,3.92744,-3.9512,1.02141
451,1436893607087,2.98241,-6.33101,-0.895798
452,1436893607106,4.37804,-10.1583,-1.8299
453,1436893607126,4.84454,-17.6106,-2.27834
454,1436893607144,2.41972,-19.7132,-5.22543
455,1436893607166,3.32413,-19.8738,-5.51012
456,1436893607185,2.55721,-19.9123,-6.59595
457,1436893607205,-0.0529327,-19.9123,-7.63124
458,1436893607225,-0.48439,-19.8222,-7.06805
459,1436893607244,-0.433533,-19.6809,-6.68385
460,1436893607264,-1.18858,-17.6509,-5.9514
461,1436893607283,-2.20209,-14.6129,-4.75885
