id,attr_time,attr_x,attr_y,attr_z
1,1437229794009,-0.29987377,10.055647,1.4526819
2,1437229794042,-0.20709845,10.093356,1.347337
3,1437229794050,-0.12150574,10.015544,1.4030021
4,1437229794074,-0.12030864,9.950302,1.5179238
5,1437229794089,-0.110731825,10.026319,1.5310919
6,1437229794109,-0.15143326,10.01315,1.4921862
7,1437229794129,-0.22385786,10.049662,1.4095862
8,1437229794149,-0.2801216,10.102334,1.3724761
9,1437229794169,-0.31783026,10.056246,1.4000094
10,1437229794189,-0.28909984,10.131663,1.407192
11,1437229794209,-0.29269117,10.174759,1.3455414
12,1437229794230,-0.29209262,10.125079,1.3269863
13,1437229794249,-0.2160767,10.096349,1.3371617
14,1437229794269,-0.16101007,10.148422,1.3694834
15,1437229794289,-0.19812019,10.210073,1.4089876
16,1437229794314,-0.27114335,10.191518,1.4155718
17,1437229794345,-0.34356794,10.216658,1.3371617
18,1437229794352,-0.43873745,10.326192,1.2401965
19,1437229794369,-0.53689975,10.379463,1.1965023
20,1437229794389,-0.64942724,10.320207,1.1905168
21,1437229794410,-0.6703765,10.14543,1.2312182
22,1437229794430,-0.5722142,10.086173,1.1785458
23,1437229794450,-0.52612585,10.084377,1.1456255
24,1437229794471,-0.58897364,10.081984,1.0881647
25,1437229794491,-0.6919243,10.181343,1.0522517
26,1437229794510,-0.7320272,10.34774,1.0684125
27,1437229794530,-0.7763199,10.288484,1.1216835
28,1437229794550,-0.86370826,10.244789,1.1815386
29,1437229794570,-0.89303726,10.238205,1.1336545
30,1437229794592,-0.81881696,10.220248,1.0444705
31,1437229794611,-0.7194576,10.183139,1.1432313
32,1437229794630,-0.66379243,10.110714,1.3652935
33,1437229794650,-0.56802434,10.07121,1.4101849
34,1437229794670,-0.43993455,10.247782,1.2641385
35,1437229794690,-0.35553896,10.272323,1.1575965
36,1437229794711,-0.2861071,10.187927,1.2060791
37,1437229794730,-0.2789245,10.129269,1.2629414
38,1437229794750,-0.2861071,10.166978,1.1869255
39,1437229794770,-0.3405752,10.175357,1.1599907
40,1437229794790,-0.40880993,10.053253,1.2473791
41,1437229794810,-0.47644615,10.078991,1.2844892
42,1437229794830,-0.415394,10.100538,1.276708
43,1437229794850,-0.320823,10.157401,1.3126211
44,1437229794870,-0.29508537,10.080787,1.371279
45,1437229794890,-0.31663316,10.031107,1.3814543
46,1437229794911,-0.3226187,10.035296,1.3431472
47,1437229794930,-0.31304187,9.990405,1.3545196
48,1437229794950,-0.320823,9.97185,1.4185646
49,1437229794971,-0.28670564,9.920973,1.4209588
50,1437229794998,-0.22325931,9.959281,1.3449428
51,1437229795060,-0.16460137,9.967062,1.3551182
52,1437229795061,-0.08080431,9.980229,1.4053963
53,1437229795062,-0.0676362,9.992201,1.484405
54,1437229795071,-0.05327099,9.952098,1.5442601
55,1437229795099,-0.0035913025,10.016742,1.508347
56,1437229795111,0.053869538,10.037092,1.4736311
57,1437229795130,0.01436521,10.089166,1.4640543
58,1437229795150,-0.16879122,10.181343,1.4975731
59,1437229795171,-0.38307226,10.2974615,1.4101849
60,1437229795195,-0.46686932,10.311827,1.3305776
61,1437229795210,-0.5117606,10.292673,1.2725182
62,1437229795232,-0.5955577,10.266935,1.2707225
63,1437229795255,-0.65182143,10.122087,1.2689269
64,1437229795271,-0.49081135,10.030508,1.1976994
65,1437229795291,-0.25677812,10.11251,1.1270704
66,1437229795311,-0.11312603,10.149021,1.1653777
67,1437229795333,-0.10534488,10.140042,1.3186066
68,1437229795351,-0.12928689,10.207081,1.4347254
69,1437229795371,-0.17178397,10.277709,1.3545196
70,1437229795391,-0.18974048,10.353127,1.2683283
71,1437229795411,-0.2861071,10.26095,1.2856863
72,1437229795431,-0.3345897,10.05445,1.3724761
73,1437229795451,-0.3549404,10.014946,1.3347675
74,1437229795471,-0.3705027,10.09575,1.1875241
75,1437229795492,-0.4357447,10.234613,1.033098
76,1437229795510,-0.5746084,10.167576,1.1186907
77,1437229795531,-0.64463884,10.094553,1.2808979
78,1437229795551,-0.5835867,10.073005,1.3120226
79,1437229795571,-0.34835634,10.177153,1.1558008
80,1437229795591,-0.1604115,10.123882,1.2138603
81,1437229795610,-0.11671733,10.121488,1.292869
82,1437229795631,-0.14185645,10.177153,1.3880384
83,1437229795651,-0.23882163,10.192117,1.2838906
84,1437229795674,-0.29927522,10.159196,1.1707647
85,1437229795691,-0.32022446,10.073604,1.2024878
86,1437229795712,-0.33279404,10.143634,1.2276269
87,1437229795731,-0.37948096,10.199299,1.2521675
88,1437229795752,-0.39683893,10.143634,1.2030864
89,1437229795792,-0.35075054,10.064626,1.1575965
90,1437229795793,-0.30466217,10.132261,1.1641805
91,1437229795812,-0.38726214,10.140641,1.2096704
92,1437229795831,-0.43035775,10.137649,1.2042835
93,1437229795851,-0.3776853,10.1143055,1.198298
94,1437229795871,-0.33518824,10.153211,1.2006922
95,1437229795891,-0.32621,10.177752,1.2024878
96,1437229795911,-0.3609259,10.1621895,1.1839328
97,1437229795931,-0.34955344,10.139444,1.2539631
98,1437229795951,-0.30047232,10.174759,1.2066777
99,1437229795972,-0.30406362,10.209475,1.1605892
100,1437229795993,-0.29269117,10.156802,1.204882
101,1437229796013,-0.30107087,10.192716,1.2246342
102,1437229796031,-0.38965634,10.253767,1.2270284
103,1437229796051,-0.44592008,10.253169,1.1593921
104,1437229796071,-0.45130703,10.205883,1.13964
105,1437229796091,-0.4261679,10.141838,1.1288661
106,1437229796112,-0.3549404,10.104729,1.1372458
107,1437229796131,-0.29388827,10.102334,1.1324574
108,1437229796151,-0.24001873,10.191518,1.1725603
109,1437229796172,-0.21188685,10.184934,1.1988965
110,1437229796192,-0.24420857,10.222044,1.1719618
111,1437229796211,-0.31244332,10.2178545,1.1785458
112,1437229796232,-0.31902736,10.213664,1.2395979
113,1437229796254,-0.28072014,10.151415,1.2252327
114,1437229796274,-0.29508537,10.110714,1.287482
115,1437229796294,-0.35793316,10.144233,1.2838906
116,1437229796311,-0.44352585,10.192117,1.1773487
117,1437229796332,-0.45549688,10.203489,1.1498153
118,1437229796352,-0.51954174,10.176555,1.2599486
119,1437229796372,-0.5883751,10.173561,1.323395
120,1437229796395,-0.5919664,10.15381,1.2880806
121,1437229796415,-0.52253455,10.156203,1.1953052
122,1437229796435,-0.42676646,10.093356,1.134253
123,1437229796452,-0.35194764,10.0825815,1.2144588
124,1437229796472,-0.3226187,10.1065235,1.3144168
125,1437229796514,-0.25258827,10.093356,1.3581109
126,1437229796515,-0.17836803,10.030508,1.3754689
127,1437229796534,-0.17298107,9.985617,1.3293805
128,1437229796552,-0.20111294,10.044274,1.3078327
129,1437229796572,-0.3357868,10.078392,1.3239936
130,1437229796592,-0.46507367,10.032902,1.3718776
131,1437229796612,-0.5446809,10.100538,1.3126211
132,1437229796632,-0.5781997,10.053253,1.3084313
133,1437229796652,-0.58418524,10.027515,1.3174095
134,1437229796672,-0.5710171,10.023924,1.3144168
135,1437229796693,-0.53570265,10.065224,1.2940661
136,1437229796713,-0.5009867,10.1226845,1.3275849
137,1437229796732,-0.4961983,10.158598,1.352724
138,1437229796758,-0.50038815,10.184934,1.3395559
139,1437229796772,-0.45609543,10.23222,1.2826935
140,1437229796794,-0.42437226,10.231621,1.2964603
141,1437229796813,-0.38845924,10.183737,1.3215994
142,1437229796833,-0.3537433,10.174759,1.3617022
143,1437229796855,-0.25378537,10.084976,1.3293805
144,1437229796875,-0.24660277,10.078991,1.3634979
145,1437229796895,-0.2777274,10.129269,1.3587095
146,1437229796913,-0.31244332,10.113707,1.3605051
147,1437229796933,-0.25438392,10.138845,1.2844892
148,1437229796955,-0.22505496,10.126276,1.2964603
149,1437229796973,-0.24420857,10.17416,1.3102269
150,1437229797001,-0.35075054,10.176555,1.3515269
151,1437229797014,-0.44113165,10.197504,1.3724761
152,1437229797032,-0.45848963,10.199898,1.2988545
153,1437229797053,-0.47524905,10.25257,1.2665327
154,1437229797072,-0.4369418,10.149021,1.2521675
155,1437229797093,-0.41479546,10.085575,1.2892777
156,1437229797115,-0.3728969,10.060435,1.364695
157,1437229797133,-0.29867667,10.092757,1.3341689
158,1437229797153,-0.25318682,10.122087,1.3305776
159,1437229797174,-0.24061728,10.032902,1.4155718
160,1437229797197,-0.18136078,9.949105,1.4634558
161,1437229797247,-0.14784196,9.877877,1.38325
162,1437229797248,-0.17956513,9.845556,1.1611878
163,1437229797255,-0.23044191,9.906608,1.1492168
164,1437229797272,-0.3705027,10.032304,1.4089876
165,1437229797294,-0.62847793,10.477625,1.4616601
166,1437229797315,-0.97025025,10.654796,1.3934253
167,1437229797332,-1.1354501,10.499771,1.2934675
168,1437229797354,-0.8535329,10.482413,1.0965444
169,1437229797372,-0.45729253,10.262746,1.1797429
170,1437229797396,-0.17657238,9.953295,1.3694834
171,1437229797413,-0.0700304,9.847352,1.417966
172,1437229797436,-0.08798691,10.08318,1.3742718
173,1437229797456,-0.260968,10.199299,1.3341689
174,1437229797475,-0.5303157,10.119692,1.3227965
175,1437229797496,-0.581791,10.153211,1.3120226
176,1437229797516,-0.5243302,10.332177,1.276708
177,1437229797534,-0.47764325,10.390237,1.2192472
178,1437229797556,-0.3890578,10.21546,1.30484
179,1437229797576,-0.23523031,10.141838,1.3575124
180,1437229797595,-0.11851298,10.062231,1.3784616
181,1437229797616,-0.0688333,9.953894,1.2952632
182,1437229797634,-0.11252748,10.003573,1.234211
183,1437229797653,-0.24480712,10.000581,1.3263878
184,1437229797678,-0.39923313,10.08318,1.4502877
185,1437229797693,-0.5009867,10.149021,1.4514848
186,1437229797715,-0.50757074,10.183139,1.4000094
187,1437229797733,-0.42317516,10.159795,1.3431472
188,1437229797755,-0.40043023,10.14543,1.4101849
189,1437229797776,-0.415394,10.078991,1.4496891
190,1437229797794,-0.46267948,10.029311,1.4772224
191,1437229797815,-0.4297592,9.970055,1.3569138
192,1437229797835,-0.36152446,9.959879,1.3425486
193,1437229797855,-0.36990416,10.04607,1.3156139
194,1437229797873,-0.48482585,10.057443,1.4622587
195,1437229797894,-0.5494693,10.173561,1.5286977
196,1437229797917,-0.533907,10.135254,1.4909891
197,1437229797969,-0.4321534,10.090961,1.3814543
198,1437229797974,-0.29807812,10.090961,1.3150153
199,1437229797985,-0.21667525,10.067019,1.3126211
200,1437229797997,-0.17956513,10.13286,1.38325
201,1437229798015,-0.1604115,10.164583,1.5245079
202,1437229798045,-0.1945289,10.160992,1.560421
203,1437229798054,-0.3286042,10.235811,1.4215573
204,1437229798073,-0.54168814,10.276512,1.3144168
205,1437229798097,-0.6476316,10.187328,1.3198037
206,1437229798113,-0.6607997,10.17835,1.3293805
207,1437229798135,-0.6123171,10.060435,1.3563153
208,1437229798153,-0.5153519,10.0825815,1.3599066
209,1437229798173,-0.4782418,10.141838,1.283292
210,1437229798197,-0.38187516,10.170568,1.3479356
211,1437229798217,-0.33997664,10.204087,1.4688427
212,1437229798236,-0.33758244,10.189722,1.5263035
213,1437229798257,-0.30346507,10.181343,1.4616601
214,1437229798277,-0.27234045,10.058042,1.3994108
215,1437229798296,-0.31244332,10.065224,1.3772645
216,1437229798317,-0.3405752,10.1304655,1.3581109
217,1437229798337,-0.45070848,10.05864,1.4508862
218,1437229798357,-0.45789108,10.074203,1.4030021
219,1437229798375,-0.4345476,10.058042,1.3862427
220,1437229798394,-0.3764882,10.065823,1.4173675
221,1437229798417,-0.39025488,10.061034,1.4562732
222,1437229798434,-0.3597288,10.078392,1.4784195
223,1437229798454,-0.32680854,10.123283,1.501763
224,1437229798474,-0.31244332,10.111312,1.4981717
225,1437229798497,-0.29388827,10.100538,1.4754268
226,1437229798520,-0.22924481,10.125079,1.5251064
227,1437229798537,-0.18255788,10.195109,1.5424645
228,1437229798557,-0.2124854,10.155006,1.532289
229,1437229798574,-0.27473465,10.204087,1.5640123
230,1437229798595,-0.3238158,10.388441,1.4371196
231,1437229798613,-0.4357447,10.5440645,1.3868413
232,1437229798634,-0.6123171,10.3770685,1.5245079
233,1437229798657,-0.6087258,10.131064,1.6304513
234,1437229798717,-0.41060558,9.948506,1.6819267
235,1437229798719,-0.21787235,10.016143,1.7357962
236,1437229798720,-0.1388637,10.163386,1.7633295
237,1437229798755,-0.10175357,10.102933,1.839944
238,1437229798756,0.002992752,9.916783,1.9405005
239,1437229798774,0.107739076,9.814431,2.059612
240,1437229798794,0.12389994,9.883265,2.1200657
241,1437229798814,-0.038905777,9.922171,2.1571758
242,1437229798835,-0.25378537,9.859323,2.1894975
243,1437229798855,-0.48243165,9.886257,2.1930888
244,1437229798874,-0.6931214,9.907207,2.112883
245,1437229798894,-0.825401,9.82341,1.9955671
246,1437229798914,-0.83378077,9.828198,1.9524715
247,1437229798934,-0.7613561,9.794081,1.9554642
248,1437229798958,-0.60693014,9.76954,2.1086931
249,1437229798977,-0.45130703,9.915586,2.2709002
250,1437229798998,-0.3609259,10.028712,2.3750482
251,1437229799042,-0.3890578,9.953295,2.4971523
252,1437229799048,-0.4237737,9.868899,2.5121162
253,1437229799080,-0.4770447,9.79827,2.3756466
254,1437229799081,-0.6218939,9.752781,2.1308396
255,1437229799099,-0.7068881,9.715671,2.0739772
256,1437229799118,-0.4997896,9.799467,2.1440077
257,1437229799134,0.09696517,9.818023,2.0362685
258,1437229799154,0.7015011,9.560646,1.5508442
259,1437229799174,1.1390414,9.167996,1.1994951
260,1437229799194,1.3461399,9.074623,1.2210429
261,1437229799214,1.7591397,9.080608,1.1851299
262,1437229799236,2.373851,9.207501,1.0414777
263,1437229799261,2.9137435,9.192537,1.2683283
264,1437229799274,3.0765493,9.259575,1.7238252
265,1437229799294,2.8616695,9.452907,2.131438
266,1437229799314,2.5240872,9.534908,2.1883004
267,1437229799334,2.3127987,9.57142,1.9614497
268,1437229799360,2.308609,9.594764,1.7244238
269,1437229799374,2.144606,9.576807,1.4826094
270,1437229799419,1.6166847,9.235633,1.4706384
271,1437229799420,1.3138182,8.807071,1.5460558
272,1437229799435,1.3545196,8.974665,1.3401544
273,1437229799458,1.5526398,9.295488,0.99898064
274,1437229799474,1.6196774,8.93576,1.0995371
275,1437229799494,1.9674352,8.738836,1.7130513
276,1437229799516,2.6563668,9.572019,1.9021933
277,1437229799541,3.3614593,9.945514,1.6597804
278,1437229799555,3.2932243,9.422979,1.4443022
279,1437229799578,3.1681273,8.89805,1.5149311
280,1437229799598,3.8259344,8.966286,1.3652935
281,1437229799618,4.7560816,8.932168,1.1438298
282,1437229799634,5.0625396,8.387487,1.1001357
283,1437229799658,4.7901993,8.081628,1.3916297
284,1437229799678,4.667496,8.535928,1.543063
285,1437229799698,4.75668,9.126099,1.3311762
286,1437229799718,4.413711,8.792108,1.0911574
287,1437229799738,4.0240545,8.48984,1.1115081
288,1437229799757,4.818331,9.837775,1.1043255
289,1437229799775,6.341043,12.275671,0.59256494
290,1437229799797,6.63134,11.925519,1.0959458
291,1437229799817,6.1967926,10.357915,2.1811178
292,1437229799838,5.997475,10.02572,2.1763294
293,1437229799854,5.6784477,9.788693,1.3156139
294,1437229799879,5.295376,9.428367,0.6548142
295,1437229799900,5.156512,9.223063,0.57760113
296,1437229799920,5.09546,8.8777,0.88046765
297,1437229799938,5.0236335,9.0081835,1.471237
298,1437229799954,5.0583496,9.745598,2.0147207
299,1437229799975,5.723339,13.008296,2.2750902
300,1437229799999,4.860828,11.649587,1.8908207
301,1437229800015,3.3171666,7.4962454,1.8393455
302,1437229800086,3.654749,6.3901243,1.5658079
303,1437229800089,4.589086,6.935404,1.6418238
304,1437229800090,5.327099,8.947132,1.9871874
305,1437229800103,4.8225207,10.304645,2.546832
306,1437229800115,4.243124,9.952098,3.4087446
307,1437229800144,4.0198646,9.56723,3.928885
308,1437229800158,3.9845502,9.569624,3.6194344
309,1437229800175,3.5835214,8.749012,3.3129766
310,1437229800199,3.4045548,8.2593975,3.7349546
311,1437229800215,3.527856,9.01776,3.804985
312,1437229800236,2.8772318,9.003994,3.0532057
313,1437229800256,2.3828292,8.163031,2.9712043
314,1437229800276,2.8431146,7.60997,3.3794158
315,1437229800295,3.3752258,7.4830775,3.4530375
316,1437229800319,3.7014358,7.941567,3.34051
317,1437229800339,3.7511156,8.430583,3.678691
318,1437229800359,3.7672763,8.469488,4.3209357
319,1437229800378,4.1653123,8.152855,4.912902
320,1437229800399,4.581305,8.010401,5.547964
321,1437229800419,5.2564697,9.167996,5.7245364
322,1437229800439,5.3528366,10.675147,4.739322
323,1437229800459,3.3482912,10.157999,4.3520603
324,1437229800479,1.2617443,8.995614,4.57113
325,1437229800499,0.7787141,8.845977,5.6802435
326,1437229800519,0.7272388,8.870518,6.83784
327,1437229800538,0.2741361,8.768764,6.9886746
328,1437229800558,-0.5057751,8.998009,6.789956
329,1437229800578,-1.9405005,8.494628,5.7484784
330,1437229800599,-3.2758665,7.77936,4.622605
331,1437229800620,-3.7972038,7.3849154,4.293402
332,1437229800640,-3.904943,6.692991,3.9228995
333,1437229800659,-3.25791,6.8091097,4.012682
334,1437229800678,-2.7329812,8.099585,4.3239284
335,1437229800696,-2.4349031,9.027936,4.5723267
336,1437229800718,-1.863886,8.562862,5.1397524
337,1437229800737,-0.7966706,8.726267,5.8586116
338,1437229800756,-0.1945289,8.98484,6.495469
339,1437229800808,0.0017956513,8.682572,6.5379663
340,1437229800809,-0.8463503,8.334216,5.6185927
341,1437229800824,-1.4359225,8.107366,4.817134
342,1437229800836,-0.6703765,10.094553,5.1666875
343,1437229800862,1.8267759,11.508329,6.117185
344,1437229800877,2.7096379,9.095572,6.194997
345,1437229800897,1.6573862,7.7386584,4.608838
346,1437229800919,1.4790181,7.109582,3.518878
347,1437229800937,2.6437972,6.579865,3.2716765
348,1437229800958,4.099472,7.2149267,3.2561142
349,1437229800977,4.777031,10.317214,3.518878
350,1437229801000,4.4286747,12.753913,3.1962593
351,1437229801016,3.5757403,11.240777,4.1521444
352,1437229801038,3.1441853,9.441534,5.1523223
353,1437229801058,3.0933087,8.739435,5.466561
354,1437229801079,2.5312698,8.8645315,4.1276035
355,1437229801099,1.7292122,9.284714,2.272696
356,1437229801119,1.0133458,9.930551,1.2150574
357,1437229801139,0.79726917,10.049662,1.38325
358,1437229801159,1.0791864,8.9519205,2.034473
359,1437229801179,1.4903905,8.090606,2.778471
360,1437229801197,2.1122844,8.1881695,3.7056258
361,1437229801219,3.2650926,8.915408,4.0336313
362,1437229801239,4.292804,9.65821,3.8307228
363,1437229801259,4.744709,10.272323,3.7547069
364,1437229801279,5.1864395,10.583569,3.8085763
365,1437229801299,4.9482164,9.332599,3.4225113
366,1437229801320,4.1222167,8.668806,3.6595373
367,1437229801339,3.763685,8.541913,4.020463
368,1437229801360,2.9083564,9.747394,4.968567
369,1437229801380,1.4987702,10.915166,5.507262
370,1437229801400,-0.5315128,9.930551,5.1241903
371,1437229801420,-2.3570917,8.2516165,4.671686
372,1437229801437,-3.5093012,7.6728177,4.455011
373,1437229801465,-3.5996823,7.8356237,4.1341877
374,1437229801530,-3.240552,8.121132,3.7229836
375,1437229801531,-2.8963854,8.031948,3.6092591
376,1437229801532,-2.3750482,7.9266033,3.8947675
377,1437229801540,-0.7942764,7.638102,3.6595373
378,1437229801557,1.5825673,7.6865845,3.570952
379,1437229801578,3.6379895,8.239645,3.5703533
380,1437229801596,5.3642087,9.057863,4.361038
381,1437229801617,6.5218053,9.801263,5.7466826
382,1437229801639,5.769428,9.4295635,7.055712
383,1437229801659,4.660912,8.683769,7.685986
384,1437229801679,4.8021703,9.297882,7.009624
385,1437229801698,3.5122938,8.802881,5.0763063
386,1437229801720,1.2587515,8.474875,3.4386723
387,1437229801737,-0.46387658,8.713697,2.9640217
388,1437229801760,-1.5622166,9.026739,3.2842462
389,1437229801780,-2.7431567,8.890269,3.7666779
390,1437229801797,-4.1060557,8.148665,3.9815574
391,1437229801817,-5.0781016,7.811083,3.7152026
392,1437229801837,-5.4563856,8.303091,3.0783448
393,1437229801857,-5.3115363,9.123106,2.7910407
394,1437229801880,-4.4184995,9.437345,2.7491422
395,1437229801900,-3.0376434,9.440936,2.7048495
396,1437229801918,-1.6962919,9.282919,2.9047651
397,1437229801939,-0.46686932,9.599552,3.5236664
398,1437229801960,0.3537433,9.94312,4.171298
399,1437229801979,0.54767364,9.402629,4.398747
400,1437229802000,0.5542577,8.2169,4.2969937
401,1437229802018,0.55964464,7.7560163,4.072537
402,1437229802038,0.61052144,8.572439,4.0815153
403,1437229802057,0.5614403,9.244013,4.027047
404,1437229802082,-0.1400608,9.634268,3.5775359
405,1437229802100,-1.2162545,9.060258,3.3141737
406,1437229802117,-2.0548236,8.602366,3.5745432
407,1437229802139,-2.8993783,8.274361,3.7547069
408,1437229802159,-3.7547069,8.220491,3.5332432
409,1437229802177,-4.3167458,8.402451,3.0280666
410,1437229802201,-4.68246,8.823232,2.4720132
411,1437229802248,-4.9458222,9.159617,2.055422
412,1437229802249,-4.7500963,9.394848,2.1416135
413,1437229802269,-4.3981485,9.841965,2.5911248
414,1437229802277,-4.1222167,10.057443,3.0693667
