id,attr_time,attr_x,attr_y,attr_z
1,1438331472006,0.0018989965,0.13778995,0.118946075
2,1438331472026,6.64033e-05,0.1289324,0.11436459
3,1438331472049,-0.010318305,0.12068573,0.105812475
4,1438331472069,-0.002987925,0.12282375,0.10947767
5,1438331472089,0.0077022165,0.12709981,0.11528089
6,1438331472107,0.011672843,0.13626279,0.12077867
7,1438331472127,0.006175056,0.1289324,0.12077867
8,1438331472150,-0.00054446235,0.13626279,0.12108411
9,1438331472170,-0.0014607608,0.14328775,0.12169497
10,1438331472186,0.0031207278,0.14420404,0.11283743
11,1438331472206,0.004647892,0.1570322,0.1097831
12,1438331472226,0.00067726895,0.17047125,0.10825594
13,1438331472252,-0.0035987906,0.1765799,0.105507046
14,1438331472267,0.0012881309,0.18421571,0.10672877
15,1438331472291,0.0022044294,0.17719075,0.11467002
16,1438331472307,0.00067726895,0.1438986,0.11680805
17,1438331472327,0.0015935637,0.1344302,0.11558632
18,1438331472346,0.0015935637,0.12496178,0.11650261
19,1438331472367,6.64033e-05,0.12312919,0.117724344
20,1438331472387,-0.0008498952,0.12465635,0.117113486
21,1438331472410,-0.004820518,0.124045484,0.117724344
22,1438331472463,-0.00054446235,0.12312919,0.11925151
23,1438331472464,0.009229381,0.119769424,0.11955694
24,1438331472473,0.016559761,0.11610424,0.123222135
25,1438331472486,0.011672843,0.1035815,0.12810905
26,1438331472508,-0.0023770593,0.107857555,0.12169497
27,1438331472527,-0.007874846,0.12832154,0.12413843
28,1438331472547,0.004647892,0.13626279,0.12047324
29,1438331472572,0.006785918,0.1298487,0.118946075
30,1438331472587,0.004647892,0.12282375,0.115891755
31,1438331472608,0.006785918,0.12771067,0.123222135
32,1438331472629,0.008313082,0.11640967,0.117724344
33,1438331472648,0.018086929,0.10297063,0.12230584
34,1438331472667,0.019003224,0.09380765,0.1229167
35,1438331472689,0.0077022165,0.10571953,0.117724344
36,1438331472709,-0.009096578,0.12007486,0.11833521
37,1438331472727,-0.017954122,0.13687366,0.11833521
38,1438331472749,-0.007263981,0.13840082,0.118946075
39,1438331472770,0.0009827018,0.14114971,0.11405916
40,1438331472789,0.008618515,0.14145514,0.11375372
41,1438331472810,0.008618515,0.14267687,0.11558632
42,1438331472830,0.0058696233,0.13137586,0.117724344
43,1438331472849,0.0018989965,0.12251832,0.12047324
44,1438331472870,-0.0057368167,0.109384716,0.11833521
45,1438331472889,-0.0008498952,0.10022174,0.11864065
46,1438331472907,0.0018989965,0.09838914,0.11955694
47,1438331472930,0.0034261607,0.10846842,0.12108411
48,1438331472951,0.010145679,0.107857555,0.118946075
49,1438331472972,0.008313082,0.1167151,0.11680805
50,1438331472989,0.002815295,0.12160203,0.117113486
51,1438331473007,0.0018989965,0.119769424,0.12108411
52,1438331473028,-0.0023770593,0.119769424,0.11802978
53,1438331473048,0.0015935637,0.119463995,0.11864065
54,1438331473072,0.0031207278,0.11640967,0.11833521
55,1438331473093,0.010451112,0.11335534,0.12047324
56,1438331473112,0.012894571,0.09808371,0.11955694
57,1438331473129,0.013200004,0.08036862,0.11558632
58,1438331473150,0.006785918,0.07670343,0.11436459
59,1438331473228,0.0012881309,0.08617184,0.11528089
60,1438331473229,-0.005431384,0.08403381,0.1220004
61,1438331473230,-0.00023902953,0.072732806,0.12536016
62,1438331473231,0.0022044294,0.071816504,0.117724344
63,1438331473249,0.004342459,0.06784588,0.11497545
64,1438331473275,0.002815295,0.06906761,0.11802978
65,1438331473287,0.0034261607,0.05135252,0.11680805
66,1438331473309,-0.0042096563,0.044327572,0.117418915
67,1438331473329,0.0018989965,0.049214493,0.12505473
68,1438331473349,0.0052587576,0.051963385,0.1333014
69,1438331473369,0.0077022165,0.053795982,0.12810905
70,1438331473388,0.009229381,0.061126366,0.123833
71,1438331473414,0.014116302,0.051963385,0.11925151
72,1438331473428,0.007091351,0.039440647,0.11405916
73,1438331473450,-0.0017661937,0.028750509,0.117724344
74,1438331473471,-0.0075694136,0.026917912,0.10947767
75,1438331473491,-0.013067201,0.034248292,0.11833521
76,1438331473510,-0.008485712,0.04982536,0.11405916
77,1438331473530,-0.00054446235,0.07212194,0.11467002
78,1438331473552,0.0055641904,0.08281208,0.11802978
79,1438331473570,0.008007649,0.083117515,0.11467002
80,1438331473591,0.012894571,0.084339246,0.11650261
81,1438331473610,0.012283709,0.08617184,0.116197184
82,1438331473628,0.0012881309,0.08617184,0.115891755
83,1438331473652,-0.005431384,0.1176314,0.11405916
84,1438331473668,0.0012881309,0.119463995,0.117418915
85,1438331473690,0.014116302,0.12496178,0.11558632
86,1438331473707,0.007091351,0.12465635,0.11100483
87,1438331473731,0.004647892,0.12618351,0.115891755
88,1438331473751,0.006480489,0.11702053,0.117724344
89,1438331473771,0.009229381,0.11640967,0.11344829
90,1438331473791,0.0022044294,0.1185477,0.1079505
91,1438331473814,0.010145679,0.13229217,0.1106994
92,1438331473832,-0.0023770593,0.11030102,0.116197184
93,1438331473848,-0.004820518,0.12374005,0.116197184
94,1438331473965,0.0015935637,0.14603662,0.1079505
95,1438331473966,0.0073967837,0.15336701,0.10672877
96,1438331473968,0.008923948,0.15397789,0.101536416
97,1438331473969,0.017781492,0.15489417,0.10397988
98,1438331473970,0.01961409,0.1597811,0.10520161
99,1438331473971,0.017170627,0.16283542,0.105812475
100,1438331473992,0.0025098622,0.17169297,0.105812475
101,1438331474009,0.0018989965,0.17871793,0.106117904
102,1438331474029,-0.0039042234,0.16619518,0.110088535
103,1438331474054,-0.00023902953,0.15550505,0.11436459
104,1438331474078,0.010756545,0.14603662,0.10947767
105,1438331474092,0.011672843,0.14603662,0.11100483
106,1438331474109,0.014421735,0.14878553,0.104590744
107,1438331474129,0.008618515,0.15489417,0.11558632
108,1438331474148,0.008313082,0.15092355,0.11222656
109,1438331474172,0.0025098622,0.14542577,0.11558632
110,1438331474191,-0.0026824921,0.1457312,0.10917223
111,1438331474211,-0.0014607608,0.15519962,0.110393964
112,1438331474231,-0.00023902953,0.15245071,0.11344829
113,1438331474251,0.009534813,0.14695293,0.11222656
114,1438331474269,0.012283709,0.14909096,0.11650261
115,1438331474291,0.008618515,0.15214528,0.1097831
116,1438331474312,0.002815295,0.18329942,0.1097831
117,1438331474331,0.0052587576,0.21659157,0.10489618
118,1438331474350,0.008923948,0.2364447,0.10245272
119,1438331474371,0.009840246,0.24927285,0.09726036
120,1438331474391,0.016254332,0.25018916,0.094511464
121,1438331474410,0.010145679,0.23797186,0.09634406
122,1438331474429,-0.0023770593,0.22208935,0.10184185
123,1438331474448,-0.00023902953,0.21689701,0.105812475
124,1438331474472,0.0037315935,0.21109378,0.104285315
125,1438331474492,0.0040370263,0.20223624,0.1079505
126,1438331474512,0.009229381,0.18421571,0.10672877
127,1438331474531,0.010451112,0.17719075,0.10825594
128,1438331474551,-0.0020716265,0.1643626,0.10856137
129,1438331474569,-0.009707443,0.16375172,0.1106994
130,1438331474590,-0.015205229,0.15550505,0.11100483
131,1438331474610,-0.008791145,0.15275615,0.11100483
132,1438331474632,6.64033e-05,0.15153442,0.11375372
133,1438331474683,0.0009827018,0.14542577,0.11680805
134,1438331474699,0.002815295,0.1457312,0.11680805
135,1438331474700,0.0018989965,0.13870625,0.118946075
136,1438331474709,-0.010318305,0.13595736,0.115891755
137,1438331474735,-0.01642696,0.15550505,0.1106994
138,1438331474751,-0.020397583,0.17444187,0.11405916
139,1438331474769,-0.013678066,0.17199841,0.11802978
140,1438331474791,-0.0075694136,0.15275615,0.12994166
141,1438331474810,-0.0017661937,0.12312919,0.11986238
142,1438331474833,0.014116302,0.112133615,0.12505473
143,1438331474849,0.017170627,0.09900001,0.12505473
144,1438331474872,0.014727168,0.095029384,0.12444387
145,1438331474889,0.008618515,0.095029384,0.11986238
146,1438331474912,-0.009402011,0.11518794,0.110088535
147,1438331474932,-0.01978672,0.1597811,0.10825594
148,1438331474952,-0.02009215,0.18177225,0.10856137
149,1438331474972,-0.014288932,0.17780162,0.10825594
150,1438331474992,0.00037183613,0.17535818,0.105812475
151,1438331475012,0.0077022165,0.1765799,0.10642334
152,1438331475032,0.019003224,0.18146682,0.110393964
153,1438331475052,0.016559761,0.18177225,0.11131026
154,1438331475073,0.006480489,0.16314086,0.116197184
155,1438331475092,-0.0039042234,0.15061812,0.11436459
156,1438331475113,-0.0026824921,0.14603662,0.111921124
157,1438331475132,0.004647892,0.15306158,0.115891755
158,1438331475152,0.013200004,0.14939639,0.117724344
159,1438331475172,0.01136741,0.14695293,0.118946075
160,1438331475200,0.012894571,0.14481491,0.11680805
161,1438331475209,0.011672843,0.13595736,0.11925151
162,1438331475229,0.0015935637,0.13473563,0.111921124
163,1438331475249,-0.001155328,0.13962255,0.12016781
164,1438331475269,-0.0014607608,0.1344302,0.12169497
165,1438331475289,6.64033e-05,0.13870625,0.11955694
166,1438331475309,0.0052587576,0.1457312,0.11802978
167,1438331475330,0.009534813,0.14695293,0.118946075
168,1438331475349,0.00067726895,0.13290304,0.117113486
169,1438331475404,0.00037183613,0.12862697,0.11864065
170,1438331475405,-0.002987925,0.1298487,0.11467002
171,1438331475416,-0.0075694136,0.12862697,0.118946075
172,1438331475436,-0.013372634,0.1325976,0.11497545
173,1438331475450,-0.0039042234,0.13809538,0.118946075
174,1438331475471,0.0025098622,0.12312919,0.11955694
175,1438331475489,0.008923948,0.12618351,0.12077867
176,1438331475516,0.007091351,0.12160203,0.12413843
177,1438331475531,0.008007649,0.1185477,0.12077867
178,1438331475551,0.0015935637,0.12832154,0.1220004
179,1438331475570,-0.0026824921,0.12618351,0.11986238
180,1438331475590,0.00067726895,0.12801611,0.1220004
181,1438331475613,-0.001155328,0.12923783,0.12108411
182,1438331475630,0.0012881309,0.1298487,0.115891755
183,1438331475653,0.0077022165,0.14237145,0.117418915
184,1438331475673,0.0135054365,0.14725837,0.12230584
185,1438331475693,0.011672843,0.14328775,0.12016781
186,1438331475713,0.0058696233,0.13962255,0.12016781
187,1438331475733,0.0022044294,0.12648895,0.12016781
188,1438331475751,0.0018989965,0.11518794,0.11955694
189,1438331475774,-0.0057368167,0.11610424,0.12016781
190,1438331475792,-0.0057368167,0.12618351,0.11925151
191,1438331475815,-0.0023770593,0.13107044,0.11344829
192,1438331475833,0.0077022165,0.12496178,0.12016781
193,1438331475850,0.015643466,0.11304991,0.11955694
194,1438331475881,0.01136741,0.11396621,0.11650261
195,1438331475894,0.0073967837,0.14450946,0.111921124
196,1438331475913,0.0034261607,0.15183985,0.11955694
197,1438331475933,0.0012881309,0.142066,0.11650261
198,1438331475953,0.012894571,0.14328775,0.11986238
199,1438331475973,0.026333604,0.13687366,0.11833521
200,1438331475993,0.031525966,0.11640967,0.11650261
201,1438331476013,0.02694447,0.11335534,0.115891755
202,1438331476034,0.0040370263,0.119769424,0.111615695
203,1438331476054,-0.009707443,0.14176057,0.10184185
204,1438331476073,-0.007874846,0.16314086,0.10825594
205,1438331476092,-0.001155328,0.16833322,0.10489618
206,1438331476158,0.008313082,0.16253,0.10856137
207,1438331476159,0.010451112,0.14939639,0.10764507
208,1438331476160,0.008923948,0.15367246,0.11650261
209,1438331476170,0.008313082,0.14939639,0.12169497
210,1438331476196,0.004953325,0.12740524,0.12077867
211,1438331476210,0.004647892,0.1167151,0.11986238
212,1438331476230,-0.0035987906,0.10510866,0.123833
213,1438331476252,-0.008791145,0.10846842,0.12261127
214,1438331476275,-0.004820518,0.106330395,0.12108411
215,1438331476292,-0.002987925,0.10907929,0.12597103
216,1438331476311,0.0055641904,0.11885313,0.12261127
217,1438331476333,0.0073967837,0.12068573,0.12505473
218,1438331476350,0.0040370263,0.113660775,0.11955694
219,1438331476374,0.0034261607,0.11457707,0.12016781
220,1438331476391,0.0034261607,0.112133615,0.11802978
221,1438331476414,-0.0026824921,0.11182818,0.11864065
222,1438331476434,0.004953325,0.112439044,0.11436459
223,1438331476454,0.0015935637,0.12557265,0.11375372
224,1438331476474,0.00067726895,0.13290304,0.11283743
225,1438331476493,-0.0039042234,0.13504106,0.113142855
226,1438331476511,-0.0017661937,0.13901168,0.11100483
227,1438331476534,-0.005125951,0.14359318,0.110393964
228,1438331476551,-0.0039042234,0.14634207,0.1079505
229,1438331476571,6.64033e-05,0.13962255,0.111921124
230,1438331476591,0.0034261607,0.12771067,0.11405916
231,1438331476616,0.010756545,0.13778995,0.1106994
232,1438331476633,0.013200004,0.14725837,0.10672877
233,1438331478199,0.006175056,0.15855938,0.10336901
234,1438331478200,-0.0023770593,0.15794851,0.105812475
235,1438331478201,-0.0075694136,0.15092355,0.111921124
236,1438331478202,-0.0075694136,0.13748452,0.117418915
237,1438331478203,6.64033e-05,0.12709981,0.116197184
238,1438331478204,0.0055641904,0.12557265,0.11558632
239,1438331478205,0.007091351,0.12557265,0.11436459
240,1438331478206,0.0077022165,0.11304991,0.11497545
241,1438331478207,0.006175056,0.11030102,0.117418915
242,1438331478208,0.0009827018,0.10235977,0.11283743
243,1438331478209,0.0058696233,0.08586641,0.110088535
244,1438331478210,0.0015935637,0.073038235,0.10856137
245,1438331478211,0.0052587576,0.056544874,0.110393964
246,1438331478212,0.0018989965,0.03730262,0.110088535
247,1438331478213,0.0015935637,0.026917912,0.11802978
248,1438331478214,-0.005125951,0.03027767,0.11375372
249,1438331478215,-0.0042096563,0.050130792,0.11344829
250,1438331478216,-0.00023902953,0.061431795,0.116197184
251,1438331478217,-0.0017661937,0.04402214,0.11467002
252,1438331478218,-0.0045150854,0.033026565,0.11436459
253,1438331478219,-0.0032933578,0.047992762,0.110393964
254,1438331478220,0.004342459,0.08800443,0.115891755
255,1438331478221,0.016254332,0.1026652,0.12077867
256,1438331478222,0.016559761,0.10541409,0.117724344
257,1438331478223,0.008007649,0.09930544,0.11375372
258,1438331478224,-0.00023902953,0.090142466,0.115891755
259,1438331478225,0.0015935637,0.07792516,0.110088535
260,1438331478226,-0.002987925,0.06937304,0.110393964
261,1438331478227,-0.008791145,0.07823059,0.10856137
262,1438331478228,-0.012761768,0.100832604,0.10856137
263,1438331478229,-0.006958548,0.1344302,0.10917223
264,1438331478230,0.0022044294,0.14145514,0.111921124
265,1438331478231,0.002815295,0.11427164,0.11253199
266,1438331478232,6.64033e-05,0.10113804,0.10856137
267,1438331478233,-0.0057368167,0.10510866,0.10642334
268,1438331478234,-0.004820518,0.11427164,0.11467002
269,1438331478235,-0.008485712,0.10846842,0.10856137
270,1438331478236,-0.012761768,0.08830987,0.11405916
271,1438331478237,-0.012150902,0.06937304,0.117418915
272,1438331478238,-0.0063476823,0.06387526,0.11222656
273,1438331478239,-0.0039042234,0.07975776,0.11375372
274,1438331478240,-0.0045150854,0.10877386,0.11253199
275,1438331478241,-0.0035987906,0.12129659,0.10917223
276,1438331478242,-0.0020716265,0.11610424,0.111921124
277,1438331478243,-0.006958548,0.11702053,0.1097831
278,1438331478244,-0.0060422495,0.11640967,0.11344829
279,1438331478245,-0.0075694136,0.11640967,0.110088535
280,1438331478246,-0.007874846,0.12648895,0.10306358
281,1438331478247,-0.0045150854,0.15611592,0.094511464
282,1438331478248,-0.0008498952,0.16772234,0.09634406
283,1438331478249,0.0031207278,0.16863865,0.10275815
284,1438331478250,0.0052587576,0.16527888,0.10336901
285,1438331478251,-0.005431384,0.173831,0.09909296
286,1438331478252,-0.014899798,0.18329942,0.09909296
287,1438331478253,-0.010623738,0.20926118,0.09115171
288,1438331478254,0.0055641904,0.23949902,0.08962455
289,1438331478255,-0.0017661937,0.2413316,0.08779195
290,1438331478256,-0.008485712,0.2187296,0.08901368
291,1438331478257,-0.013983499,0.2028471,0.0948169
292,1438331478258,-0.020703016,0.18543744,0.09328974
293,1438331478259,-0.024062775,0.18055052,0.09206801
294,1438331478260,-0.016732393,0.1774962,0.09237344
295,1438331478261,-0.012761768,0.15031269,0.09756579
296,1438331478262,-0.010012876,0.13778995,0.09603863
297,1438331478263,-0.008791145,0.1570322,0.09328974
298,1438331478264,-0.016732393,0.16894409,0.09145714
299,1438331478265,-0.021619314,0.23216863,0.089929976
300,1438331478266,-0.027727967,0.26026845,0.087181084
301,1438331478267,-0.043915894,0.26118475,0.082294166
302,1438331478268,-0.06102012,0.248662,0.081072435
303,1438331478269,-0.07842978,0.26210102,0.07496378
304,1438331478270,-0.08148411,0.2532435,0.07313119
305,1438331478271,-0.074764594,0.24469137,0.072520316
306,1438331478272,-0.06804507,0.24438594,0.0667171
307,1438331478273,-0.06529618,0.25629783,0.06854969
308,1438331478274,-0.08301127,0.24835657,0.081072435
309,1438331478275,-0.084233,0.25965756,0.092984304
310,1438331478276,-0.08240041,0.2440805,0.09756579
311,1438331478277,-0.07293199,0.22483826,0.1106994
312,1438331478278,-0.06896137,0.23339036,0.12169497
313,1438331478279,-0.09278512,0.22789258,0.1491839
314,1438331478280,-0.106835015,0.13320847,0.17911631
315,1438331478291,-0.09614487,0.073038235,0.19469337
316,1438331478311,-0.078124344,0.005843058,0.21546279
317,1438331478331,-0.06560161,-0.0146209225,0.23073441
318,1438331478351,-0.09125795,-0.043026164,0.26463744
319,1438331478371,-0.1300479,-0.18993925,0.28968292
320,1438331478392,-0.124550104,-0.40313125,0.28754488
321,1438331478415,-0.074764594,-0.5323292,0.27990907
322,1438331478431,-0.040250704,-0.6099091,0.28174168
323,1438331478452,-0.015816094,-0.64320123,0.27929822
324,1438331478471,-0.011540037,-0.707953,0.2783819
325,1438331478491,-0.031698592,-0.73422015,0.2838797
326,1438331478511,-0.06529618,-0.7140616,0.28968292
327,1438331478531,-0.0692668,-0.6795477,0.2997622
328,1438331478551,-0.07445916,-0.6963465,0.2988459
329,1438331478571,-0.08881449,-0.6935976,0.27105153
330,1438331478591,-0.123022944,-0.64625555,0.24142456
331,1438331478611,-0.16425635,-0.5839473,0.19774769
332,1438331478631,-0.18288775,-0.5069783,0.16017948
333,1438331478651,-0.2097658,-0.48498714,0.12627646
334,1438331478671,-0.32888454,-0.45810908,0.03525754
335,1438331478695,-0.4531956,-0.288594,-0.08263945
336,1438331478712,-0.3988286,-0.061962977,-0.15777588
337,1438331478734,-0.29895213,-0.17405675,-0.16693884
338,1438331478752,-0.19357789,-0.34540445,-0.13975537
339,1438331478772,-0.24855575,-0.38144553,-0.11257184
340,1438331478793,-0.374394,-0.28004187,-0.086915515
341,1438331478813,-0.3566789,-0.22995092,-0.088442676
342,1438331478833,-0.43395334,-0.12060605,-0.100659974
343,1438331478856,-0.6291248,0.027223341,-0.102187134
344,1438331478872,-0.6220999,0.2523272,-0.04873643
345,1438331478894,-0.57903385,0.43375415,-0.08752637
346,1438331478916,-0.52680486,0.38060892,-0.20267448
347,1438331478934,-0.5316918,0.411763,-0.21305919
348,1438331478955,-0.6792157,0.5498186,-0.19717667
349,1438331478976,-0.94219327,0.60082585,-0.2610121
350,1438331478993,-1.0524544,0.6970371,-0.3547799
351,1438331479016,-0.91165,0.77614415,-0.39356986
352,1438331479034,-0.9235619,0.7730898,-0.36241573
353,1438331479056,-1.1227039,1.0525607,-0.27353483
354,1438331479076,-1.6309438,1.1527426,-0.26040122
355,1438331479093,-1.2436552,1.51804,-0.20847768
356,1438331479115,-0.70731556,0.97467536,-0.3199606
357,1438331479133,-0.8349864,-0.13343422,-0.5664447
358,1438331479156,-0.9599083,0.05043622,-0.5682773
359,1438331479176,-1.0228274,0.60296386,-0.42808372
360,1438331479195,-1.0023634,0.6600798,-0.33156702
361,1438331479214,-1.1248419,0.7663703,-0.39723504
362,1438331479235,-1.0573413,0.8207373,-0.39815134
363,1438331479253,-1.0484837,0.9655124,-0.4650411
364,1438331479276,-1.11293,1.207415,-0.479091
365,1438331479295,-1.3135992,1.2437615,-0.46015418
366,1438331479315,-1.4073671,1.1163961,-0.45923787
367,1438331479336,-1.3368121,0.9572657,-0.5163538
368,1438331479361,-1.269617,0.97559166,-0.5343743
369,1438331479426,-1.2949679,1.0143815,-0.5136049
370,1438331479427,-1.3838488,1.1264753,-0.42533487
371,1438331479428,-1.5539747,0.9994154,-0.36088857
372,1438331479435,-1.5680246,0.7963027,-0.28391954
373,1438331479454,-1.4785329,0.7260532,-0.3114085
374,1438331479474,-1.5127413,0.7694246,-0.3123248
375,1438331479493,-1.6089526,0.8375361,-0.21764067
376,1438331479517,-1.6220862,0.8583055,-0.15105635
377,1438331479533,-1.575355,0.8195156,-0.091497
378,1438331479579,-1.5383977,0.72024995,-0.07591993
379,1438331479580,-1.5545856,0.6466407,-0.007808462
380,1438331479594,-1.5408411,0.63381255,0.07862897
