id,attr_time,attr_x,attr_y,attr_z
1,1438331472021,-0.0021380284,0.040927973,0.005192355
2,1438331472044,-0.003970624,0.043676864,0.0036651916
3,1438331472063,-0.005497787,0.03940081,-0.0009162979
4,1438331472081,0.0012217305,0.03481932,0.0021380284
5,1438331472102,-0.003970624,0.038789943,0.0036651916
6,1438331472124,-0.002443461,0.036957346,0.0015271631
7,1438331472144,-0.002443461,0.03176499,0.003970624
8,1438331472164,0.005192355,0.030543262,-0.0009162979
9,1438331472185,0.007941248,0.03023783,0.005497787
10,1438331472204,0.010995574,0.022907447,0.007941248
11,1438331472225,0.015882496,0.023518313,0.009162978
12,1438331472243,0.018020526,0.022907447,0.008552114
13,1438331472262,0.02687807,0.026267206,0.0067195175
14,1438331472282,0.03023783,0.02443461,0.008246681
15,1438331472302,0.030543262,0.016798794,0.015271631
16,1438331472321,0.03145956,0.015577064,0.014660766
17,1438331472344,0.03359759,0.0143553335,0.013133603
18,1438331472368,0.038789943,0.01985312,0.01282817
19,1438331472386,0.043066,0.022602014,0.009773844
20,1438331472405,0.041233405,0.015271631,0.011301007
21,1438331472425,0.046731193,0.014966198,0.010079277
22,1438331472444,0.04886922,0.01282817,0.0143553335
23,1438331472462,0.04795292,0.011301007,0.012217305
24,1438331472482,0.05589417,0.0036651916,0.010079277
25,1438331472551,0.05589417,0.0061086523,0.009468411
26,1438331472552,0.04642576,0.005497787,0.004276057
27,1438331472553,0.043066,0.004581489,0.005192355
28,1438331472575,0.05131268,0.006414085,0.007941248
29,1438331472583,0.05009095,0.0061086523,0.0015271631
30,1438331472602,0.038789943,0.004886922,0.0027488936
31,1438331472623,0.036957346,0.006414085,0.00030543262
32,1438331472642,0.03481932,0.007941248,0.0021380284
33,1438331472662,0.028099801,0.008857546,0.0021380284
34,1438331472684,0.022602014,0.009773844,-0.004581489
35,1438331472703,0.01863139,0.01038471,-0.003970624
36,1438331472724,0.014660766,0.011911872,-0.009468411
37,1438331472747,0.018936822,0.013439035,-0.0070249503
38,1438331472765,0.018936822,0.020463986,-0.011301007
39,1438331472786,0.01038471,0.020463986,-0.0106901415
40,1438331472805,0.010079277,0.012217305,-0.015577064
41,1438331472822,0.015577064,0.012217305,-0.013133603
42,1438331472843,0.010079277,0.016493361,-0.016493361
43,1438331472863,0.003970624,0.008552114,-0.014049901
44,1438331472885,0.008246681,0.013744468,-0.017104227
45,1438331472905,0.024129177,0.03481932,-0.021685716
46,1438331472925,0.016798794,0.03970624,-0.015882496
47,1438331472945,0.0143553335,0.034513887,-0.017104227
48,1438331472967,0.01038471,0.035124753,-0.019547688
49,1438331472986,0.00061086525,0.032986723,-0.019242255
50,1438331473004,-0.0027488936,0.035430185,-0.018020526
51,1438331473025,0.00061086525,0.04153884,-0.023823744
52,1438331473045,-0.0009162979,0.041233405,-0.023518313
53,1438331473065,-0.0021380284,0.043676864,-0.02107485
54,1438331473085,-0.0012217305,0.043066,-0.020463986
55,1438331473106,-0.007941248,0.04795292,-0.02076942
56,1438331473125,-0.016493361,0.036957346,-0.017104227
57,1438331473144,-0.013744468,0.038789943,-0.018936822
58,1438331473166,-0.010079277,0.05589417,-0.017715093
59,1438331473186,-0.005192355,0.050701816,-0.0106901415
60,1438331473207,-0.004886922,0.04886922,-0.013439035
61,1438331473225,-0.0018325958,0.054367006,-0.015577064
62,1438331473315,0.0027488936,0.0580322,-0.015577064
63,1438331473316,0.0018325958,0.056199603,-0.016493361
64,1438331473317,-0.0027488936,0.05467244,-0.016187929
65,1438331473318,-0.003970624,0.052839845,-0.0143553335
66,1438331473329,-0.005192355,0.055283304,-0.014966198
67,1438331473346,-0.0076358155,0.05467244,-0.014049901
68,1438331473367,-0.008552114,0.054061573,-0.012217305
69,1438331473382,-0.0070249503,0.05681047,-0.015271631
70,1438331473413,-0.005497787,0.054061573,-0.013439035
71,1438331473437,-0.0033597588,0.05375614,-0.008552114
72,1438331473448,-0.0015271631,0.0571159,-0.007330383
73,1438331473465,0.0021380284,0.05467244,-0.008857546
74,1438331473484,0.0012217305,0.05589417,-0.009773844
75,1438331473503,-0.0033597588,0.05589417,-0.01038471
76,1438331473523,0.0,0.06047566,-0.010079277
77,1438331473545,0.0018325958,0.053450707,-0.0067195175
78,1438331473565,-0.0012217305,0.055588737,-0.003970624
79,1438331473585,0.0012217305,0.05131268,-0.0027488936
80,1438331473606,0.004581489,0.047647487,0.0009162979
81,1438331473625,0.009162978,0.055283304,0.00030543262
82,1438331473647,0.01282817,0.055588737,0.00030543262
83,1438331473664,0.012217305,0.060170226,0.0
84,1438331473684,0.010995574,0.061391957,0.0033597588
85,1438331473702,0.013133603,0.055588737,0.00580322
86,1438331473734,0.00580322,0.056199603,0.005192355
87,1438331473747,0.008246681,0.058643065,0.004886922
88,1438331473766,0.01038471,0.06047566,0.0033597588
89,1438331473797,0.0106901415,0.06169739,0.004276057
90,1438331473806,0.0033597588,0.058948494,0.01160644
91,1438331473825,0.003970624,0.05467244,0.007330383
92,1438331473846,0.0067195175,0.058337633,0.0076358155
93,1438331473866,0.004581489,0.057421334,0.009468411
94,1438331473887,0.012217305,0.045814894,0.010079277
95,1438331473908,0.004886922,0.06047566,0.011911872
96,1438331473926,0.003970624,0.050701816,0.012217305
97,1438331473945,0.00030543262,0.04184427,0.015882496
98,1438331473966,-0.0015271631,0.03848451,0.01282817
99,1438331473996,0.009468411,0.054061573,0.008552114
100,1438331474070,0.01863139,0.059864793,0.0125227375
101,1438331474071,0.022602014,0.057726767,0.010995574
102,1438331474072,0.021380283,0.051923547,0.01038471
103,1438331474073,0.01740966,0.052534413,0.0143553335
104,1438331474088,0.012217305,0.049480084,0.016187929
105,1438331474107,0.015882496,0.05100725,0.011911872
106,1438331474125,0.018325957,0.052534413,0.014966198
107,1438331474145,0.025350908,0.055588737,0.0125227375
108,1438331474165,0.030848695,0.047647487,0.016798794
109,1438331474183,0.031154128,0.04520403,0.016798794
110,1438331474203,0.023823744,0.04428773,0.018936822
111,1438331474225,0.027183503,0.039095376,0.021685716
112,1438331474245,0.021685716,0.052839845,0.01863139
113,1438331474263,0.031154128,0.053145275,0.018020526
114,1438331474286,0.029321533,0.051923547,0.015577064
115,1438331474306,0.029626964,0.05131268,0.01160644
116,1438331474326,0.028405234,0.051618114,0.013744468
117,1438331474346,0.028710667,0.048563786,0.009468411
118,1438331474367,0.032986723,0.049480084,0.013439035
119,1438331474386,0.03268129,0.05100725,0.011911872
120,1438331474406,0.028099801,0.049480084,0.012217305
121,1438331474423,0.032070424,0.047647487,0.0106901415
122,1438331474444,0.032986723,0.047036625,0.011301007
123,1438331474465,0.038789943,0.04428773,0.01160644
124,1438331474484,0.035124753,0.04917465,0.009773844
125,1438331474506,0.028710667,0.045814894,0.014660766
126,1438331474535,0.027183503,0.04153884,0.010995574
127,1438331474543,0.023518313,0.044593163,0.01038471
128,1438331474563,0.02443461,0.040011674,0.010995574
129,1438331474585,0.024129177,0.042455133,0.00580322
130,1438331474604,0.02076942,0.04428773,0.01038471
131,1438331474624,0.018936822,0.0421497,0.009773844
132,1438331474644,0.01740966,0.039095376,0.0067195175
133,1438331474665,0.02076942,0.038789943,0.0076358155
134,1438331474686,0.024740042,0.040317107,0.010995574
135,1438331474707,0.020463986,0.039095376,0.012217305
136,1438331474724,0.021991149,0.03848451,0.009162978
137,1438331474857,0.01985312,0.04062254,0.0076358155
138,1438331474858,0.01985312,0.043066,0.005192355
139,1438331474859,0.017715093,0.04550946,0.00580322
140,1438331474860,0.016493361,0.048563786,0.008246681
141,1438331474861,0.01740966,0.04520403,0.007941248
142,1438331474862,0.019547688,0.046731193,0.006414085
143,1438331474865,0.0106901415,0.04886922,0.008552114
144,1438331474890,0.011911872,0.044593163,0.0070249503
145,1438331474908,0.014966198,0.048258353,0.011301007
146,1438331474925,0.0143553335,0.05009095,0.0106901415
147,1438331474945,0.013439035,0.046120327,0.010995574
148,1438331474964,0.013744468,0.043982297,0.008857546
149,1438331474983,0.01985312,0.04520403,0.0061086523
150,1438331475005,0.024129177,0.04917465,0.003970624
151,1438331475024,0.022602014,0.040927973,0.005192355
152,1438331475046,0.013439035,0.04153884,0.005497787
153,1438331475066,0.019547688,0.04734206,0.007941248
154,1438331475087,0.016187929,0.042760566,0.009468411
155,1438331475107,0.015577064,0.028710667,0.002443461
156,1438331475125,0.026572637,0.04062254,0.0036651916
157,1438331475144,0.032070424,0.059253927,0.0033597588
158,1438331475166,0.036957346,0.04795292,0.0036651916
159,1438331475186,0.033292156,0.043676864,0.00030543262
160,1438331475207,0.029321533,0.03940081,0.0009162979
161,1438331475225,0.025961773,0.036651913,-0.0012217305
162,1438331475247,0.01985312,0.03970624,-0.0012217305
163,1438331475267,0.02443461,0.043676864,-0.0012217305
164,1438331475285,0.029321533,0.044898596,-0.0021380284
165,1438331475304,0.027183503,0.040317107,-0.0018325958
166,1438331475326,0.023823744,0.038179077,-0.00061086525
167,1438331475346,0.014049901,0.040927973,0.0061086523
168,1438331475366,0.014660766,0.030543262,0.0061086523
169,1438331475419,0.015577064,0.046731193,0.0009162979
170,1438331475420,0.009468411,0.05009095,-0.00061086525
171,1438331475426,0.014660766,0.04428773,-0.00030543262
172,1438331475446,0.015577064,0.04520403,-0.004886922
173,1438331475465,0.017715093,0.04520403,-0.0021380284
174,1438331475485,0.013439035,0.04520403,0.0027488936
175,1438331475556,0.01282817,0.04153884,0.0009162979
176,1438331475557,0.01282817,0.03756821,0.0061086523
177,1438331475558,0.0106901415,0.04062254,0.0015271631
178,1438331475578,0.013133603,0.03970624,0.0027488936
179,1438331475586,0.01282817,0.03940081,0.010079277
180,1438331475606,0.01038471,0.040317107,0.008857546
181,1438331475627,0.008246681,0.04062254,0.0036651916
182,1438331475645,0.006414085,0.040927973,0.0036651916
183,1438331475665,0.0106901415,0.03726278,0.0030543262
184,1438331475686,0.014049901,0.042455133,0.0036651916
185,1438331475707,0.013744468,0.042760566,0.0030543262
186,1438331475726,0.015882496,0.04642576,0.003970624
187,1438331475748,0.01740966,0.04428773,0.00061086525
188,1438331475778,0.016187929,0.046120327,0.0021380284
189,1438331475788,0.01985312,0.04184427,0.0015271631
190,1438331475806,0.014049901,0.044593163,0.00061086525
191,1438331475826,0.0125227375,0.0421497,0.00030543262
192,1438331475848,0.020158553,0.04062254,0.002443461
193,1438331475866,0.019242255,0.046731193,-0.0027488936
194,1438331475885,0.018936822,0.04642576,-0.0009162979
195,1438331475906,0.025961773,0.042760566,0.004886922
196,1438331475926,0.025961773,0.040317107,0.005497787
197,1438331475947,0.028710667,0.03634648,0.0033597588
198,1438331475970,0.03634648,0.038179077,0.0067195175
199,1438331475985,0.04520403,0.03145956,0.004581489
200,1438331476007,0.04795292,0.029932396,0.01038471
201,1438331476030,0.046731193,0.03023783,0.008857546
202,1438331476049,0.05375614,0.027183503,0.0125227375
203,1438331476069,0.050701816,0.02107485,0.0125227375
204,1438331476088,0.055283304,0.022602014,0.0106901415
205,1438331476108,0.05681047,0.023823744,0.011301007
206,1438331476127,0.05589417,0.019242255,0.012217305
207,1438331476146,0.0571159,0.02321288,0.009773844
208,1438331476166,0.058643065,0.026572637,0.0076358155
209,1438331476189,0.058643065,0.021380283,0.005497787
210,1438331476211,0.058643065,0.017715093,0.0018325958
211,1438331476228,0.062002823,0.021380283,0.0030543262
212,1438331476247,0.055588737,0.012217305,0.004886922
213,1438331476308,0.053450707,0.0021380284,0.009773844
214,1438331476309,0.05222898,0.009162978,0.0018325958
215,1438331476310,0.05681047,0.03359759,0.0018325958
216,1438331476327,0.06078109,0.030543262,-0.0015271631
217,1438331476346,0.0580322,0.02443461,0.002443461
218,1438331476371,0.04886922,0.022296581,0.0027488936
219,1438331476385,0.035430185,0.023518313,0.0027488936
220,1438331476407,0.03359759,0.026572637,0.004276057
221,1438331476427,0.04184427,0.032070424,0.0030543262
222,1438331476446,0.042760566,0.03268129,0.0009162979
223,1438331476467,0.04062254,0.03359759,0.00061086525
224,1438331476486,0.040011674,0.03023783,0.003970624
225,1438331476509,0.03573562,0.03268129,0.008857546
226,1438331476530,0.036957346,0.025961773,0.009468411
227,1438331476550,0.03176499,0.03481932,0.009773844
228,1438331476569,0.022907447,0.0421497,0.008246681
229,1438331476588,0.022907447,0.038179077,0.006414085
230,1438331476607,0.021380283,0.036957346,0.007330383
231,1438331476626,0.021991149,0.03970624,0.0106901415
232,1438331476645,0.021380283,0.040927973,0.0067195175
233,1438331476666,0.019547688,0.04642576,0.0106901415
234,1438331476688,0.016493361,0.040317107,0.011301007
235,1438331476710,0.014660766,0.03970624,0.01038471
236,1438331476726,0.013744468,0.043676864,0.009468411
237,1438331476748,0.008857546,0.047647487,0.009468411
238,1438331476777,0.008857546,0.04642576,0.010079277
239,1438331476794,0.0067195175,0.056199603,0.009162978
240,1438331476813,0.0070249503,0.052534413,0.010079277
241,1438331476829,0.008857546,0.051618114,0.009773844
242,1438331476848,0.0125227375,0.04917465,0.011301007
243,1438331476867,0.01282817,0.05375614,0.008857546
244,1438331476886,0.0125227375,0.055283304,0.011301007
245,1438331476908,0.0143553335,0.051618114,0.0076358155
246,1438331476928,0.021685716,0.054061573,0.0061086523
247,1438331476949,0.027488936,0.052839845,0.004886922
248,1438331476966,0.03145956,0.057726767,0.010079277
249,1438331477039,0.03023783,0.052534413,0.013133603
250,1438331477040,0.03756821,0.050396383,0.009468411
251,1438331477041,0.043676864,0.046731193,0.01160644
252,1438331477061,0.046120327,0.049480084,0.0106901415
253,1438331477070,0.04550946,0.053145275,0.01038471
254,1438331477086,0.05100725,0.05131268,0.009773844
255,1438331477110,0.06261369,0.050701816,0.010995574
256,1438331477126,0.064446285,0.057421334,0.013744468
257,1438331477146,0.074830994,0.05467244,0.011911872
258,1438331477168,0.083383106,0.05100725,0.013133603
259,1438331477187,0.09468412,0.053145275,0.016187929
260,1438331477207,0.1020145,0.048563786,0.016798794
261,1438331477228,0.1142318,0.038789943,0.021380283
262,1438331477251,0.12858713,0.03604105,0.019242255
263,1438331477270,0.14935656,0.032070424,0.023518313
264,1438331477289,0.18081611,0.030543262,0.02687807
265,1438331477308,0.21135938,0.01863139,0.031154128
266,1438331477327,0.23151793,0.0027488936,0.03726278
267,1438331477347,0.2565634,0.0015271631,0.040011674
268,1438331477366,0.29718593,-0.013439035,0.05100725
269,1438331477387,0.3304781,-0.037873644,0.06291912
270,1438331477408,0.38087448,-0.048258353,0.070249505
271,1438331477428,0.42913285,-0.05131268,0.07666359
272,1438331477450,0.45998153,-0.07941248,0.08674286
273,1438331477473,0.49388456,-0.10567969,0.10170906
274,1438331477493,0.5375614,-0.13408493,0.113926366
275,1438331477513,0.56230146,-0.15882497,0.1328632
276,1438331477533,0.5757405,-0.19242255,0.14752395
277,1438331477551,0.6114761,-0.21410827,0.16707164
278,1438331477566,0.6291912,-0.25320363,0.19181168
279,1438331477587,0.6398814,-0.29749137,0.2134974
280,1438331477609,0.66431594,-0.35033122,0.28130344
281,1438331477632,0.6835582,-0.40469822,0.301462
282,1438331477652,0.68508536,-0.43249258,0.2706133
283,1438331477667,0.698219,-0.50854534,0.3036
284,1438331477687,0.698219,-0.5564982,0.32467487
285,1438331477711,0.711658,-0.6151413,0.34513888
286,1438331477819,0.74036866,-0.6582073,0.35613444
287,1438331477820,0.7495316,-0.7119634,0.37659842
288,1438331477821,0.7507534,-0.7611381,0.40744713
289,1438331477822,0.7629707,-0.8164214,0.44104472
290,1438331477823,0.7611381,-0.8671232,0.45998153
291,1438331477840,0.75808376,-0.8906415,0.48288897
292,1438331477852,0.7693848,-0.91507614,0.5021312
293,1438331477872,0.7644979,-0.94042706,0.5174029
294,1438331477887,0.77213365,-0.93309665,0.52320606
295,1438331477908,0.784351,-0.91415983,0.5183192
296,1438331477943,0.795652,-0.8717047,0.4972443
297,1438331477947,0.79198676,-0.8268061,0.49449542
298,1438331477967,0.79626286,-0.77121735,0.52870387
299,1438331477988,0.81306165,-0.72234815,0.5412266
300,1438331478009,0.82619524,-0.6704246,0.52320606
301,1438331478029,0.8359691,-0.6096435,0.66339964
302,1438331478048,0.8347474,-0.54519725,0.5491679
303,1438331478068,0.8237518,-0.48166725,0.4905248
304,1438331478087,0.8197812,-0.4111123,0.44959682
305,1438331478107,0.83108217,-0.30848694,0.41508293
306,1438331478128,0.8197812,-0.20219639,0.39400807
307,1438331478149,0.8374963,-0.08093964,0.3652974
308,1438331478169,0.8417723,0.014049901,0.39095375
309,1438331478190,0.84696466,0.105068825,0.312763
310,1438331478214,0.8347474,0.2003638,0.2507602
311,1438331478232,0.8167268,0.30024028,0.22632557
312,1438331478250,0.8145888,0.3921755,0.20769419
313,1438331478270,0.81183994,0.45814893,0.18387043
314,1438331478288,0.77396625,0.5381723,0.1518
315,1438331478308,0.7315111,0.5821546,0.15241088
316,1438331478330,0.6960809,0.61636305,0.105068825
317,1438331478351,0.6780604,0.61422503,0.08735373
318,1438331478372,0.69058317,0.6356053,0.045814894
319,1438331478390,0.7141015,0.6658431,-0.009162978
320,1438331478409,0.70921457,0.72143185,-0.052534413
321,1438331478429,0.6973027,0.7666359,-0.07727446
322,1438331478449,0.68325275,0.7993172,-0.11056661
323,1438331478540,0.68325275,0.8258898,-0.14935656
324,1438331478541,0.65148777,0.78893244,-0.17195857
325,1438331478542,0.6096435,0.7367035,-0.183565
326,1438331478543,0.6026186,0.6933321,-0.14569137
327,1438331478568,0.57787853,0.65026605,-0.21685717
328,1438331478569,0.5128214,0.77121735,-0.2828306
329,1438331478588,0.5122105,0.73945236,-0.2779437
330,1438331478609,0.5375614,0.72082096,-0.28191432
331,1438331478627,0.46028697,0.8063421,-0.31306845
332,1438331478653,0.38606682,0.82619524,-0.3277292
333,1438331478667,0.3277292,0.8903361,-0.3036
334,1438331478689,0.3042109,0.9416488,-0.37232238
335,1438331478710,0.23884831,0.9831876,-0.4156938
336,1438331478732,0.16737708,0.9465357,-0.4266894
337,1438331478751,0.11484267,0.91324353,-0.36743546
338,1438331478773,0.07880162,0.97249746,-0.32986724
339,1438331478789,0.018020526,1.0806206,-0.3100141
340,1438331478810,-0.020463986,1.131017,-0.364992
341,1438331478830,-0.055283304,1.196685,-0.43127087
342,1438331478849,-0.101098195,1.2211196,-0.5369505
343,1438331478870,-0.18417588,1.2776246,-0.58276546
344,1438331478889,-0.23487769,1.3658947,-0.548557
345,1438331478908,-0.24648413,1.4269812,-0.5983425
346,1438331478928,-0.27183503,1.500285,-0.6038403
347,1438331478949,-0.3747658,1.5601498,-0.5338962
348,1438331478968,-0.40408736,1.5677856,-0.52320606
349,1438331478988,-0.31429017,1.6475036,-0.74006325
350,1438331479008,-0.2751948,1.8304577,-0.904386
351,1438331479028,-0.28893927,1.9358319,-0.9462303
352,1438331479048,-0.3136793,1.994475,-1.0253373
353,1438331479072,-0.33261612,2.0809124,-1.0555751
354,1438331479092,-0.441961,2.158187,-1.047023
355,1438331479113,-0.62980205,2.2311852,-0.97310835
356,1438331479131,-0.7858781,2.2650883,-0.8127562
357,1438331479149,-0.8393288,2.2617285,-0.7470882
358,1438331479169,-0.90316427,2.2702806,-0.6426302
359,1438331479290,-0.91324353,2.2592852,-0.5216789
360,1438331479291,-0.8698721,2.172237,-0.5235115
361,1438331479300,-0.8900307,1.9761491,-0.5910121
362,1438331479301,-0.93492925,1.7275269,-0.6579019
363,1438331479302,-1.0894781,1.5467108,-0.7281514
364,1438331479303,-1.2519683,1.3732251,-0.58276546
365,1438331479311,-1.2959507,1.3374895,-0.42088616
366,1438331479338,-1.2767084,1.3979651,-0.3371976
367,1438331479349,-1.17897,1.4220943,-0.2724459
368,1438331479368,-1.1123856,1.393689,-0.26725355
369,1438331479390,-1.1087204,1.4492778,-0.22418754
370,1438331479409,-1.0720685,1.5164729,-0.23548855
371,1438331479432,-0.9447031,1.5839735,-0.27030787
372,1438331479449,-0.7498371,1.6093245,-0.3475823
373,1438331479470,-0.66156703,1.6050484,-0.44409904
374,1438331479490,-0.63438356,1.5641204,-0.52015173
375,1438331479509,-0.6188065,1.5231925,-0.5537493
376,1438331479528,-0.55680364,1.5259414,-0.605062
377,1438331479548,-0.49754974,1.5344934,-0.67103547
378,1438331479569,-0.47219884,1.4511104,-0.6737844
