id,attr_time,attr_x,attr_y,attr_z
1,1438331472009,-0.022602014,-0.003970624,0.014049901
2,1438331472081,-0.028710667,0.0009162979,0.013439035
3,1438331472085,-0.027488936,-0.0018325958,0.015577064
4,1438331472086,-0.030543262,-0.009162978,0.018020526
5,1438331472097,-0.028710667,-0.008552114,0.018020526
6,1438331472107,-0.029626964,-0.016187929,0.022296581
7,1438331472133,-0.032375857,-0.016798794,0.018020526
8,1438331472146,-0.027183503,-0.021380283,0.0125227375
9,1438331472165,-0.025045475,-0.02565634,0.016493361
10,1438331472188,-0.027794369,-0.017715093,0.0070249503
11,1438331472205,-0.035124753,0.0027488936,0.0061086523
12,1438331472230,-0.026572637,0.0070249503,0.015882496
13,1438331472246,-0.022602014,-0.004581489,0.016798794
14,1438331472268,-0.022602014,-0.009468411,0.013133603
15,1438331472289,-0.028099801,-0.014660766,0.0106901415
16,1438331472309,-0.027183503,-0.015882496,0.01282817
17,1438331472328,-0.024129177,-0.013133603,0.0
18,1438331472349,-0.022907447,-0.018936822,-0.00061086525
19,1438331472368,-0.02321288,-0.018325957,-0.00030543262
20,1438331472389,-0.022296581,-0.003970624,-0.007330383
21,1438331472409,-0.02443461,0.00580322,-0.005497787
22,1438331472428,-0.022296581,0.004581489,-0.0027488936
23,1438331472449,-0.014966198,-0.00030543262,-0.0036651916
24,1438331472469,-0.018020526,-0.0061086523,-0.0076358155
25,1438331472485,-0.021685716,-0.010079277,-0.005497787
26,1438331472509,-0.019242255,-0.006414085,-0.0061086523
27,1438331472528,-0.02107485,-0.009162978,-0.0036651916
28,1438331472549,-0.01740966,-0.009162978,-0.006414085
29,1438331472569,-0.018936822,0.0,-0.014966198
30,1438331472589,-0.02687807,0.0106901415,-0.015577064
31,1438331472609,-0.023518313,0.01740966,-0.014966198
32,1438331472629,-0.024129177,0.011301007,-0.009773844
33,1438331472647,-0.02076942,0.008246681,-0.0021380284
34,1438331472668,-0.023518313,-0.0030543262,-0.0009162979
35,1438331472689,-0.027794369,-0.018020526,-0.004886922
36,1438331472709,-0.021685716,-0.0290161,-0.0106901415
37,1438331472728,-0.023518313,-0.025350908,-0.002443461
38,1438331472752,-0.02443461,-0.008552114,-0.002443461
39,1438331472800,-0.026267206,-0.005497787,0.00030543262
40,1438331472801,-0.022296581,-0.012217305,-0.004886922
41,1438331472808,-0.027488936,-0.01863139,-0.008246681
42,1438331472826,-0.024740042,-0.027488936,-0.0067195175
43,1438331472852,-0.026572637,-0.025961773,-0.0012217305
44,1438331472867,-0.028099801,-0.021991149,-0.0030543262
45,1438331472886,-0.028405234,-0.03268129,-0.0021380284
46,1438331472907,-0.03023783,-0.03940081,-0.009468411
47,1438331472929,-0.032070424,-0.034513887,-0.005192355
48,1438331472948,-0.026267206,-0.030543262,-0.005497787
49,1438331472972,-0.034208454,-0.029626964,0.00030543262
50,1438331472988,-0.025961773,-0.027183503,-0.0009162979
51,1438331473008,-0.028710667,-0.021380283,-0.00580322
52,1438331473026,-0.027488936,-0.022602014,-0.004276057
53,1438331473048,-0.025961773,-0.02107485,0.0
54,1438331473069,-0.023518313,-0.017715093,-0.006414085
55,1438331473089,-0.022907447,-0.015271631,-0.00061086525
56,1438331473109,-0.01740966,-0.014049901,-0.006414085
57,1438331473129,-0.014966198,-0.018020526,-0.004581489
58,1438331473149,-0.016798794,-0.017104227,-0.009773844
59,1438331473170,-0.016187929,-0.013133603,-0.015882496
60,1438331473188,-0.016798794,-0.014966198,-0.0143553335
61,1438331473206,-0.01282817,-0.01863139,-0.015577064
62,1438331473229,-0.0125227375,-0.013439035,-0.015577064
63,1438331473247,-0.013439035,-0.008246681,-0.014660766
64,1438331473266,-0.013133603,-0.005192355,-0.011911872
65,1438331473288,-0.0036651916,-0.010079277,-0.013744468
66,1438331473308,-0.0070249503,-0.013744468,-0.015271631
67,1438331473329,-0.0076358155,-0.0070249503,-0.018936822
68,1438331473349,-0.00580322,-0.007941248,-0.007941248
69,1438331473369,0.00061086525,-0.013133603,-0.008552114
70,1438331473389,-0.004886922,-0.011301007,-0.0067195175
71,1438331473409,-0.0106901415,-0.014660766,-0.010995574
72,1438331473427,-0.010079277,-0.020463986,-0.009773844
73,1438331473448,-0.0012217305,-0.013744468,-0.01038471
74,1438331473468,-0.0033597588,-0.0067195175,-0.013439035
75,1438331473559,-0.0030543262,-0.00580322,-0.014966198
76,1438331473560,-0.005497787,-0.0036651916,-0.014049901
77,1438331473561,-0.007330383,0.013133603,-0.014049901
78,1438331473562,-0.010079277,0.025045475,-0.012217305
79,1438331473569,-0.0015271631,0.031154128,-0.0061086523
80,1438331473601,-0.003970624,0.027488936,-0.0012217305
81,1438331473606,-0.0036651916,0.023518313,0.0009162979
82,1438331473627,-0.0012217305,0.025961773,0.0030543262
83,1438331473652,0.0009162979,0.024740042,0.003970624
84,1438331473667,-0.0033597588,0.022602014,0.005192355
85,1438331473687,-0.007941248,0.020158553,0.0033597588
86,1438331473707,-0.0018325958,0.022602014,0.005192355
87,1438331473727,-0.007330383,0.025045475,0.006414085
88,1438331473752,-0.004886922,0.0290161,0.008552114
89,1438331473767,-0.005192355,0.03359759,0.0106901415
90,1438331473787,-0.013744468,0.03970624,0.010079277
91,1438331473807,-0.013744468,0.0421497,0.0106901415
92,1438331473827,-0.0125227375,0.03756821,0.010079277
93,1438331473847,-0.010079277,0.028710667,0.011911872
94,1438331473867,-0.010995574,0.019242255,0.014660766
95,1438331473887,-0.010995574,0.0106901415,0.017715093
96,1438331473907,-0.01160644,0.006414085,0.018020526
97,1438331473930,-0.01282817,-0.0009162979,0.016798794
98,1438331473947,-0.01282817,0.0021380284,0.016798794
99,1438331473971,-0.01038471,0.0070249503,0.011911872
100,1438331473992,-0.01038471,0.014966198,0.011911872
101,1438331474009,-0.013133603,0.009773844,0.021380283
102,1438331474027,-0.010995574,0.002443461,0.025045475
103,1438331474047,-0.011911872,-0.0076358155,0.03268129
104,1438331474067,-0.016187929,-0.018325957,0.026572637
105,1438331474102,-0.015882496,-0.022907447,0.032375857
106,1438331474114,-0.0106901415,-0.017715093,0.0290161
107,1438331474128,-0.014049901,-0.008857546,0.023518313
108,1438331474147,-0.019242255,0.00030543262,0.02107485
109,1438331474167,-0.01863139,-0.0012217305,0.021991149
110,1438331474187,-0.022602014,-0.0070249503,0.019547688
111,1438331474206,-0.02107485,-0.004581489,0.014660766
112,1438331474227,-0.027183503,0.002443461,0.015271631
113,1438331474250,-0.03023783,0.008246681,0.013439035
114,1438331474267,-0.026267206,0.0106901415,0.011301007
115,1438331474286,-0.025350908,0.01282817,0.006414085
116,1438331474306,-0.03176499,0.0070249503,0.0067195175
117,1438331474326,-0.032986723,0.00580322,0.00580322
118,1438331474346,-0.03145956,-0.0009162979,0.01038471
119,1438331474366,-0.032375857,-0.004276057,0.0067195175
120,1438331474386,-0.029932396,-0.008857546,0.006414085
121,1438331474406,-0.03359759,0.0009162979,0.0027488936
122,1438331474426,-0.032986723,0.010079277,0.009162978
123,1438331474446,-0.030543262,0.003970624,0.014660766
124,1438331474466,-0.02687807,-0.00030543262,0.013133603
125,1438331474486,-0.0290161,-0.0036651916,0.0125227375
126,1438331474506,-0.038179077,-0.010079277,0.006414085
127,1438331474527,-0.03756821,-0.0030543262,0.004581489
128,1438331474547,-0.03604105,0.002443461,0.013133603
129,1438331474568,-0.03359759,-0.0027488936,0.013439035
130,1438331474588,-0.03359759,-0.0018325958,0.0143553335
131,1438331474608,-0.03634648,0.005192355,0.013439035
132,1438331474628,-0.03848451,0.005497787,0.02107485
133,1438331474648,-0.032070424,-0.004581489,0.02321288
134,1438331474667,-0.028710667,-0.008857546,0.01985312
135,1438331474687,-0.029932396,-0.01282817,0.02107485
136,1438331474708,-0.03023783,-0.008857546,0.025961773
137,1438331474727,-0.028710667,-0.0018325958,0.021991149
138,1438331474749,-0.02565634,0.004276057,0.01985312
139,1438331474769,-0.026572637,0.008246681,0.019547688
140,1438331474789,-0.03145956,0.007330383,0.022296581
141,1438331474811,-0.030848695,0.003970624,0.02107485
142,1438331474830,-0.024740042,-0.0018325958,0.024129177
143,1438331474877,-0.02687807,-0.004581489,0.024740042
144,1438331474878,-0.028099801,-0.0018325958,0.021991149
145,1438331474888,-0.0290161,-0.0015271631,0.026267206
146,1438331474909,-0.029932396,-0.004581489,0.024740042
147,1438331474929,-0.028099801,-0.009773844,0.023823744
148,1438331474947,-0.024740042,-0.011911872,0.021380283
149,1438331474969,-0.024740042,-0.018020526,0.017104227
150,1438331474988,-0.026572637,-0.01038471,0.01740966
151,1438331475008,-0.026572637,-0.015882496,0.01282817
152,1438331475028,-0.027488936,-0.020463986,0.008246681
153,1438331475049,-0.021380283,-0.018020526,0.0125227375
154,1438331475068,-0.027183503,-0.019242255,0.0125227375
155,1438331475091,-0.025045475,-0.01740966,0.016493361
156,1438331475111,-0.028710667,-0.015882496,0.01282817
157,1438331475131,-0.02443461,-0.0106901415,0.0125227375
158,1438331475148,-0.024740042,-0.015882496,0.014049901
159,1438331475168,-0.024740042,-0.01863139,0.011301007
160,1438331475189,-0.02687807,-0.02107485,0.009468411
161,1438331475209,-0.029321533,-0.017715093,0.008552114
162,1438331475230,-0.027488936,-0.01038471,0.011301007
163,1438331475249,-0.027183503,0.0012217305,0.005497787
164,1438331475269,-0.029626964,0.01160644,0.007330383
165,1438331475290,-0.02565634,0.014660766,0.003970624
166,1438331475308,-0.02565634,0.019242255,0.002443461
167,1438331475329,-0.022296581,0.011911872,0.0076358155
168,1438331475351,-0.024129177,0.003970624,0.009162978
169,1438331475371,-0.026572637,0.0018325958,0.008246681
170,1438331475392,-0.025045475,0.00061086525,0.009162978
171,1438331475411,-0.025045475,-0.00061086525,0.006414085
172,1438331475431,-0.02443461,0.0012217305,0.008246681
173,1438331475449,-0.021380283,0.0027488936,0.0036651916
174,1438331475471,-0.024129177,0.009773844,0.007330383
175,1438331475489,-0.028405234,0.007330383,0.009162978
176,1438331475513,-0.02321288,0.005497787,0.011911872
177,1438331475574,-0.017715093,-0.0012217305,0.014049901
178,1438331475575,-0.026572637,-0.006414085,0.0061086523
179,1438331475576,-0.02443461,-0.0009162979,0.01038471
180,1438331475589,-0.020158553,-0.0009162979,0.021380283
181,1438331475610,-0.020463986,-0.002443461,0.022907447
182,1438331475629,-0.01863139,-0.0070249503,0.019547688
183,1438331475650,-0.024129177,-0.011301007,0.014966198
184,1438331475684,-0.022602014,-0.016493361,0.008552114
185,1438331475688,-0.023823744,-0.004581489,0.012217305
186,1438331475709,-0.018936822,-0.010079277,0.01038471
187,1438331475728,-0.017104227,-0.0076358155,0.0076358155
188,1438331475748,-0.015271631,-0.0021380284,0.004886922
189,1438331475769,-0.02321288,0.004276057,0.010079277
190,1438331475789,-0.017715093,0.0061086523,0.0076358155
191,1438331475811,-0.013439035,-0.0012217305,0.014049901
192,1438331475831,-0.017104227,-0.009162978,0.009468411
193,1438331475848,-0.02076942,-0.01160644,0.007941248
194,1438331475869,-0.023518313,-0.005497787,0.0067195175
195,1438331475889,-0.022296581,-0.0018325958,0.0018325958
196,1438331475909,-0.022296581,-0.00061086525,-0.0015271631
197,1438331475932,-0.022602014,0.00061086525,0.004581489
198,1438331475953,-0.02443461,0.0061086523,0.0015271631
199,1438331475971,-0.02443461,0.01282817,0.0012217305
200,1438331475989,-0.02565634,0.005497787,0.0009162979
201,1438331476010,-0.028099801,-0.0018325958,0.005192355
202,1438331476029,-0.028099801,-0.006414085,0.009162978
203,1438331476049,-0.024129177,-0.012217305,0.0021380284
204,1438331476070,-0.023823744,-0.011911872,0.005192355
205,1438331476095,-0.025350908,-0.0106901415,0.0036651916
206,1438331476139,-0.026267206,-0.010079277,-0.0018325958
207,1438331476140,-0.021991149,-0.0070249503,-0.002443461
208,1438331476151,-0.018936822,-0.003970624,0.004276057
209,1438331476170,-0.023823744,-0.009468411,0.003970624
210,1438331476190,-0.019242255,-0.01038471,0.0061086523
211,1438331476218,-0.019242255,-0.009162978,0.0012217305
212,1438331476272,-0.025045475,-0.008246681,0.0036651916
213,1438331476273,-0.024129177,-0.002443461,0.003970624
214,1438331476274,-0.023518313,0.003970624,0.005497787
215,1438331476294,-0.022296581,0.003970624,0.005497787
216,1438331476310,-0.025350908,0.01038471,0.008246681
217,1438331476330,-0.024129177,0.01160644,0.004276057
218,1438331476349,-0.024740042,0.0070249503,0.009468411
219,1438331476369,-0.026267206,0.002443461,0.0106901415
220,1438331476391,-0.024740042,0.0012217305,0.008246681
221,1438331476410,-0.02321288,0.0030543262,0.0036651916
222,1438331476430,-0.026572637,0.005497787,0.007330383
223,1438331476450,-0.023518313,0.0070249503,0.004276057
224,1438331476472,-0.02443461,0.004886922,0.0018325958
225,1438331476492,-0.029321533,0.0036651916,0.00030543262
226,1438331476512,-0.02443461,0.0018325958,0.0061086523
227,1438331476532,-0.030848695,-0.0076358155,0.0030543262
228,1438331476553,-0.0290161,-0.02321288,0.0012217305
229,1438331476571,-0.029932396,-0.032070424,0.0
230,1438331476590,-0.02565634,-0.04153884,-0.004276057
231,1438331476611,-0.024740042,-0.03604105,-0.0012217305
232,1438331476632,-0.026572637,-0.01863139,-0.00030543262
233,1438331476651,-0.026572637,-0.007330383,-0.004581489
234,1438331476671,-0.025961773,-0.0030543262,0.0033597588
235,1438331476692,-0.023823744,-0.013133603,0.006414085
236,1438331476711,-0.025045475,-0.02443461,0.0027488936
237,1438331476732,-0.025350908,-0.03023783,0.0012217305
238,1438331476752,-0.023823744,-0.03176499,0.008857546
239,1438331476771,-0.01740966,-0.027794369,0.016493361
240,1438331476792,-0.022296581,-0.019547688,0.015882496
241,1438331476811,-0.027183503,-0.0125227375,0.00580322
242,1438331476833,-0.02565634,-0.004276057,0.0070249503
243,1438331476854,-0.023823744,-0.0012217305,0.01282817
244,1438331476873,-0.021380283,-0.005497787,0.0106901415
245,1438331476893,-0.026267206,-0.005497787,0.011911872
246,1438331476911,-0.027794369,0.004581489,0.009468411
247,1438331477035,-0.025961773,0.018020526,0.0061086523
248,1438331477036,-0.027183503,0.013744468,0.013439035
249,1438331477037,-0.022602014,0.004581489,0.01282817
250,1438331477038,-0.021991149,-0.003970624,0.010995574
251,1438331477039,-0.025961773,-0.006414085,0.009162978
252,1438331477040,-0.026572637,-0.005192355,0.00030543262
253,1438331477053,-0.03023783,-0.0021380284,0.004581489
254,1438331477083,-0.03481932,-0.00580322,0.011301007
255,1438331477091,-0.030543262,-0.008857546,0.0030543262
256,1438331477110,-0.032986723,-0.00580322,0.0076358155
257,1438331477134,-0.028099801,-0.004581489,0.00061086525
258,1438331477150,-0.03390302,-0.005192355,0.002443461
259,1438331477172,-0.035430185,-0.005497787,0.0030543262
260,1438331477193,-0.03604105,-0.0061086523,0.00580322
261,1438331477213,-0.028710667,-0.008246681,0.004581489
262,1438331477234,-0.03268129,-0.007330383,0.009162978
263,1438331477253,-0.032070424,-0.008246681,0.010079277
264,1438331477270,-0.024740042,-0.011301007,0.017715093
265,1438331477292,-0.027488936,-0.008246681,0.01863139
266,1438331477312,-0.022907447,-0.009468411,0.021991149
267,1438331477333,-0.02107485,-0.007941248,0.021685716
268,1438331477353,-0.02107485,-0.010995574,0.0290161
269,1438331477373,-0.015577064,-0.012217305,0.02565634
270,1438331477393,-0.019547688,-0.008857546,0.035430185
271,1438331477413,-0.019242255,-0.004276057,0.03573562
272,1438331477434,-0.016187929,-0.00580322,0.043066
273,1438331477453,-0.021380283,-0.0027488936,0.04550946
274,1438331477476,-0.021991149,0.0018325958,0.04734206
275,1438331477493,-0.021380283,0.0033597588,0.049480084
276,1438331477512,-0.022602014,-0.00030543262,0.055283304
277,1438331477533,-0.028710667,-0.008552114,0.06078109
278,1438331477550,-0.029932396,-0.015882496,0.0711658
279,1438331477570,-0.029626964,-0.020158553,0.07269296
280,1438331477590,-0.027794369,-0.027488936,0.08002335
281,1438331477616,-0.027183503,-0.039095376,0.08552113
282,1438331477637,-0.028710667,-0.04153884,0.09865474
283,1438331477653,-0.026572637,-0.050396383,0.10445796
284,1438331477672,-0.022296581,-0.05375614,0.113926366
285,1438331477699,-0.019547688,-0.071776666,0.13194689
286,1438331477754,-0.014966198,-0.086437434,0.14905111
287,1438331477755,-0.009468411,-0.10293079,0.17104226
288,1438331477756,-0.012217305,-0.11759156,0.18784106
289,1438331477776,-0.018325957,-0.13072516,0.21502456
290,1438331477792,-0.029932396,-0.1518,0.24373524
291,1438331477818,-0.030543262,-0.18936823,0.28313604
292,1438331477832,-0.036651913,-0.23793201,0.30848694
293,1438331477852,-0.048563786,-0.25534168,0.33322698
294,1438331477874,-0.06414085,-0.27855456,0.37232238
295,1438331477891,-0.06811147,-0.30390546,0.41325033
296,1438331477912,-0.08124508,-0.32284227,0.44135013
297,1438331477932,-0.09254608,-0.3622431,0.46639562
298,1438331477953,-0.09743301,-0.3979787,0.49205196
299,1438331477972,-0.116980694,-0.45570546,0.5155703
300,1438331478026,-0.12003502,-0.5329799,0.5326745
301,1438331478027,-0.13103059,-0.6169739,0.5516113
302,1438331478032,-0.14385876,-0.6954701,0.5681047
303,1438331478052,-0.17195857,-0.7360926,0.58368176
304,1438331478072,-0.20372356,-0.7611381,0.5983425
305,1438331478091,-0.22540927,-0.78954333,0.6068946
306,1438331478111,-0.24129178,-0.8414669,0.60994893
307,1438331478131,-0.2761111,-0.90316427,0.61666846
308,1438331478151,-0.31581733,-0.9783007,0.6081163
309,1438331478202,-0.35521814,-1.0326678,0.6282749
310,1438331478203,-0.3943135,-1.1032226,0.6627888
311,1438331478210,-0.4184427,-1.1575897,0.6728681
312,1438331478230,-0.44409904,-1.1963795,0.68508536
313,1438331478252,-0.4633413,-1.2959507,0.6951646
314,1438331478274,-0.45540005,-1.3927728,0.691194
315,1438331478294,-0.44012842,-1.4504995,0.6783658
316,1438331478314,-0.44135013,-1.4819591,0.63194007
317,1438331478334,-0.43860126,-1.4905112,0.6065892
318,1438331478354,-0.3921755,-1.4425583,0.6411031
319,1438331478374,-0.39828414,-1.3677273,0.6609562
320,1438331478394,-0.3885103,-1.2498302,0.6264423
321,1438331478413,-0.43890667,-1.1691961,0.49602258
322,1438331478431,-0.47983465,-1.0103711,0.40683624
323,1438331478462,-0.45814893,-0.7965683,0.38698313
324,1438331478479,-0.41172317,-0.61178154,0.4147775
325,1438331478499,-0.33567044,-0.52412236,0.45814893
326,1438331478510,-0.28160888,-0.39370266,0.5177083
327,1438331478534,-0.26236662,-0.3200934,0.5699373
328,1438331478555,-0.25595254,-0.33658674,0.6383542
329,1438331478571,-0.25778514,-0.33292156,0.68783426
330,1438331478592,-0.2507602,-0.27672195,0.75533485
331,1438331478615,-0.24098633,-0.14966199,0.8136725
332,1438331478634,-0.21624629,-0.03023783,0.8213083
333,1438331478654,-0.18509217,0.12675454,0.8051204
334,1438331478673,-0.14446963,0.2950479,0.78954333
335,1438331478695,-0.087964594,0.40103304,0.8078693
336,1438331478715,-0.048258353,0.4908302,0.82924956
337,1438331478735,-0.021380283,0.6200282,0.8356637
338,1438331478755,-0.013439035,0.72234815,0.8347474
339,1438331478777,-0.013133603,0.75808376,0.8170323
340,1438331478795,-0.0033597588,0.7828238,0.81489426
341,1438331478813,0.004276057,0.8164214,0.8191703
342,1438331478835,0.004581489,0.8359691,0.7968737
343,1438331478855,0.022296581,0.84238315,0.75777835
344,1438331478875,0.03481932,0.7987063,0.70524395
345,1438331478894,0.07666359,0.6808093,0.66156703
346,1438331478915,0.12950343,0.5699373,0.64660084
347,1438331478937,0.12583824,0.50610185,0.6453791
348,1438331478957,0.08857546,0.5479461,0.62125
349,1438331478980,0.10415252,0.63224554,0.552833
350,1438331478994,0.18936823,0.6252206,0.51068336
351,1438331479012,0.25259277,0.58184916,0.53878313
352,1438331479035,0.29352075,0.6743952,0.5647449
353,1438331479054,0.34269542,0.8145888,0.5671884
354,1438331479074,0.39614612,0.9049969,0.50762904
355,1438331479094,0.43157628,0.8552113,0.4111123
356,1438331479143,0.45051312,0.9053023,0.31429017
357,1438331479146,0.40866885,1.0543534,0.27763826
358,1438331479160,0.34605515,1.1478158,0.2593123
359,1438331479172,0.28588495,1.2626585,0.22143865
360,1438331479198,0.24373524,1.3683381,0.18967366
361,1438331479212,0.22113322,1.29198,0.1563815
362,1438331479238,0.21502456,1.2116512,0.08827003
363,1438331479262,0.23365596,1.1917981,-0.00061086525
364,1438331479274,0.24984388,1.3423764,-0.082161374
365,1438331479293,0.269697,1.5531249,-0.12614368
