id,attr_time,attr_x,attr_y,attr_z
1,1438331472014,0.0186157,-0.0103455,-0.00752258
2,1438331472032,0.0143433,-0.0135498,-0.0085907
3,1438331472052,0.00686645,-0.0124817,-0.0085907
4,1438331472071,0.00900269,-0.0103455,-0.00111389
5,1438331472090,0.0143433,-0.0103455,0.00209045
6,1438331472114,0.0164795,-0.00820923,0.00422668
7,1438331472130,0.0143433,-0.00286865,0.00102234
8,1438331472151,0.0271606,0.000335693,-4.57764e-05
9,1438331472171,0.0367737,0.00140381,0.00422668
10,1438331472191,0.039978,0.00247192,0.00209045
11,1438331472213,0.0367737,0.00140381,-0.00111389
12,1438331472229,0.0335693,0.000335693,-0.00645447
13,1438331472250,0.0357056,-0.000732422,-0.00752258
14,1438331472270,0.039978,-0.00286865,-0.00431824
15,1438331472290,0.0410461,-0.00286865,-0.00218201
16,1438331472312,0.0378418,0.00140381,-0.00111389
17,1438331472330,0.0346375,0.00247192,0.00102234
18,1438331472350,0.0367737,0.00354004,-4.57764e-05
19,1438331472369,0.0410461,0.00140381,-4.57764e-05
20,1438331472389,0.0474548,0.00140381,-0.00325012
21,1438331472410,0.0453186,0.00460815,-0.00431824
22,1438331472429,0.0421143,0.00567627,-0.00431824
23,1438331472448,0.0357056,0.00460815,-4.57764e-05
24,1438331472469,0.0346375,0.00354004,0.00209045
25,1438331472488,0.0367737,0.00354004,0.00422668
26,1438331472509,0.0378418,0.00567627,0.00315857
27,1438331472528,0.0410461,0.00674438,0.00209045
28,1438331472546,0.0421143,0.00460815,-4.57764e-05
29,1438331472567,0.0389099,0.00354004,-0.00431824
30,1438331472587,0.0357056,0.000335693,-0.00538635
31,1438331472608,0.0357056,0.000335693,-0.00218201
32,1438331472627,0.0367737,-0.000732422,-0.00325012
33,1438331472647,0.0367737,-0.000732422,-0.00431824
34,1438331472667,0.0367737,-0.00500488,-0.0107269
35,1438331472687,0.0335693,-0.00714111,-0.0128632
36,1438331472706,0.0250244,-0.00927734,-0.0171356
37,1438331472726,0.0218201,-0.00714111,-0.02034
38,1438331472749,0.0250244,-0.006073,-0.0224762
39,1438331472766,0.0250244,-0.00714111,-0.0214081
40,1438331472786,0.0186157,-0.0114136,-0.0214081
41,1438331472806,0.0218201,-0.006073,-0.02034
42,1438331472826,0.0186157,-0.00393677,-0.0246124
43,1438331472848,0.0196838,-0.00286865,-0.0278168
44,1438331472864,0.0228882,-0.00714111,-0.0342255
45,1438331472885,0.0175476,-0.00820923,-0.0352936
46,1438331472904,0.0143433,-0.00820923,-0.0320892
47,1438331472925,0.00793457,-0.00500488,-0.0171356
48,1438331472946,0.0100708,-0.0124817,-0.011795
49,1438331472964,-0.0038147,-0.0178223,-0.0085907
50,1438331472985,-0.015564,-0.0188904,-0.0149994
51,1438331473003,-0.0166321,-0.0135498,-0.02034
52,1438331473024,0.00579834,-0.0124817,-0.0235443
53,1438331473044,-0.00274658,-0.0124817,-0.0256805
54,1438331473064,-0.025177,-0.00820923,-0.0256805
55,1438331473084,-0.0230408,-0.00714111,-0.0235443
56,1438331473103,-0.0198364,-0.000732422,-0.0214081
57,1438331473124,-0.0177002,-0.000732422,-0.0214081
58,1438331473144,-0.0198364,0.00140381,-0.02034
59,1438331473163,-0.0283813,0.00140381,-0.02034
60,1438331473183,-0.0315857,0.00247192,-0.0171356
61,1438331473203,-0.0283813,0.00140381,-0.00965881
62,1438331473221,-0.0315857,-0.00180054,-0.00752258
63,1438331473245,-0.0358582,-0.00500488,-0.0107269
64,1438331473262,-0.0411987,-0.00500488,-0.011795
65,1438331473282,-0.0358582,-0.00500488,-0.00965881
66,1438331473302,-0.0305176,-0.00180054,-0.00645447
67,1438331473321,-0.0273132,0.000335693,-0.00325012
68,1438331473344,-0.0283813,0.000335693,-0.00431824
69,1438331473361,-0.0230408,-0.000732422,-0.00538635
70,1438331473381,-0.0219727,0.000335693,-0.00538635
71,1438331473402,-0.0209045,-0.00393677,-0.00431824
72,1438331473422,-0.0262451,-0.00286865,-0.00538635
73,1438331473443,-0.0305176,-0.00180054,-0.00645447
74,1438331473460,-0.0273132,0.00247192,-0.00218201
75,1438331473481,-0.0198364,0.00460815,-0.00111389
76,1438331473501,-0.0187683,0.00888061,-0.00431824
77,1438331473520,-0.0123596,0.012085,-0.00645447
78,1438331473543,-0.0134277,0.012085,-0.00645447
79,1438331473559,-0.0112915,0.0110168,-0.00431824
80,1438331473580,-0.0198364,0.0078125,-0.00218201
81,1438331473601,-0.0198364,0.00674438,-0.00325012
82,1438331473620,-0.0198364,0.00888061,-4.57764e-05
83,1438331473638,-0.0187683,0.00674438,0.00102234
84,1438331473660,-0.0187683,0.00354004,0.00102234
85,1438331473678,-0.0198364,0.000335693,0.00209045
86,1438331473699,-0.025177,-0.00393677,0.00209045
87,1438331473719,-0.0230408,-0.00286865,0.00209045
88,1438331473739,-0.0166321,-0.00500488,0.00209045
89,1438331473758,-0.015564,-0.006073,0.00315857
90,1438331473778,-0.0187683,-0.00714111,0.00636292
91,1438331473798,-0.0198364,-0.006073,0.00849915
92,1438331473817,-0.0134277,-0.00286865,0.00849915
93,1438331473840,-0.0038147,-0.00500488,0.00636292
94,1438331473858,-0.00274658,-0.00714111,0.00422668
95,1438331473878,-0.0112915,-0.00927734,0.00315857
96,1438331473897,-0.00915527,-0.00286865,0.00849915
97,1438331473917,0.00366211,0.00140381,0.00636292
98,1438331473940,0.00900269,0.00247192,0.00422668
99,1438331473957,0.00366211,-0.00500488,0.00102234
100,1438331473977,-0.00274658,-0.00393677,0.00102234
101,1438331473997,-0.00595093,0.00140381,0.00849915
102,1438331474017,-0.00488281,0.00354004,0.0202484
103,1438331474036,-0.00488281,-0.00393677,0.0213165
104,1438331474056,-0.0144958,-0.0114136,0.0138397
105,1438331474079,-0.0166321,-0.0103455,0.00956726
106,1438331474094,-0.00595093,-0.00180054,0.00743103
107,1438331474116,0.00793457,0.00354004,0.0106354
108,1438331474135,0.00259399,-0.000732422,0.0106354
109,1438331474155,-0.0112915,0.00460815,0.0106354
110,1438331474176,-0.0134277,0.00460815,0.0106354
111,1438331474196,-0.000610352,0.00567627,0.00956726
112,1438331474214,-0.000610352,0.00674438,0.00743103
113,1438331474233,-0.00808716,0.00460815,0.00422668
114,1438331474255,-0.0209045,0.00354004,0.00209045
115,1438331474277,-0.0219727,0.00674438,0.00636292
116,1438331474294,-0.0144958,0.0078125,0.0138397
117,1438331474315,-0.0112915,0.00994873,0.015976
118,1438331474334,-0.015564,0.00994873,0.0149078
119,1438331474354,-0.0166321,0.0078125,0.00956726
120,1438331474377,-0.00595093,0.0078125,0.00849915
121,1438331474394,0.00152588,0.00567627,0.00636292
122,1438331474413,0.000457764,0.0078125,0.00849915
123,1438331474434,-0.000610352,0.00567627,0.0052948
124,1438331474452,0.00152588,0.00674438,0.00315857
125,1438331474475,0.00686645,0.00567627,0.00422668
126,1438331474493,0.0143433,0.00354004,0.00315857
127,1438331474513,0.0154114,0.00460815,0.00422668
128,1438331474532,0.0132751,-0.00286865,0.00315857
129,1438331474551,0.00900269,0.00140381,0.00102234
130,1438331474575,0.0111389,-0.00180054,0.00209045
131,1438331474591,0.0143433,-0.00500488,0.00209045
132,1438331474612,0.0175476,-0.000732422,-4.57764e-05
133,1438331474631,0.0154114,-0.000732422,0.00315857
134,1438331474652,0.00900269,0.00140381,0.00315857
135,1438331474674,0.00686645,0.00247192,0.00422668
136,1438331474691,0.00686645,-0.00286865,0.0052948
137,1438331474711,0.00366211,-0.00393677,0.00315857
138,1438331474731,0.000457764,-0.006073,-4.57764e-05
139,1438331474751,-0.00274658,-0.00714111,-0.00111389
140,1438331474771,-0.00595093,-0.006073,-0.00111389
141,1438331474791,-0.00595093,-0.00286865,0.00315857
142,1438331474810,-0.0038147,-0.00180054,0.00102234
143,1438331474831,-0.00274658,-0.00180054,0.00315857
144,1438331474850,0.00152588,0.000335693,0.0052948
145,1438331474868,0.00152588,0.000335693,0.00209045
146,1438331474889,0.00259399,-0.00286865,0.00315857
147,1438331474909,-0.00167847,-0.00180054,0.00209045
148,1438331474930,-0.00488281,-0.00500488,-4.57764e-05
149,1438331474949,-0.00701904,-0.00393677,0.00102234
150,1438331474967,-0.0038147,-0.00180054,0.00315857
151,1438331474985,0.000457764,-0.000732422,0.00209045
152,1438331475005,-0.0038147,-0.000732422,-4.57764e-05
153,1438331475025,-0.00488281,-0.000732422,0.00209045
154,1438331475046,-0.000610352,0.00567627,0.00102234
155,1438331475071,0.00579834,0.00674438,-4.57764e-05
156,1438331475088,0.00579834,0.00247192,-0.00431824
157,1438331475108,0.000457764,0.00140381,-0.00752258
158,1438331475127,-0.00274658,0.00247192,-0.00645447
159,1438331475148,-0.0038147,0.00888061,0.00209045
160,1438331475170,-0.00167847,0.0110168,0.00849915
161,1438331475187,-0.00488281,0.00140381,0.00743103
162,1438331475207,-0.0144958,-0.00286865,-0.00111389
163,1438331475227,-0.00915527,-0.00180054,-0.00645447
164,1438331475246,0.0111389,0.00354004,-0.0085907
165,1438331475269,0.0175476,0.00354004,-0.00538635
166,1438331475287,0.00473022,0.000335693,-0.00431824
167,1438331475306,-0.00488281,-0.000732422,-0.00218201
168,1438331475325,-0.00274658,-0.000732422,-0.00218201
169,1438331475346,0.00900269,-0.000732422,-4.57764e-05
170,1438331475365,0.00793457,0.000335693,-0.00218201
171,1438331475386,0.00152588,-0.006073,-0.00431824
172,1438331475405,-0.00595093,-0.00927734,-0.00538635
173,1438331475426,-0.00915527,-0.00500488,0.00102234
174,1438331475446,-0.000610352,-0.00393677,0.0052948
175,1438331475464,0.00259399,-0.00180054,0.00636292
176,1438331475485,0.00366211,-0.00180054,0.00315857
177,1438331475504,0.00686645,-0.00286865,-0.00111389
178,1438331475525,0.0111389,-0.00286865,-0.00111389
179,1438331475544,0.012207,-0.00286865,-0.00325012
180,1438331475668,0.0111389,-0.00393677,-0.00431824
181,1438331475669,0.00900269,-0.006073,-0.00325012
182,1438331475670,0.00793457,-0.00714111,-0.00431824
183,1438331475671,0.00900269,-0.006073,-0.00218201
184,1438331475672,0.0100708,-0.006073,-0.00538635
185,1438331475673,0.00900269,-0.006073,-0.00645447
186,1438331475682,0.00793457,-0.00500488,-0.00645447
187,1438331475703,0.00366211,-0.00286865,-0.00645447
188,1438331475723,-0.000610352,-0.00393677,-0.00431824
189,1438331475744,-0.00595093,-0.00180054,-0.00111389
190,1438331475763,-0.00488281,-0.00180054,-0.00218201
191,1438331475781,-0.00808716,0.000335693,0.00209045
192,1438331475803,-0.00595093,-0.000732422,0.00102234
193,1438331475822,-0.00595093,0.00247192,0.00209045
194,1438331475843,-0.00488281,0.00460815,-0.00111389
195,1438331475860,-0.00167847,0.00460815,0.00102234
196,1438331475881,0.00473022,0.00567627,0.00102234
197,1438331475902,0.00900269,0.00460815,-4.57764e-05
198,1438331475921,0.012207,0.00460815,-0.00218201
199,1438331475942,0.0175476,0.00354004,-4.57764e-05
200,1438331475961,0.020752,0.00354004,0.00209045
201,1438331475982,0.0260925,0.00567627,0.00315857
202,1438331476001,0.030365,0.00674438,0.00422668
203,1438331476021,0.0335693,0.00674438,0.00315857
204,1438331476043,0.039978,0.00567627,0.00422668
205,1438331476061,0.0421143,0.00674438,0.00209045
206,1438331476081,0.0389099,0.00140381,0.00102234
207,1438331476100,0.0378418,-0.000732422,0.00102234
208,1438331476120,0.0314331,0.000335693,-4.57764e-05
209,1438331476139,0.0346375,0.00354004,-0.00111389
210,1438331476160,0.0367737,0.00247192,-0.00218201
211,1438331476180,0.0314331,-0.00180054,-0.00431824
212,1438331476200,0.0282288,-0.000732422,-0.00111389
213,1438331476220,0.0271606,0.0078125,0.00102234
214,1438331476238,0.0282288,0.0078125,0.00209045
215,1438331476259,0.0271606,0.00888061,-0.00111389
216,1438331476278,0.020752,0.00567627,-0.00752258
217,1438331476299,0.0164795,0.00674438,-0.00538635
218,1438331476319,0.0143433,0.00994873,0.00422668
219,1438331476339,0.0164795,0.00888061,0.0127716
220,1438331476359,0.00793457,0.00460815,0.0149078
221,1438331476378,-0.00595093,-0.000732422,0.00849915
222,1438331476399,-0.00595093,0.00460815,0.00209045
223,1438331476418,0.0111389,0.00674438,-0.00111389
224,1438331476440,0.0250244,0.00994873,0.00102234
225,1438331476458,0.020752,0.00674438,0.00315857
226,1438331476478,0.0111389,0.00354004,0.00743103
227,1438331476498,0.0100708,0.00140381,0.00636292
228,1438331476518,0.0186157,0.00247192,0.00636292
229,1438331476539,0.020752,-0.00286865,0.00315857
230,1438331476556,0.0164795,-0.00393677,-0.00111389
231,1438331476577,0.0100708,-0.00714111,-4.57764e-05
232,1438331476596,0.00900269,-0.00714111,0.00315857
233,1438331476617,0.0100708,-0.00820923,0.00849915
234,1438331476639,0.00686645,-0.0103455,0.0106354
235,1438331476656,0.00473022,-0.0114136,0.00956726
236,1438331476676,0.00366211,-0.0114136,0.0106354
237,1438331476695,0.000457764,-0.00927734,0.00956726
238,1438331476716,-0.00167847,-0.00820923,0.00636292
239,1438331476736,-0.0038147,-0.006073,0.0052948
240,1438331476756,-0.00167847,-0.00393677,0.00422668
241,1438331476778,-0.00701904,-0.000732422,0.00102234
242,1438331476795,-0.0134277,-0.000732422,-0.00111389
243,1438331476815,-0.0177002,0.00354004,-4.57764e-05
244,1438331476835,-0.0166321,0.00888061,0.00102234
245,1438331476853,-0.0123596,0.012085,0.0052948
246,1438331476877,-0.0144958,0.0142212,0.00422668
247,1438331476894,-0.0198364,0.0184937,0.00102234
248,1438331476913,-0.0230408,0.021698,-4.57764e-05
249,1438331476935,-0.0283813,0.021698,0.00315857
250,1438331476954,-0.025177,0.0227661,0.00636292
251,1438331476973,-0.0230408,0.0249023,0.0117035
252,1438331476994,-0.0315857,0.0281067,0.0181122
253,1438331477013,-0.0326538,0.0291748,0.0245209
254,1438331477033,-0.0305176,0.0366516,0.0287933
255,1438331477053,-0.0262451,0.039856,0.0298615
256,1438331477076,-0.0337219,0.0430603,0.0309296
257,1438331477093,-0.0379944,0.0484009,0.0298615
258,1438331477113,-0.0369263,0.0537415,0.035202
259,1438331477133,-0.0209045,0.0697632,0.0384064
260,1438331477153,-0.0198364,0.0825806,0.0416107
261,1438331477175,-0.0198364,0.0953979,0.0437469
262,1438331477192,-0.0166321,0.102875,0.0458832
263,1438331477211,-0.0134277,0.11676,0.0469513
264,1438331477232,-0.0112915,0.13385,0.0490875
265,1438331477252,-0.00701904,0.153076,0.05336
266,1438331477274,0.00579834,0.179779,0.0619049
267,1438331477292,0.0271606,0.200073,0.0779266
268,1438331477311,0.0389099,0.223572,0.0971527
269,1438331477330,0.058136,0.252411,0.117447
270,1438331477351,0.0720215,0.28125,0.138809
271,1438331477372,0.0987244,0.310089,0.156967
272,1438331477391,0.113678,0.33786,0.176193
273,1438331477411,0.140381,0.359222,0.192215
274,1438331477430,0.164948,0.391266,0.210373
275,1438331477450,0.218353,0.435059,0.245621
276,1438331477469,0.297394,0.471374,0.288345
277,1438331477490,0.367889,0.499146,0.324661
278,1438331477509,0.410614,0.52478,0.350296
279,1438331477530,0.442657,0.540802,0.367386
280,1438331477549,0.477905,0.555756,0.376999
281,1438331477570,0.53772,0.57605,0.393021
282,1438331477590,0.629578,0.599548,0.41011
283,1438331477609,0.704346,0.612366,0.42186
284,1438331477629,0.773773,0.623047,0.425064
285,1438331477649,0.851746,0.621979,0.42186
286,1438331477669,0.976715,0.633728,0.406906
287,1438331477687,1.04828,0.642273,0.381271
288,1438331477708,1.10809,0.631592,0.355637
289,1438331477728,1.15189,0.619842,0.337479
290,1438331477748,1.19247,0.595276,0.33107
291,1438331477770,1.25229,0.577118,0.330002
292,1438331477786,1.29181,0.557892,0.326798
293,1438331477807,1.29181,0.523712,0.31398
294,1438331477827,1.23306,0.446808,0.289413
295,1438331477847,1.11343,0.349609,0.250961
296,1438331477867,0.977783,0.270569,0.215714
297,1438331477887,0.682983,0.210754,0.182602
298,1438331477907,0.218353,0.181915,0.165512
299,1438331477925,-0.266571,0.215027,0.207169
300,1438331477947,-0.15976,0.213959,0.360977
301,1438331477966,0.284576,0.122101,0.542557
302,1438331477986,0.419159,0.0879211,0.667526
303,1438331478006,0.332642,0.0441284,0.718796
304,1438331478026,0.0335693,0.0558777,0.702774
305,1438331478045,-0.27832,0.0953979,0.675003
306,1438331478068,-0.570984,0.115692,0.604507
307,1438331478085,-0.795288,0.179779,0.555374
308,1438331478105,-0.880737,0.260956,0.529739
309,1438331478125,-0.784607,0.307953,0.524399
310,1438331478144,-0.704498,0.343201,0.521194
311,1438331478165,-0.717316,0.376312,0.519058
312,1438331478185,-0.803833,0.351746,0.459244
313,1438331478204,-1.00037,0.336792,0.375931
314,1438331478224,-1.20224,0.384857,0.29689
315,1438331478243,-1.32187,0.407288,0.218918
316,1438331478264,-1.37207,0.407288,0.186874
317,1438331478283,-1.45004,0.301544,0.213577
318,1438331478306,-1.50558,0.208618,0.284073
319,1438331478324,-1.20972,0.164825,0.364182
320,1438331478343,-0.802765,0.210754,0.433609
321,1438331478364,-0.734406,0.218231,0.445358
322,1438331478383,-0.807037,0.255615,0.432541
323,1438331478405,-0.856171,0.254547,0.375931
324,1438331478423,-0.920258,0.226776,0.277664
325,1438331478443,-0.967255,0.206482,0.189011
326,1438331478462,-0.933075,0.203278,0.146286
327,1438331478483,-0.905304,0.164825,0.118515
328,1438331478505,-0.968323,0.0484009,0.0960846
329,1438331478522,-1.2204,-0.089386,0.0693817
330,1438331478542,-1.57501,-0.16629,0.0191803
331,1438331478560,-1.69464,-0.10968,-0.00645447
332,1438331478582,-1.48956,0.00674438,-0.0267487
333,1438331478603,-1.26526,0.0473328,-0.0278168
334,1438331478621,-1.22147,0.127441,-0.0705414
335,1438331478641,-1.26846,0.158417,-0.134628
336,1438331478662,-1.33255,0.129578,-0.216873
337,1438331478681,-1.36139,0.086853,-0.261734
338,1438331478701,-1.26633,-0.0167541,-0.273483
339,1438331478721,-1.12854,-0.174835,-0.293777
340,1438331478740,-1.0527,-0.285919,-0.319412
341,1438331478760,-1.10397,-0.401276,-0.409134
342,1438331478781,-1.28448,-0.528381,-0.535172
343,1438331478800,-1.58783,-0.673645,-0.651596
344,1438331478820,-1.93069,-0.800751,-0.724228
345,1438331478840,-2.11975,-0.932129,-0.766953
346,1438331478859,-2.10693,-1.03894,-0.795792
347,1438331478878,-2.02042,-1.06244,-0.824631
348,1438331478900,-1.94244,-1.07098,-0.854538
349,1438331478918,-1.94778,-1.08701,-0.907944
350,1438331478939,-1.95953,-1.20877,-0.992325
351,1438331478958,-1.93817,-1.23761,-1.08205
352,1438331478979,-1.85699,-1.33267,-1.10982
353,1438331479001,-1.69144,-1.36685,-1.11623
354,1438331479017,-1.35498,-1.40637,-1.0201
355,1438331479038,-1.00891,-1.55911,-0.88765
356,1438331479057,-1.06979,-1.69156,-0.781906
357,1438331479078,-1.33469,-1.78555,-0.790451
358,1438331479100,-1.7128,-1.94043,-0.872696
359,1438331479117,-2.24045,-2.05792,-1.03185
360,1438331479138,-2.46582,-2.10706,-1.11195
361,1438331479156,-2.3494,-1.98849,-1.08846
362,1438331479177,-2.04391,-1.74176,-0.943191
363,1438331479198,-1.60172,-1.49823,-0.677231
364,1438331479217,-1.10077,-1.31879,-0.383499
365,1438331479237,-0.672455,-1.24615,-0.144241
366,1438331479257,-0.471649,-1.24722,-0.0406342
367,1438331479276,-0.405426,-1.31558,-0.115402
368,1438331479299,-0.407562,-1.4021,-0.356796
369,1438331479316,-0.536804,-1.479,-0.629166
370,1438331479335,-0.634003,-1.5762,-0.862015
371,1438331479355,-0.609436,-1.70758,-0.992325
372,1438331479375,-0.466309,-1.81973,-1.00301
373,1438331479398,-0.332794,-1.918,-0.907944
374,1438331479415,-0.181122,-1.97141,-0.77977
375,1438331479435,0.206604,-2.05365,-0.625961
376,1438331479454,-0.0465393,-2.10812,-0.430496
377,1438331479473,-0.501556,-2.00879,-0.385635
378,1438331479495,-0.725861,-1.88809,-0.282028
379,1438331479513,-1.29837,-1.70865,-0.194443
380,1438331479534,-2.05139,-1.63174,-0.194443
381,1438331479554,-2.46262,-1.58047,-0.153854
382,1438331479574,-2.15927,-1.49716,-0.0919037
383,1438331479594,-1.36993,-1.50464,-0.0502472
384,1438331479613,-0.899963,-1.46832,-0.0459747
385,1438331479634,-1.073,-1.36044,-0.183762
386,1438331479653,-1.60172,-1.19382,-0.430496
387,1438331479674,-2.08557,-1.16284,-0.580032
388,1438331479693,-1.86874,-1.02505,-0.764816
389,1438331479713,-1.14883,-0.793274,-0.926102
390,1438331479733,-0.29007,-0.598877,-0.899399
391,1438331479753,0.304871,-0.43866,-0.776566
392,1438331479772,0.87738,-0.346802,-0.618484
393,1438331479791,1.31851,-0.30835,-0.442245
394,1438331479812,0.906219,-0.406616,-0.24144
395,1438331479831,0.682983,-0.25708,-0.270279
396,1438331479851,0.222626,-0.214355,-0.506332
397,1438331479872,-0.27298,-0.458954,-0.648392
398,1438331479891,-0.243073,-0.605286,-0.83638
399,1438331479911,0.384979,-0.698212,-0.786179
400,1438331479932,1.10916,-0.675781,-0.946396
401,1438331479951,1.34521,-0.854156,-1.08525
402,1438331479969,1.37192,-0.92572,-1.2946
403,1438331479991,1.40503,-0.709961,-1.23692
404,1438331480010,1.30356,-0.535858,-1.19847
405,1438331480031,0.895538,-0.397003,-0.995529
406,1438331480050,0.62851,-0.311554,-0.788315
