id,attr_time,attr_x,attr_y,attr_z
1,1436977877406,0.015564,0.00779724,0.000579834
2,1436977877426,0.015564,0.0110016,0.00271606
3,1436977877446,0.0134277,0.0120697,0.00378418
4,1436977877464,0.00488281,0.0120697,0.00164795
5,1436977877486,0.00488281,0.00886536,0.00164795
6,1436977877505,0.0166321,0.00886536,-0.000488281
7,1436977877524,0.0134277,0.00993347,-0.000488281
8,1436977877545,0.000610352,0.00672913,0.000579834
9,1436977877564,0.00167847,0.00352478,0.00164795
10,1436977877584,0.00167847,0.0045929,0.00378418
11,1436977877604,0.00808716,0.00672913,0.00698853
12,1436977877623,0.0112915,0.00779724,0.0101929
13,1436977877643,0.0209045,0.0120697,0.011261
14,1436977877663,0.0209045,0.0131378,0.0155334
15,1436977877683,0.00808716,0.00886536,0.0155334
16,1436977877702,0.000610352,0.00352478,0.0133972
17,1436977877722,0.0123596,0.00672913,0.0123291
18,1436977877742,0.0241089,0.00886536,0.011261
19,1436977877762,0.0177002,0.00779724,0.00912476
20,1436977877781,-0.000457764,-0.000747681,0.011261
21,1436977877801,0.00167847,-0.00288391,0.0101929
22,1436977877821,0.00915527,0.0045929,0.00912476
23,1436977877841,0.00915527,0.000320435,0.011261
24,1436977877861,-0.00900269,0.00352478,0.00912476
25,1436977877881,-0.00152588,0.0131378,0.011261
26,1436977877901,0.0230408,-0.000747681,0.0123291
27,1436977877920,0.0134277,0.00993347,0.0123291
28,1436977877940,-0.000457764,0.00886536,0.011261
29,1436977877960,-0.00900269,-0.0018158,0.00912476
30,1436977877979,-0.0154114,-0.00288391,0.00912476
31,1436977877999,-0.00900269,-0.0092926,0.00912476
32,1436977878020,-0.0164795,-0.00288391,0.0048523
33,1436977878039,-0.0271606,-0.00288391,-0.0015564
34,1436977878058,-0.0292969,-0.00608826,-0.00796509
35,1436977878079,-0.0143433,-0.00608826,-0.00689697
36,1436977878098,-0.000457764,-0.00715637,-0.00369263
37,1436977878118,-0.0186157,0.00352478,0.00164795
38,1436977878138,-0.020752,-0.0103607,0.00592041
39,1436977878157,-0.0100708,-0.00822449,0.00271606
40,1436977878177,0.00701904,0.000320435,-0.0015564
41,1436977878197,0.00488281,0.000320435,0.000579834
42,1436977878217,-0.0175476,-0.00395203,0.00164795
43,1436977878236,-0.0292969,-0.0114288,0.0048523
44,1436977878256,-0.020752,-0.00822449,0.00912476
45,1436977878276,-0.00900269,0.00245666,0.00912476
46,1436977878296,-0.012207,0.0045929,0.00698853
47,1436977878316,-0.0239563,0.0045929,0.00271606
48,1436977878335,-0.0239563,0.00352478,-0.000488281
49,1436977878355,-0.0164795,0.0045929,0.000579834
50,1436977878375,-0.0186157,0.00138855,0.000579834
51,1436977878395,-0.0186157,0.00245666,0.00378418
52,1436977878415,-0.0132751,0.000320435,0.000579834
53,1436977878434,-0.00366211,-0.000747681,-0.00262451
54,1436977878454,-0.00259399,0.000320435,-0.00369263
55,1436977878474,-0.0111389,-0.00288391,-0.00369263
56,1436977878494,-0.0143433,-0.0018158,-0.0015564
57,1436977878514,-0.00579834,0.00245666,0.00271606
58,1436977878533,0.00167847,0.00779724,0.00698853
59,1436977878553,0.000610352,0.00886536,0.00698853
60,1436977878573,-0.00686645,0.00566101,0.00912476
61,1436977878592,-0.00259399,0.0045929,0.00912476
62,1436977878613,0.00488281,0.00245666,0.00592041
63,1436977878632,0.00167847,0.00138855,0.00378418
64,1436977878652,-0.00473022,0.000320435,0.00164795
65,1436977878672,-0.00366211,0.00138855,0.00271606
66,1436977878691,-0.00152588,0.0045929,0.00378418
67,1436977878711,0.00701904,0.00993347,0.00698853
68,1436977878731,0.00915527,0.0131378,0.00912476
69,1436977878751,0.000610352,-0.000747681,0.00698853
70,1436977878770,-0.00579834,0.0110016,0.00378418
71,1436977878791,0.015564,0.015274,-0.00262451
72,1436977878810,0.0358582,-0.000747681,-0.00369263
73,1436977878830,0.015564,0.00993347,-0.00476074
74,1436977878850,-0.00793457,-0.000747681,-0.000488281
75,1436977878869,-0.0218201,-0.0103607,-0.000488281
76,1436977878888,-0.0164795,-0.0114288,-0.00262451
77,1436977878912,-0.0196838,-0.0092926,-0.000488281
78,1436977878931,-0.0453186,-0.00715637,-0.00582886
79,1436977878949,-0.0538635,-0.00715637,-0.00796509
80,1436977878971,-0.0389099,-0.0018158,-0.00796509
81,1436977878990,-0.0154114,0.00352478,-0.00369263
82,1436977879008,0.00167847,0.00245666,0.00592041
83,1436977879030,-0.00686645,0.00672913,0.0144653
84,1436977879049,-0.012207,-0.0018158,0.0166016
85,1436977879069,-0.00152588,-0.0114288,0.0101929
86,1436977879092,0.00167847,-0.00288391,0.00271606
87,1436977879108,0.00274658,-0.0114288,0.000579834
88,1436977879129,-0.00793457,-0.0124969,-0.000488281
89,1436977879149,-0.0186157,-0.0167694,0.000579834
90,1436977879168,-0.0250244,-0.0178375,0.00592041
91,1436977879190,-0.0196838,-0.00822449,0.00592041
92,1436977879208,-0.0271606,-0.00288391,0.00378418
93,1436977879226,-0.0378418,-0.0018158,0.00164795
94,1436977879247,-0.030365,-0.000747681,0.000579834
95,1436977879266,-0.0239563,0.00245666,0.00271606
96,1436977879289,-0.0250244,-0.0018158,0.0048523
97,1436977879306,-0.0228882,-0.00288391,0.0048523
98,1436977879327,-0.0132751,-0.0018158,0.00378418
99,1436977879346,-0.00259399,-0.00288391,0.0048523
100,1436977879366,0.0038147,-0.00288391,0.000579834
101,1436977879389,0.0038147,-0.00395203,-0.000488281
102,1436977879405,0.0038147,-0.00288391,-0.0015564
103,1436977879424,0.00274658,-0.0018158,-0.0015564
104,1436977879445,0.00167847,-0.00288391,-0.00369263
105,1436977879465,0.0038147,0.000320435,-0.000488281
106,1436977879484,-0.00366211,0.00245666,-0.000488281
107,1436977879505,-0.00366211,0.000320435,-0.00262451
108,1436977879524,-0.00900269,0.00672913,-0.00262451
109,1436977879543,-0.00900269,0.00566101,-0.00262451
110,1436977879564,-0.00793457,0.0045929,-0.00369263
111,1436977879585,0.000610352,0.00886536,-0.000488281
112,1436977879603,0.00808716,0.0045929,-0.000488281
113,1436977879623,0.0123596,0.00352478,0.000579834
114,1436977879642,0.0102234,0.00245666,-0.0015564
115,1436977879662,0.0112915,0.00245666,-0.00262451
116,1436977879680,0.0166321,0.00352478,-0.0015564
117,1436977879700,0.0230408,0.00779724,-0.00262451
118,1436977879722,0.0187683,0.000320435,-0.000488281
119,1436977879738,0.000610352,0.0206146,0.000579834
120,1436977879757,0.0166321,0.0142059,0.00271606
121,1436977879779,0.0209045,0.00886536,0.00164795
122,1436977879799,0.00595093,0.0163422,0.00271606
123,1436977879818,-0.00473022,0.00886536,0.00592041
124,1436977879838,-0.0239563,0.00245666,0.00164795
125,1436977879858,-0.0346375,-0.00715637,0.000579834
126,1436977879878,-0.0325012,0.000320435,-0.00262451
127,1436977879897,-0.0271606,0.00352478,-0.00582886
128,1436977879918,-0.0282288,0.00138855,-0.00582886
129,1436977879937,-0.030365,0.0045929,-0.00689697
130,1436977879956,-0.0100708,0.00779724,-0.0015564
131,1436977879981,0.0102234,0.0131378,0.00378418
132,1436977879999,0.00488281,0.015274,0.0101929
133,1436977880019,0.00701904,0.0110016,0.0101929
134,1436977880038,0.0177002,0.00245666,0.00805664
135,1436977880058,0.0209045,0.0163422,0.0048523
136,1436977880079,0.0305176,0.0142059,0.00698853
137,1436977880097,0.0177002,0.0163422,0.00805664
138,1436977880117,0.00915527,0.00993347,0.011261
139,1436977880137,0.0198364,0.0163422,0.0176697
140,1436977880157,0.0262451,0.0227509,0.0187378
141,1436977880175,0.0262451,0.0216827,0.0144653
142,1436977880196,0.0166321,0.0184784,0.0101929
143,1436977880218,0.0219727,0.0195465,0.0048523
144,1436977880236,0.0326538,0.0174103,0.00271606
145,1436977880256,0.03479,0.0184784,0.00592041
146,1436977880276,0.0326538,0.015274,0.00592041
147,1436977880295,0.0337219,0.0120697,0.00698853
148,1436977880317,0.043335,0.0120697,0.00592041
149,1436977880335,0.0454712,0.0131378,0.0048523
150,1436977880353,0.043335,0.00886536,0.00592041
151,1436977880375,0.0390625,0.00779724,0.00592041
152,1436977880394,0.0401306,0.00886536,0.00698853
153,1436977880416,0.0422668,0.00779724,0.00592041
154,1436977880433,0.0422668,0.0110016,0.00698853
155,1436977880454,0.0379944,0.00886536,0.00698853
156,1436977880473,0.0358582,0.00886536,0.00698853
157,1436977880492,0.0337219,0.00993347,0.0101929
158,1436977880516,0.0358582,0.0110016,0.011261
159,1436977880532,0.0326538,0.0110016,0.0101929
160,1436977880552,0.0283813,0.00886536,0.0123291
161,1436977880572,0.025177,0.00993347,0.0123291
162,1436977880592,0.0283813,0.00672913,0.0123291
163,1436977880614,0.0219727,0.00566101,0.0101929
164,1436977880632,0.0177002,0.00566101,0.011261
165,1436977880651,0.0166321,0.0045929,0.0144653
166,1436977880669,0.0102234,0.0045929,0.0123291
167,1436977880693,0.00167847,-0.00502014,0.0101929
168,1436977880712,0.0038147,0.0131378,0.011261
169,1436977880731,0.0326538,0.00993347,0.0101929
170,1436977880751,0.0315857,0.00566101,0.0101929
171,1436977880769,0.0134277,0.015274,0.011261
172,1436977880790,0.0112915,0.00672913,0.0123291
173,1436977880811,0.0038147,0.00138855,0.011261
174,1436977880829,-0.00366211,-0.00715637,0.00271606
175,1436977880849,-0.00259399,-0.00608826,0.000579834
176,1436977880869,0.00488281,-0.000747681,-0.00262451
177,1436977880888,-0.00259399,-0.00288391,-0.00582886
178,1436977880909,-0.0154114,-0.00715637,-0.00476074
179,1436977880929,-0.00366211,-0.00715637,-0.0015564
180,1436977880948,0.00595093,-0.00608826,0.000579834
181,1436977880967,-0.00900269,0.00245666,0.000579834
182,1436977880986,-0.0100708,-0.00715637,0.000579834
183,1436977881008,-0.00793457,-0.00608826,-0.00262451
184,1436977881026,-0.000457764,-0.00288391,0.000579834
185,1436977881047,-0.00579834,-0.00715637,0.00271606
186,1436977881066,-0.0175476,-0.0114288,0.00378418
187,1436977881086,-0.0228882,-0.0167694,0.00698853
188,1436977881107,-0.0196838,-0.0114288,0.00698853
189,1436977881122,-0.0186157,-0.00822449,0.00378418
190,1436977881142,-0.0292969,-0.0114288,0.00271606
191,1436977881162,-0.0325012,-0.0157013,0.00164795
192,1436977881181,-0.0367737,-0.0178375,0.00592041
193,1436977881201,-0.0453186,-0.02211,0.00805664
194,1436977881221,-0.0431824,-0.0231781,0.00805664
195,1436977881241,-0.030365,-0.0199738,0.00271606
196,1436977881261,-0.0164795,-0.0114288,-0.0015564
197,1436977881281,-0.00900269,-0.00715637,-0.000488281
198,1436977881300,-0.0143433,-0.00502014,0.000579834
199,1436977881320,-0.00793457,-0.00288391,0.00378418
200,1436977881340,0.0198364,0.00566101,0.00592041
201,1436977881405,0.0390625,0.00993347,0.0048523
202,1436977881406,0.0337219,-0.0018158,-0.0015564
203,1436977881407,-0.00686645,-0.0092926,-0.0133057
204,1436977881419,-0.00579834,-0.0146332,-0.0207825
205,1436977881439,0.0166321,-0.00822449,-0.0303955
206,1436977881459,0.0379944,0.000320435,-0.0239868
207,1436977881478,0.0209045,0.00245666,-0.0122375
208,1436977881498,-0.00259399,-0.000747681,-0.0015564
209,1436977881518,-0.00900269,0.00245666,0.00378418
210,1436977881538,0.00274658,0.00566101,0.0048523
211,1436977881557,0.0123596,0.0131378,0.00164795
212,1436977881577,0.0144958,0.0174103,-0.00476074
213,1436977881597,-0.00366211,0.00352478,-0.00476074
214,1436977881617,-0.012207,0.015274,-0.00582886
215,1436977881637,0.0187683,0.0195465,-0.00689697
216,1436977881656,0.0390625,0.00993347,-0.00262451
217,1436977881676,0.0187683,0.0142059,-0.000488281
218,1436977881696,0.00915527,0.00245666,0.00378418
219,1436977881715,0.0038147,-0.0018158,0.00805664
220,1436977881735,-0.00793457,-0.00502014,0.00592041
221,1436977881755,-0.0260925,-0.00502014,0.00592041
222,1436977881775,-0.0442505,0.000320435,0.000579834
223,1436977881794,-0.0538635,-0.0018158,-0.00689697
224,1436977881815,-0.0656128,-0.000747681,-0.0111694
225,1436977881834,-0.0570679,0.0045929,-0.0133057
226,1436977881854,-0.0421143,0.00779724,-0.0122375
227,1436977881874,-0.0549316,0.00566101,-0.00476074
228,1436977881893,-0.0698853,0.000320435,0.000579834
229,1436977881913,-0.0570679,-0.0114288,0.00378418
230,1436977881933,-0.0431824,0.000320435,-0.00262451
231,1436977881953,-0.020752,-0.00502014,-0.00582886
232,1436977881973,-0.0196838,-0.00608826,-0.0090332
233,1436977881993,-0.0218201,-0.0092926,-0.0111694
234,1436977882025,-0.0100708,-0.00715637,-0.00476074
235,1436977882032,-0.000457764,-0.000747681,-0.00369263
236,1436977882052,0.000610352,0.00138855,-0.00262451
237,1436977882071,0.00595093,0.00352478,-0.00476074
238,1436977882091,0.0134277,0.00886536,-0.00796509
239,1436977882111,0.00701904,0.00993347,-0.00796509
240,1436977882131,-0.00900269,0.000320435,-0.0090332
241,1436977882151,-0.0143433,-0.000747681,-0.0090332
242,1436977882171,-0.00366211,0.0045929,-0.00796509
243,1436977882190,-0.00152588,0.00672913,-0.00476074
244,1436977882210,-0.0132751,0.00566101,-0.0015564
245,1436977882230,-0.0154114,0.0045929,0.00271606
246,1436977882249,-0.00366211,0.00672913,0.00805664
247,1436977882269,0.0123596,0.0142059,0.0133972
248,1436977882289,0.0102234,0.00886536,0.0166016
249,1436977882309,0.00488281,0.00138855,0.0166016
250,1436977882328,0.0123596,0.00352478,0.011261
251,1436977882349,0.0230408,0.000320435,0.00164795
252,1436977882368,0.0273132,-0.00288391,-0.0015564
253,1436977882388,0.0283813,0.00138855,0.000579834
254,1436977882408,0.0187683,-0.00288391,0.0048523
255,1436977882427,0.00167847,-0.000747681,0.00912476
256,1436977882447,-0.00473022,-0.0092926,0.0101929
257,1436977882467,-0.00900269,-0.00715637,0.00592041
258,1436977882487,-0.00152588,0.000320435,0.00378418
259,1436977882507,0.0262451,-0.00608826,0.00164795
260,1436977882527,-0.00793457,-0.00502014,-0.00796509
261,1436977882546,-0.00900269,-0.00502014,-0.00476074
262,1436977882566,-0.00900269,0.0131378,0.000579834
263,1436977882586,0.00167847,0.000320435,0.0144653
264,1436977882605,-0.000457764,0.015274,0.0251465
265,1436977882625,0.0102234,0.015274,0.0368958
266,1436977882645,0.0198364,0.00566101,0.0326233
267,1436977882665,0.00808716,0.00352478,0.0187378
268,1436977882685,-0.00579834,-0.00395203,0.00164795
269,1436977882705,-0.0100708,-0.00822449,-0.0090332
270,1436977882724,-0.00686645,-0.0114288,-0.0197144
271,1436977882744,-0.00366211,-0.0157013,-0.0207825
272,1436977882765,-0.00686645,-0.0167694,-0.0239868
273,1436977882784,-0.00900269,-0.0167694,-0.0229187
274,1436977882803,-0.0186157,-0.0114288,-0.0186462
275,1436977882823,-0.012207,-0.00822449,-0.0101013
276,1436977882843,-0.00686645,0.00352478,0.00164795
277,1436977882863,-0.00579834,0.0206146,0.011261
278,1436977882883,-0.00686645,0.023819,0.020874
279,1436977882902,-0.0218201,0.0195465,0.0230103
280,1436977882922,-0.0292969,0.0174103,0.0240784
281,1436977882942,-0.0132751,0.023819,0.0230103
282,1436977882962,0.00915527,0.023819,0.0219421
283,1436977882981,0.000610352,0.0227509,0.0187378
284,1436977883069,-0.0292969,0.00993347,0.011261
285,1436977883070,-0.0453186,-0.00715637,0.00271606
286,1436977883071,-0.030365,-0.00608826,-0.0090332
287,1436977883072,-0.020752,-0.00502014,-0.0186462
288,1436977883081,-0.0314331,-0.0199738,-0.0239868
289,1436977883100,-0.030365,-0.0167694,-0.0239868
290,1436977883120,-0.00686645,-0.00502014,-0.0207825
291,1436977883140,0.0369263,0.00352478,-0.0143738
292,1436977883159,0.0411987,0.0120697,-0.0015564
293,1436977883179,0.00808716,0.00779724,0.0048523
294,1436977883199,0.00167847,0.00138855,0.0101929
295,1436977883218,0.0262451,0.00886536,0.0123291
296,1436977883239,0.0486755,0.00779724,0.0048523
297,1436977883258,0.0465393,0.00566101,-0.000488281
298,1436977883278,0.0262451,-0.000747681,-0.00262451
299,1436977883298,0.0112915,-0.00822449,-0.00262451
300,1436977883318,0.015564,-0.00822449,-0.0015564
301,1436977883337,0.0209045,-0.00715637,-0.00262451
302,1436977883358,0.0134277,-0.0092926,-0.00476074
303,1436977883376,0.00167847,-0.00715637,-0.00476074
304,1436977883397,-0.00473022,-0.0018158,-0.00262451
305,1436977883417,-0.00259399,0.000320435,-0.000488281
306,1436977883436,0.00701904,0.00779724,0.00378418
307,1436977883456,0.0144958,0.015274,0.0101929
308,1436977883476,0.0038147,0.0045929,0.0155334
309,1436977883496,-0.0164795,0.015274,0.0187378
310,1436977883515,-0.00152588,0.0120697,0.0166016
311,1436977883535,0.0177002,0.00245666,0.0144653
312,1436977883555,0.0166321,0.00993347,0.0101929
313,1436977883575,0.0102234,0.00352478,0.0101929
314,1436977883595,-0.00793457,-0.00502014,0.00912476
315,1436977883614,-0.0239563,-0.0103607,0.00271606
316,1436977883634,-0.0292969,-0.0092926,0.00271606
317,1436977883654,-0.0175476,-0.00608826,-0.000488281
318,1436977883674,-0.00686645,0.000320435,-0.00476074
319,1436977883693,-0.0132751,0.00245666,-0.0133057
320,1436977883713,-0.00579834,0.00245666,-0.0143738
321,1436977883733,0.0187683,0.00779724,-0.0111694
322,1436977883753,0.0187683,0.0142059,-0.0015564
323,1436977883773,0.0198364,0.00672913,0.00271606
324,1436977883793,0.0209045,0.00672913,0.000579834
325,1436977883812,0.0262451,0.0110016,-0.00369263
326,1436977883832,0.0369263,0.00779724,-0.00369263
327,1436977883852,0.0326538,0.00993347,-0.00476074
328,1436977883871,0.0273132,0.00672913,-0.0015564
329,1436977883892,0.0283813,0.0120697,0.00592041
330,1436977883911,0.0283813,0.0206146,0.00805664
331,1436977883931,0.0209045,0.0216827,0.0101929
332,1436977883951,0.0230408,0.023819,0.0101929
333,1436977883970,0.03479,0.0312958,0.011261
334,1436977883990,0.0390625,0.0302277,0.0176697
335,1436977884010,0.0422668,0.0216827,0.020874
336,1436977884029,0.052948,0.0206146,0.0230103
337,1436977884049,0.0657654,0.0174103,0.0176697
338,1436977884069,0.0700378,0.00566101,0.0101929
339,1436977884089,0.0775147,0.000320435,0.000579834
340,1436977884109,0.0700378,0.015274,-0.0122375
341,1436977884129,0.0422668,0.00566101,-0.0250549
342,1436977884148,0.0486755,-0.00715637,-0.0303955
343,1436977884169,0.0978088,0.00779724,-0.0314636
344,1436977884189,0.150146,0.0323639,-0.026123
345,1436977884208,0.160828,0.0387726,-0.0133057
346,1436977884229,0.129852,0.0312958,0.00378418
347,1436977884249,0.134125,0.0270233,0.0133972
348,1436977884269,0.190735,0.0323639,0.0262146
349,1436977884288,0.220642,0.0398407,0.0304871
350,1436977884308,0.178986,0.0312958,0.0262146
351,1436977884328,0.127716,0.015274,0.0230103
352,1436977884347,0.127716,0.00138855,0.0230103
353,1436977884368,0.154419,-0.0114288,0.0262146
354,1436977884387,0.10849,-0.0274506,0.0336914
355,1436977884407,0.0518799,-0.0520172,0.0454407
356,1436977884427,-0.0410461,-0.0509491,0.0582581
357,1436977884447,-0.202332,-0.0648346,0.0625305
358,1436977884466,-0.313416,-0.0861969,0.0796204
359,1436977884486,-0.389252,-0.0744476,0.0935059
360,1436977884506,-0.375366,-0.0691071,0.126617
361,1436977884526,-0.345459,-0.0712433,0.150116
362,1436977884545,-0.304871,-0.0413361,0.16507
363,1436977884567,-0.2034,-0.0018158,0.176819
364,1436977884585,-0.0410461,0.0451813,0.20459
365,1436977884605,0.173645,0.0975189,0.215271
366,1436977884625,0.356293,0.14772,0.285767
367,1436977884644,0.501556,0.157333,0.299652
368,1436977884665,0.583801,0.149857,0.350922
369,1436977884683,0.655365,0.161606,0.390442
370,1436977884704,1.00891,0.203262,0.438507
371,1436977884724,1.24176,0.279099,0.478027
372,1436977884746,1.22894,0.241714,0.529297
373,1436977884762,1.09009,0.14772,0.559204
374,1436977884783,0.84549,0.0975189,0.54425
375,1436977884803,0.575256,0.110336,0.515411
376,1436977884821,0.325317,0.113541,0.46521
377,1436977884842,0.0946045,0.0921783,0.390442
378,1436977884862,-0.0410461,0.0782928,0.313538
379,1436977884882,-0.105133,0.0879059,0.230225
380,1436977884902,-0.16922,0.111404,0.14798
381,1436977884922,-0.267487,0.132767,0.0903015
382,1436977884942,-0.319824,0.137039,0.0411682
383,1436977884961,-0.233307,0.171219,0.0133972
384,1436977884980,-0.125427,0.225693,-0.00476074
385,1436977885000,0.0177002,0.267349,0.00592041
386,1436977885021,0.180054,0.309006,0.039032
387,1436977885040,0.3125,0.357071,0.0785522
388,1436977885060,0.439606,0.361343,0.119141
389,1436977885080,0.526123,0.348526,0.149048
390,1436977885101,0.569916,0.330368,0.155457
391,1436977885119,0.656433,0.333572,0.149048
392,1436977885138,0.792084,0.341049,0.138367
393,1436977885159,0.823059,0.271622,0.126617
394,1436977885178,0.656433,0.123154,0.0967102
395,1436977885211,0.388336,-0.00395203,0.0657349
396,1436977885216,0.134125,-0.0381317,0.0358276
397,1436977885235,-0.0741577,-0.13533,-0.0389404
398,1436977885256,-0.258942,-0.352158,-0.14682
399,1436977885275,-0.515289,-0.500626,-0.263245
