id,attr_time,attr_x,attr_y,attr_z
1,1436607529529,0.015311476,0.05147203,-0.07850947
2,1436607529534,0.02050383,0.04444708,-0.082174666
3,1436607529546,0.02508532,0.043836214,-0.08736702
4,1436607529547,0.024474455,0.037116695,-0.09042134
5,1436607529555,0.018976668,0.03497867,-0.08736702
6,1436607529578,0.012868015,0.03864386,-0.0815638
7,1436607529595,0.009508256,0.045363378,-0.07209539
8,1436607529617,0.0101191215,0.052082896,-0.05957265
9,1436607529639,0.007981094,0.045974243,-0.05499116
10,1436607529655,0.018976668,0.04719597,-0.047355343
11,1436607529678,0.02508532,0.045974243,-0.04460645
12,1436607529698,0.029972242,0.049639434,-0.040635828
13,1436607529716,0.031804837,0.052388325,-0.041857556
14,1436607529735,0.031193973,0.048112273,-0.043995585
15,1436607529758,0.02630705,0.050861165,-0.045217317
16,1436607529778,0.025390754,0.049944866,-0.04704991
17,1436607529799,0.022947293,0.052082896,-0.047355343
18,1436607529818,0.02630705,0.052082896,-0.048577074
19,1436607529838,0.021420129,0.05299919,-0.05499116
20,1436607529856,0.020198397,0.049944866,-0.06293241
21,1436607529878,0.021725561,0.048112273,-0.06812476
22,1436607529898,0.021725561,0.046890542,-0.06904106
23,1436607529923,0.022947293,0.046890542,-0.0788149
24,1436607529937,0.022030994,0.046279676,-0.076371446
25,1436607529958,0.013173448,0.042614482,-0.07942577
26,1436607529980,0.012562582,0.043836214,-0.076676875
27,1436607530000,0.020809263,0.046890542,-0.06995736
28,1436607530021,0.022030994,0.040171023,-0.065070435
29,1436607530038,0.025390754,0.041087322,-0.06323784
30,1436607530057,0.024779888,0.04139275,-0.06262697
31,1436607530076,0.023558157,0.040476456,-0.060488947
32,1436607530096,0.018365802,0.046585105,-0.058961786
33,1436607530121,0.011951717,0.052388325,-0.058045484
34,1436607530141,0.0043159015,0.048112273,-0.05987808
35,1436607530161,0.0033996038,0.053610057,-0.057740055
36,1436607530178,-0.0011818856,0.052082896,-0.058961786
37,1436607530266,0.0052321996,0.050861165,-0.06445957
38,1436607530267,0.008897391,0.05147203,-0.06415414
39,1436607530270,0.013784314,0.049028568,-0.063848704
40,1436607530271,0.017754937,0.038949292,-0.06781933
41,1436607530278,0.021114696,0.038949292,-0.069651924
42,1436607530305,0.015006043,0.038032994,-0.066597596
43,1436607530318,0.017144071,0.036811262,-0.06720847
44,1436607530336,0.012257149,0.03864386,-0.065375865
45,1436607530358,0.009202823,0.044752512,-0.057740055
46,1436607530378,0.012257149,0.042614482,-0.053158566
47,1436607530398,0.01470061,0.03986559,-0.051020537
48,1436607530422,0.02264186,0.038949292,-0.04796621
49,1436607530438,0.02630705,0.044752512,-0.04552275
50,1436607530456,0.032415703,0.043836214,-0.046133615
51,1436607530478,0.031499404,0.041698188,-0.049798805
52,1436607530499,0.02264186,0.042919915,-0.0525477
53,1436607530519,0.024474455,0.043225348,-0.052242264
54,1436607530541,0.02508532,0.039560158,-0.049798805
55,1436607530559,0.02508532,0.04566881,-0.050715104
56,1436607530579,0.021725561,0.05147203,-0.054380294
57,1436607530599,0.023252726,0.049944866,-0.055907458
58,1436607530619,0.022947293,0.045057945,-0.05835092
59,1436607530639,0.026917916,0.046279676,-0.055907458
60,1436607530658,0.019892966,0.04719597,-0.065375865
61,1436607530678,0.024169022,0.04719597,-0.07301168
62,1436607530699,0.025696186,0.049639434,-0.07698231
63,1436607530718,0.02630705,0.046585105,-0.0788149
64,1436607530736,0.02508532,0.04444708,-0.0788149
65,1436607530758,0.022030994,0.049639434,-0.08186923
66,1436607530776,0.022336427,0.051166598,-0.075149715
67,1436607530801,0.018976668,0.050861165,-0.06995736
68,1436607530821,0.018365802,0.054220922,-0.07453885
69,1436607530839,0.016227774,0.047501408,-0.076371446
70,1436607530858,0.014395177,0.048112273,-0.06812476
71,1436607530877,0.018671235,0.049944866,-0.07056823
72,1436607530899,0.018671235,0.045974243,-0.0656813
73,1436607530918,0.017144071,0.046585105,-0.070873655
74,1436607530936,0.01683864,0.04719597,-0.07148452
75,1436607531011,0.014089746,0.047806837,-0.07270625
76,1436607531012,0.0082865255,0.049028568,-0.07056823
77,1436607531013,0.011340852,0.047501408,-0.07270625
78,1436607531018,0.012868015,0.046890542,-0.075455144
79,1436607531038,0.011951717,0.042919915,-0.076371446
80,1436607531059,0.013784314,0.04719597,-0.07331712
81,1436607531078,0.011646285,0.04719597,-0.07117909
82,1436607531097,0.0037050364,0.0502503,-0.06323784
83,1436607531118,0.0027887386,0.05299919,-0.05835092
84,1436607531138,0.0030941712,0.05513722,-0.053463995
85,1436607531159,0.007981094,0.050861165,-0.049798805
86,1436607531179,0.008897391,0.05299919,-0.04918794
87,1436607531201,0.01470061,0.04719597,-0.048577074
88,1436607531220,0.02264186,0.037422128,-0.05285313
89,1436607531240,0.02050383,0.038338427,-0.054685727
90,1436607531260,0.020198397,0.03772756,-0.05040967
91,1436607531281,0.020809263,0.03986559,-0.055602025
92,1436607531299,0.019892966,0.042309053,-0.055907458
93,1436607531320,0.020809263,0.03986559,-0.06323784
94,1436607531340,0.018976668,0.040476456,-0.0656813
95,1436607531360,0.017144071,0.040476456,-0.07362255
96,1436607531380,0.016227774,0.03986559,-0.07026279
97,1436607531407,0.012257149,0.036811262,-0.076676875
98,1436607531421,0.017449504,0.042309053,-0.07942577
99,1436607531439,0.021725561,0.040476456,-0.07576058
100,1436607531457,0.016227774,0.036811262,-0.076676875
101,1436607531480,0.021420129,0.043225348,-0.070873655
102,1436607531500,0.022336427,0.038032994,-0.07178995
103,1436607531519,0.026917916,0.039254725,-0.07270625
104,1436607531538,0.027834214,0.040171023,-0.07301168
105,1436607531559,0.02386359,0.04139275,-0.069651924
106,1436607531580,0.020809263,0.042309053,-0.07148452
107,1436607531600,0.01683864,0.045057945,-0.069651924
108,1436607531620,0.012257149,0.049639434,-0.070873655
109,1436607531639,0.011951717,0.055748086,-0.07117909
110,1436607531666,0.013173448,0.059107848,-0.07362255
111,1436607531726,0.015311476,0.060024142,-0.07331712
112,1436607531727,0.01683864,0.049944866,-0.07576058
113,1436607531728,0.01470061,0.045363378,-0.07789861
114,1436607531744,0.017144071,0.04566881,-0.082174666
115,1436607531758,0.021114696,0.045974243,-0.081258364
116,1436607531784,0.019587534,0.048112273,-0.08034207
117,1436607531800,0.01470061,0.047806837,-0.076371446
118,1436607531819,0.011646285,0.052082896,-0.06873563
119,1436607531839,0.010424554,0.056358952,-0.06323784
120,1436607531857,0.0055376324,0.05880241,-0.056823753
121,1436607531880,0.010729987,0.056969818,-0.054685727
122,1436607531900,0.01470061,0.059413277,-0.05407486
123,1436607531918,0.020809263,0.056358952,-0.05957265
124,1436607531938,0.020198397,0.05513722,-0.05957265
125,1436607531960,0.018671235,0.05147203,-0.05835092
126,1436607531980,0.017754937,0.049944866,-0.05621289
127,1436607531999,0.017144071,0.05177746,-0.061405245
128,1436607532020,0.018671235,0.056358952,-0.06720847
129,1436607532041,0.016227774,0.055442654,-0.069651924
130,1436607532061,0.013784314,0.052693762,-0.07453885
131,1436607532081,0.013478881,0.061551306,-0.082480095
132,1436607532100,0.008897391,0.05849698,-0.08736702
133,1436607532122,0.011951717,0.061245874,-0.089810476
134,1436607532140,0.013173448,0.05727525,-0.09530827
135,1436607532158,0.015006043,0.049028568,-0.0937811
136,1436607532179,0.018365802,0.04872314,-0.09133764
137,1436607532202,0.019892966,0.044752512,-0.087061584
138,1436607532219,0.022336427,0.046585105,-0.07942577
139,1436607532242,0.021725561,0.045057945,-0.08003663
140,1436607532262,0.022336427,0.049028568,-0.08186923
141,1436607532282,0.014089746,0.0502503,-0.07698231
142,1436607532302,0.010424554,0.055442654,-0.07423341
143,1436607532320,0.0055376324,0.06216217,-0.07423341
144,1436607532340,0.0037050364,0.055442654,-0.07301168
145,1436607532360,0.00645393,0.05727525,-0.07209539
146,1436607532387,0.011646285,0.057886116,-0.07423341
147,1436607532503,0.017754937,0.05177746,-0.0815638
148,1436607532504,0.022336427,0.047806837,-0.0815638
149,1436607532505,0.021725561,0.042003617,-0.08919961
150,1436607532506,0.015922341,0.042614482,-0.09164307
151,1436607532507,0.012562582,0.043836214,-0.09439197
152,1436607532508,0.012868015,0.046890542,-0.098668024
153,1436607532519,0.012257149,0.050861165,-0.09744629
154,1436607532538,0.008897391,0.050555732,-0.09530827
155,1436607532558,0.008897391,0.0502503,-0.09133764
156,1436607532578,0.007675661,0.045974243,-0.08461812
157,1436607532599,0.013478881,0.04872314,-0.0788149
158,1436607532620,0.01806037,0.050555732,-0.07331712
159,1436607532639,0.021420129,0.048112273,-0.07240082
160,1436607532659,0.020198397,0.04566881,-0.07240082
161,1436607532678,0.017754937,0.04353078,-0.07240082
162,1436607532701,0.012868015,0.045363378,-0.06690303
163,1436607532719,0.01103542,0.052388325,-0.06629217
164,1436607532741,0.009813689,0.062467605,-0.07453885
165,1436607532761,0.010729987,0.06094044,-0.07728774
166,1436607532781,0.01103542,0.0643002,-0.08034207
167,1436607532802,0.010424554,0.059718713,-0.078204036
168,1436607532819,0.007675661,0.06216217,-0.0797312
169,1436607532841,0.0055376324,0.061551306,-0.07912034
170,1436607532861,0.0082865255,0.060635008,-0.08186923
171,1436607532883,0.015616909,0.052693762,-0.080952935
172,1436607532899,0.019587534,0.053304628,-0.07606601
173,1436607532921,0.018976668,0.049944866,-0.06995736
174,1436607532940,0.022336427,0.046890542,-0.06445957
175,1436607532958,0.024169022,0.045974243,-0.061405245
176,1436607532979,0.022336427,0.047806837,-0.063543275
177,1436607533005,0.016533207,0.052082896,-0.05835092
178,1436607533024,0.015311476,0.053915493,-0.05957265
179,1436607533044,0.0018724408,0.06216217,-0.06079438
180,1436607533062,-0.0005710204,0.058191545,-0.058045484
181,1436607533079,0.0027887386,0.059413277,-0.05712919
182,1436607533099,0.00645393,0.059718713,-0.06323784
183,1436607533119,0.018365802,0.062467605,-0.076371446
184,1436607533141,0.024169022,0.053610057,-0.0797312
185,1436607533159,0.024474455,0.042003617,-0.08431269
186,1436607533239,0.020198397,0.041698188,-0.088283315
187,1436607533240,0.02264186,0.041087322,-0.088588744
188,1436607533241,0.01806037,0.041698188,-0.082174666
189,1436607533242,0.017144071,0.050861165,-0.07698231
190,1436607533259,0.013173448,0.0502503,-0.07392798
191,1436607533281,0.010729987,0.049944866,-0.06690303
192,1436607533298,0.014395177,0.046585105,-0.06629217
193,1436607533321,0.015311476,0.053915493,-0.06598674
194,1436607533338,0.021114696,0.05605352,-0.06201611
195,1436607533359,0.023252726,0.054526355,-0.06476501
196,1436607533390,0.019587534,0.053610057,-0.06873563
197,1436607533399,0.014395177,0.053610057,-0.069346495
198,1436607533424,0.0101191215,0.056358952,-0.06720847
199,1436607533440,0.0067593628,0.060635008,-0.06720847
200,1436607533460,0.008591958,0.061245874,-0.07117909
201,1436607533480,0.016227774,0.0643002,-0.075149715
202,1436607533502,0.017754937,0.05727525,-0.08278553
203,1436607533522,0.015311476,0.054220922,-0.08431269
204,1436607533541,0.013173448,0.055748086,-0.0806475
205,1436607533560,0.01470061,0.060329575,-0.082174666
206,1436607533582,0.008897391,0.057886116,-0.08278553
207,1436607533602,0.00645393,0.053304628,-0.075455144
208,1436607533624,0.012257149,0.051166598,-0.076371446
209,1436607533639,0.01103542,0.049639434,-0.065375865
210,1436607533662,0.015922341,0.049334,-0.063543275
211,1436607533679,0.024474455,0.049028568,-0.060488947
212,1436607533700,0.025390754,0.04719597,-0.056823753
213,1436607533719,0.025390754,0.048112273,-0.0525477
214,1436607533751,0.017754937,0.049028568,-0.051631402
215,1436607533786,0.017144071,0.05177746,-0.04704991
216,1436607533787,0.007064795,0.0502503,-0.049493372
217,1436607533808,0.0082865255,0.055442654,-0.048882507
218,1436607533819,0.0058430647,0.05758068,-0.05285313
219,1436607533839,0.009813689,0.055442654,-0.05712919
220,1436607533860,0.012868015,0.050555732,-0.06201611
221,1436607533880,0.015922341,0.046585105,-0.061405245
222,1436607533954,0.016533207,0.04566881,-0.0656813
223,1436607533955,0.015006043,0.04139275,-0.06873563
224,1436607533963,0.023252726,0.04139275,-0.06843019
225,1436607533964,0.018671235,0.030702611,-0.06690303
226,1436607533981,0.013784314,0.037422128,-0.063848704
227,1436607534000,0.011340852,0.040171023,-0.06262697
228,1436607534021,0.009202823,0.04078189,-0.05743462
229,1436607534039,0.0101191215,0.03986559,-0.057740055
230,1436607534063,0.01806037,0.05147203,-0.050104238
231,1436607534079,0.018976668,0.044752512,-0.050715104
232,1436607534100,0.018365802,0.045057945,-0.05499116
233,1436607534125,0.01806037,0.047501408,-0.05712919
234,1436607534140,0.02600162,0.043836214,-0.048577074
235,1436607534161,0.028750513,0.04078189,-0.046133615
236,1436607534182,0.025696186,0.040171023,-0.05040967
237,1436607534203,0.026612483,0.044752512,-0.04674448
238,1436607534223,0.02050383,0.044141646,-0.051936835
239,1436607534243,0.015006043,0.045057945,-0.051020537
240,1436607534262,0.015922341,0.04444708,-0.050715104
241,1436607534283,0.02386359,0.039560158,-0.04674448
242,1436607534303,0.029361377,0.046585105,-0.041857556
243,1436607534323,0.031804837,0.04353078,-0.030556548
244,1436607534343,0.03577546,0.042614482,-0.007954538
245,1436607534361,0.04005152,0.044752512,0.019534402
246,1436607534382,0.051047094,0.04353078,0.06657103
247,1436607534403,0.06295896,0.042919915,0.124908656
248,1436607534421,0.07487084,0.043836214,0.18171912
249,1436607534440,0.081284925,0.028564584,0.22478512
250,1436607534461,0.08647728,0.02001247,0.26082617
251,1436607534481,0.09961088,0.012376655,0.2843445
252,1436607534521,0.11396621,-0.0007569473,0.32496703
253,1436607534522,0.12679438,-0.01847204,0.37291995
254,1436607534540,0.15428331,-0.022137234,0.429425
255,1436607534560,0.17138755,-0.031911075,0.49570388
256,1436607534580,0.18665917,-0.026718723,0.5384644
257,1436607534600,0.19826561,-0.018777473,0.59680206
258,1436607534620,0.19398956,-0.012057954,0.6627755
259,1436607534675,0.18085596,0.0071842987,0.73546845
260,1436607534676,0.16039197,0.035284102,0.80968857
261,1436607534684,0.14023341,0.058191545,0.8698588
262,1436607534705,0.11243905,0.068576254,0.9468278
263,1436607534720,0.08647728,0.075601205,1.0265458
264,1436607534741,0.068456754,0.08781851,1.0964899
265,1436607534760,0.04280041,0.09392717,1.1468861
266,1436607534780,0.02966681,0.09942495,1.1749861
267,1436607534802,0.03211027,0.10797707,1.2021694
268,1436607534821,0.019587534,0.11194769,1.2281313
269,1436607534842,0.015311476,0.101562984,1.2580638
270,1436607534862,0.023558157,0.10217385,1.3157904
271,1436607534880,0.03669176,0.10492274,1.3579402
272,1436607534901,0.07028935,0.109198794,1.390316
273,1436607534921,0.11152275,0.108893365,1.4266624
274,1436607534941,0.13962255,0.109198794,1.4550676
275,1436607534963,0.16802779,0.10003582,1.4682014
276,1436607534982,0.20040365,0.072546884,1.4492645
277,1436607535003,0.24988373,0.049028568,1.3787096
278,1436607535023,0.2993638,0.004129974,1.2870798
279,1436607535043,0.35922858,-0.06764669,1.1881196
280,1436607535063,0.44413885,-0.15164067,1.1325309
281,1436607535085,0.5217188,-0.20264792,1.1126778
282,1436607535102,0.63320166,-0.22066845,1.1493297
283,1436607535124,0.7862234,-0.22311191,1.2559257
284,1436607535143,0.9471864,-0.22433363,1.3518314
285,1436607535161,1.0907397,-0.2099783,1.312736
286,1436607535183,1.1793152,-0.21120003,1.215914
287,1436607535203,1.2819406,-0.23105316,1.1826217
288,1436607535224,1.4071679,-0.2851147,1.2678375
289,1436607535244,1.5174291,-0.3486447,1.3399196
290,1436607535262,1.6060046,-0.41003665,1.3075438
291,1436607535283,1.6591499,-0.48425677,1.2608125
292,1436607535304,1.6866388,-0.52579564,1.1395559
293,1436607535323,1.6912203,-0.5871876,1.0607543
294,1436607535343,1.6652585,-0.63361335,1.1001551
295,1436607535368,1.6142513,-0.5862713,1.1132886
296,1436607535485,1.5531647,-0.5215196,1.0323489
297,1436607535486,1.4355732,-0.4506592,0.91628456
298,1436607535487,1.3198142,-0.35689136,0.819157
299,1436607535488,1.2349039,-0.3214612,0.800831
300,1436607535498,1.1002082,-0.2108946,0.7910572
301,1436607535499,0.9670395,-0.028856749,0.7128664
302,1436607535505,0.8244025,0.0652165,0.6328431
303,1436607535523,0.7141413,0.10186841,0.66247004
304,1436607535541,0.5898303,0.104311876,0.6737711
305,1436607535585,0.45146924,0.08476418,0.5726729
306,1436607535586,0.35311994,0.0029082429,0.49326038
307,1436607535601,0.26423904,-0.059400007,0.44683462
308,1436607535624,0.2178133,-0.07497708,0.50700486
309,1436607535642,0.1774962,0.019096171,0.6169606
310,1436607535662,0.0941131,0.12874648,0.63101053
311,1436607535684,0.020809263,0.12721932,0.5738946
312,1436607535704,-0.053410865,0.08048813,0.5118918
313,1436607535723,-0.10472354,0.012071222,0.44866723
314,1436607535744,-0.20673804,0.006268002,0.27365434
315,1436607535764,-0.31913725,0.07804467,0.21165153
316,1436607535784,-0.3579272,0.16753642,0.2461654
317,1436607535804,-0.38541615,0.20968612,0.31305516
318,1436607535823,-0.40404752,0.27840847,0.32252356
319,1436607535844,-0.41076705,0.33369178,0.31305516
320,1436607535862,-0.41259965,0.350796,0.26632395
321,1436607535884,-0.40771273,0.3758415,0.18232998
322,1436607535905,-0.41473767,0.3721763,0.080315486
323,1436607535921,-0.41351596,0.31170064,0.011593156
324,1436607535941,-0.41351596,0.26802376,-0.018950112
325,1436607535961,-0.3896922,0.30070505,0.022283293
326,1436607535985,-0.34632078,0.3654568,0.05740805
327,1436607536009,-0.2614105,0.39661092,0.04427445
328,1436607536026,-0.20246199,0.41860205,-0.06781933
329,1436607536044,-0.14778954,0.42318353,-0.17472075
330,1436607536062,-0.12915815,0.40730104,-0.2193139
331,1436607536081,-0.15298189,0.40730104,-0.28314933
332,1436607536101,-0.21101409,0.39050224,-0.31980124
333,1436607536122,-0.24674971,0.3694274,-0.28223303
334,1436607536208,-0.2959244,0.37645236,-0.38760728
335,1436607536209,-0.33532518,0.41860205,-0.568118
336,1436607536210,-0.32860568,0.43112478,-0.604159
337,1436607536211,-0.3130286,0.43845516,-0.65424997
338,1436607536221,-0.31608292,0.43631715,-0.783448
339,1436607536242,-0.3383795,0.40058154,-0.91264594
340,1436607536262,-0.39396825,0.350796,-0.96854013
341,1436607536281,-0.47765678,0.35568294,-1.0152713
342,1436607536302,-0.6065493,0.40730104,-1.0949893
343,1436607536321,-0.7253626,0.52428174,-1.1007924
344,1436607536343,-0.8655562,0.61255175,-1.1817322
345,1436607536370,-1.0329332,0.66294813,-1.2272415
346,1436607536382,-1.1483868,0.69715655,-1.2422078
347,1436607536405,-1.2436818,0.7264781,-1.2577848
348,1436607536423,-1.3023249,0.8049743,-1.2944367
349,1436607536444,-1.324316,0.9039345,-1.3005455
350,1436607536463,-1.3374496,0.9918991,-1.2883282
351,1436607536484,-1.3594407,1.0789473,-1.2764163
352,1436607536503,-1.3551646,1.1296492,-1.2504544
353,1436607536522,-1.3460017,1.1766858,-1.2935205
354,1436607536543,-1.3124042,1.2585417,-1.3048215
355,1436607536565,-1.2754468,1.3529204,-1.2892444
356,1436607536582,-1.2659783,1.4359981,-1.2562578
357,1436607536604,-1.2675055,1.4686794,-1.2693913
358,1436607536623,-1.2565099,1.4598218,-1.3878992
359,1436607536643,-1.2412384,1.4268351,-1.4257727
360,1436607536665,-1.1975615,1.356891,-1.3014617
361,1436607536685,-1.1404456,1.3153522,-1.1951711
362,1436607536704,-1.0873003,1.2710645,-1.1582139
363,1436607536725,-1.0152181,1.2246387,-1.125227
364,1436607536744,-0.97276306,1.1962335,-1.164017
365,1436607536764,-0.9260318,1.1644685,-1.1356118
366,1436607536815,-0.8673888,1.0642866,-1.1221728
367,1436607536816,-0.82798797,0.9848741,-1.245873
368,1436607536823,-0.76690143,0.9216496,-1.3543015
369,1436607536843,-0.7262789,0.8920226,-1.4150827
370,1436607536874,-0.73635817,0.8987421,-1.4459314
371,1436607536929,-0.7641526,0.8642282,-1.4841104
372,1436607536930,-0.77514815,0.80375254,-1.4618139
373,1436607536931,-0.8328749,0.80650145,-1.3869829
374,1436607536955,-0.9788717,0.9457787,-1.5458078
375,1436607536962,-1.1037936,1.037714,-1.6169736
376,1436607536986,-1.1896203,1.0655084,-1.6093378
377,1436607537003,-1.2174146,1.0358814,-1.5711586
378,1436607537022,-1.2088624,1.0041164,-1.4920516
379,1436607537042,-1.1401402,0.9601341,-1.3668244
