id,attr_time,attr_x,attr_y,attr_z
1,1436607529515,0.04416821,0.013903834,-0.0043822927
2,1436607529532,0.041113887,0.00871148,-0.003771427
3,1436607529551,0.04264105,0.013903834,-0.0004116688
4,1436607529574,0.043862782,0.011765804,-0.008963781
5,1436607529592,0.040808454,0.01237667,-0.011407243
6,1436607529614,0.040808454,0.009322345,-0.0068257535
7,1436607529632,0.046611674,0.01573643,-0.005604023
8,1436607529654,0.042030185,0.012682103,-0.008352917
9,1436607529672,0.04264105,0.0053517222,-0.00407686
10,1436607529695,0.04600081,0.0019919612,-0.0028551295
11,1436607529715,0.04050302,0.0016865283,0.0026426576
12,1436607529732,0.038059562,0.00077022985,-0.0016333982
13,1436607529753,0.040808454,0.008406047,-0.0031605624
14,1436607529775,0.033172637,0.008100614,-0.009574647
15,1436607529795,0.038059562,0.010238644,-0.008352917
16,1436607529815,0.039281294,0.009627778,-0.006214888
17,1436607529832,0.0365324,0.0044354238,-0.009574647
18,1436607529854,0.04141932,0.010849509,-0.0065203207
19,1436607529872,0.045389943,0.011154942,-0.008047484
20,1436607529892,0.0356161,0.00657345,-0.007436619
21,1436607529914,0.035310667,0.0071843155,-0.0086583495
22,1436607529934,0.038059562,0.0019919612,-0.010490945
23,1436607529954,0.039281294,0.002297394,-0.012018108
24,1436607529981,0.03714326,0.00046479702,-0.007436619
25,1436607529997,0.04294648,0.011154942,-0.0065203207
26,1436607530014,0.04600081,0.018790755,-0.0043822927
27,1436607530033,0.051193163,0.022761378,-0.0028551295
28,1436607530057,0.04844427,0.017874457,-0.0049931575
29,1436607530074,0.04722254,0.009627778,-0.003771427
30,1436607530093,0.045389943,0.0053517222,-0.006214888
31,1436607530122,0.045695376,0.014209267,-0.006214888
32,1436607530215,0.04050302,0.018790755,-0.0052985903
33,1436607530216,0.041113887,0.01817989,-0.002244264
34,1436607530217,0.04233562,0.016347297,-0.0068257535
35,1436607530218,0.05210946,0.008406047,-0.002244264
36,1436607530227,0.05180403,0.002297394,-0.00407686
37,1436607530266,0.05088773,0.0001593642,0.0047806855
38,1436607530267,0.047833405,0.0071843155,0.0047806855
39,1436607530289,0.041113887,0.00871148,-0.0016333982
40,1436607530292,0.028285716,0.0047408566,0.0005046297
41,1436607530312,0.026758553,0.009627778,0.0017263591
42,1436607530394,0.033478074,0.012987535,-0.000106235966
43,1436607530395,0.038975857,0.019707054,-0.0043822927
44,1436607530396,0.041113887,0.014820132,-0.005909456
45,1436607530397,0.04233562,0.0029082596,0.0008100625
46,1436607530417,0.04264105,0.00657345,-0.0007171016
47,1436607530432,0.033172637,0.0047408566,0.0041698217
48,1436607530452,0.024925958,0.008406047,0.003864389
49,1436607530472,0.027674852,0.009322345,-0.0007171016
50,1436607530494,0.030729178,0.003824558,-0.0068257535
51,1436607530512,0.0356161,0.0074897483,-0.012323541
52,1436607530532,0.038059562,0.011765804,-0.011712676
53,1436607530552,0.031645477,0.011765804,-0.0086583495
54,1436607530575,0.033478074,0.013292968,-0.008047484
55,1436607530596,0.0356161,0.009322345,-0.0004116688
56,1436607530613,0.035310667,0.003824558,-0.003771427
57,1436607530634,0.033172637,-0.0010623634,-0.0071311863
58,1436607530656,0.031034611,0.00657345,-0.008047484
59,1436607530676,0.0356161,0.006268017,-0.012018108
60,1436607530693,0.02981288,0.00871148,-0.013850704
61,1436607530713,0.033172637,0.009016912,-0.010490945
62,1436607530732,0.037448697,0.0068788826,-0.008352917
63,1436607530756,0.037754126,0.011460371,-0.0052985903
64,1436607530773,0.044779077,0.01665273,-0.006214888
65,1436607530795,0.049666002,0.012987535,-0.0052985903
66,1436607530816,0.04630624,0.017874457,-0.0071311863
67,1436607530832,0.041113887,0.02245595,-0.0068257535
68,1436607530852,0.042030185,0.025510274,-0.0043822927
69,1436607530872,0.041113887,0.017263591,-0.012018108
70,1436607530896,0.043557346,0.02031792,-0.0065203207
71,1436607530916,0.04722254,0.014820132,-0.0086583495
72,1436607530943,0.05088773,0.0029082596,-0.003771427
73,1436607530953,0.05424749,-0.0032003932,0.00019919686
74,1436607530978,0.049360566,0.005962584,-0.0013279654
75,1436607530993,0.0487497,0.0026028268,0.0032535233
76,1436607531016,0.043557346,0.009016912,-0.0019388311
77,1436607531032,0.042030185,0.009627778,-0.00407686
78,1436607531055,0.049360566,0.007795181,-0.008963781
79,1436607531073,0.052414894,0.0044354238,-0.003771427
80,1436607531094,0.04722254,0.0074897483,-0.0071311863
81,1436607531117,0.04997143,0.004129991,-0.0019388311
82,1436607531134,0.046917107,0.008100614,-0.005909456
83,1436607531153,0.04294648,0.009933211,-0.0052985903
84,1436607531176,0.044473648,0.009016912,-0.00407686
85,1436607531195,0.04264105,0.010238644,-0.0007171016
86,1436607531217,0.041113887,0.018485323,-0.0007171016
87,1436607531235,0.041724753,0.012071237,-0.00407686
88,1436607531256,0.035005234,0.019401621,-0.0031605624
89,1436607531277,0.042030185,0.014209267,-0.0013279654
90,1436607531295,0.04264105,0.015430998,-0.0052985903
91,1436607531314,0.040808454,0.009322345,-0.0034659952
92,1436607531334,0.038670428,0.009933211,-0.010185513
93,1436607531356,0.038059562,0.00657345,-0.0068257535
94,1436607531377,0.03714326,0.01237667,-0.005909456
95,1436607531393,0.036226965,0.012682103,-0.0028551295
96,1436607531417,0.039281294,0.009933211,-0.008963781
97,1436607531433,0.038670428,0.020623352,-0.00407686
98,1436607531453,0.035005234,0.024288543,-0.0016333982
99,1436607531474,0.040808454,0.023372244,-0.0016333982
100,1436607531495,0.043862782,0.016347297,-0.0046877246
101,1436607531515,0.03439437,0.022150517,-0.0013279654
102,1436607531548,0.033478074,0.019096188,-0.0013279654
103,1436607531580,0.037754126,0.02153965,-0.003771427
104,1436607531602,0.03683783,0.022150517,-0.0028551295
105,1436607531603,0.039892156,0.024288543,0.00019919686
106,1436607531627,0.04050302,0.02612114,-0.003771427
107,1436607531633,0.042030185,0.019401621,-0.0043822927
108,1436607531665,0.046611674,0.017569024,-0.00407686
109,1436607531677,0.045389943,0.019707054,-0.0043822927
110,1436607531694,0.042030185,0.02031792,-0.0010225344
111,1436607531714,0.043557346,0.012987535,-0.0013279654
112,1436607531734,0.049360566,0.010849509,-0.0025496967
113,1436607531755,0.045695376,0.018790755,-0.0034659952
114,1436607531774,0.04813884,0.019707054,-0.0046877246
115,1436607531793,0.04294648,0.023066811,-0.007742051
116,1436607531815,0.043862782,0.021845084,-0.006214888
117,1436607531834,0.04813884,0.025204841,-0.0043822927
118,1436607531854,0.047527973,0.022150517,-0.002244264
119,1436607531874,0.043862782,0.01665273,-0.0031605624
120,1436607531894,0.04600081,0.017874457,0.0008100625
121,1436607531914,0.045695376,0.027953735,-0.0046877246
122,1436607531934,0.04294648,0.025204841,-0.0065203207
123,1436607531954,0.044473648,0.024593975,-0.000106235966
124,1436607531974,0.041724753,0.025204841,-0.0004116688
125,1436607531994,0.04416821,0.027037438,-0.0013279654
126,1436607532013,0.04416821,0.027953735,-0.005909456
127,1436607532034,0.046611674,0.023066811,-0.008352917
128,1436607532053,0.04019759,0.017569024,-0.00988008
129,1436607532074,0.04050302,0.021234218,-0.0065203207
130,1436607532094,0.039892156,0.02031792,-0.002244264
131,1436607532118,0.04264105,0.020012487,-0.0016333982
132,1436607532137,0.043251917,0.022150517,-0.0043822927
133,1436607532157,0.04294648,0.028870033,-0.0016333982
134,1436607532177,0.035921533,0.0285646,-0.0007171016
135,1436607532193,0.035921533,0.027648302,0.002031792
136,1436607532216,0.04141932,0.031008061,-0.0031605624
137,1436607532235,0.041113887,0.025510274,-0.0016333982
138,1436607532256,0.04050302,0.02734287,-0.0016333982
139,1436607532277,0.045084514,0.032840654,-0.006214888
140,1436607532296,0.043557346,0.032535225,-0.007436619
141,1436607532317,0.036226965,0.035284117,-0.00407686
142,1436607532334,0.038059562,0.036200415,-0.0052985903
143,1436607532355,0.035310667,0.030702628,-0.0071311863
144,1436607532373,0.046611674,0.026732005,-0.0007171016
145,1436607532395,0.049666002,0.025510274,-0.002244264
146,1436607532414,0.044473648,0.021845084,-0.00407686
147,1436607532433,0.04294648,0.017874457,-0.0019388311
148,1436607532454,0.045389943,0.024899408,-0.0031605624
149,1436607532475,0.044473648,0.02153965,-0.005909456
150,1436607532493,0.037754126,0.02031792,-0.0052985903
151,1436607532516,0.046611674,0.024593975,-0.007742051
152,1436607532539,0.049360566,0.021234218,-0.0052985903
153,1436607532558,0.04630624,0.020623352,-0.0049931575
154,1436607532579,0.045695376,0.025204841,-0.007742051
155,1436607532596,0.04600081,0.03314609,-0.005604023
156,1436607532618,0.045695376,0.027648302,-0.0046877246
157,1436607532638,0.04294648,0.030091763,-0.0046877246
158,1436607532658,0.041724753,0.021234218,-0.0049931575
159,1436607532678,0.04997143,0.015125565,-0.0046877246
160,1436607532698,0.046917107,0.024593975,-0.0052985903
161,1436607532718,0.042030185,0.021845084,-0.0004116688
162,1436607532735,0.03714326,0.020623352,-0.00407686
163,1436607532758,0.04050302,0.022150517,-0.005604023
164,1436607532777,0.037754126,0.020012487,-0.0004116688
165,1436607532795,0.04264105,0.020012487,-0.0043822927
166,1436607532815,0.04050302,0.022150517,-0.0043822927
167,1436607532838,0.039892156,0.023677677,-0.006214888
168,1436607532858,0.044473648,0.02031792,-0.005909456
169,1436607532878,0.04294648,0.02031792,-0.007742051
170,1436607532898,0.041724753,0.016041864,-0.0052985903
171,1436607532914,0.043862782,0.013598401,-0.0025496967
172,1436607532938,0.044779077,0.016958158,0.00019919686
173,1436607532954,0.03439437,0.018790755,0.0008100625
174,1436607533060,0.03714326,0.020623352,-0.0004116688
175,1436607533061,0.03714326,0.027648302,-0.0031605624
176,1436607533062,0.04141932,0.024899408,-0.005909456
177,1436607533063,0.043862782,0.028259167,-0.006214888
178,1436607533064,0.04630624,0.022150517,-0.006214888
179,1436607533077,0.044473648,0.018485323,-0.00988008
180,1436607533109,0.043251917,0.017569024,-0.007436619
181,1436607533116,0.038975857,0.015430998,-0.003771427
182,1436607533138,0.04019759,0.01237667,-0.00407686
183,1436607533159,0.045084514,0.009627778,-0.0028551295
184,1436607533175,0.04264105,0.013598401,-0.002244264
185,1436607533197,0.039281294,0.016958158,-0.0025496967
186,1436607533216,0.04050302,0.023372244,-0.0010225344
187,1436607533241,0.041724753,0.023372244,-0.008047484
188,1436607533258,0.039281294,0.018790755,-0.0086583495
189,1436607533278,0.039586723,0.012987535,-0.003771427
190,1436607533298,0.04264105,0.017874457,-0.008047484
191,1436607533319,0.04294648,0.019707054,-0.00407686
192,1436607533337,0.039586723,0.016347297,-0.005604023
193,1436607533358,0.04050302,0.015125565,-0.0052985903
194,1436607533378,0.038059562,0.01665273,-0.0071311863
195,1436607533398,0.041724753,0.01817989,-0.00407686
196,1436607533417,0.047527973,0.016958158,-0.0028551295
197,1436607533438,0.044779077,0.009322345,-0.007436619
198,1436607533456,0.046611674,0.012071237,-0.0046877246
199,1436607533478,0.046917107,0.006268017,-0.006214888
200,1436607533498,0.045695376,0.009322345,-0.010796377
201,1436607533518,0.045084514,0.010238644,-0.008963781
202,1436607533538,0.043557346,0.009322345,-0.0068257535
203,1436607533558,0.041113887,0.0068788826,-0.0046877246
204,1436607533579,0.043557346,0.0050462894,-0.006214888
205,1436607533599,0.045389943,0.0047408566,-0.0034659952
206,1436607533623,0.04050302,0.009627778,-0.005604023
207,1436607533639,0.04813884,0.010849509,-0.0068257535
208,1436607533658,0.04722254,0.010849509,-0.0046877246
209,1436607533679,0.04844427,0.009627778,0.0017263591
210,1436607533697,0.049666002,-0.00075693056,-0.0004116688
211,1436607533717,0.044779077,0.0032136925,-0.0028551295
212,1436607533773,0.043251917,0.0016865283,-0.0043822927
213,1436607533775,0.044473648,0.0013810955,-0.0043822927
214,1436607533776,0.053331193,0.012071237,-0.0004116688
215,1436607533796,0.049666002,0.0047408566,-0.0034659952
216,1436607533817,0.045695376,0.009627778,-0.0010225344
217,1436607533838,0.045389943,0.0074897483,0.00019919686
218,1436607533856,0.04294648,0.005657155,-0.0068257535
219,1436607533876,0.041113887,0.006268017,-0.0034659952
220,1436607533897,0.04264105,0.0035191253,-0.0034659952
221,1436607533919,0.043251917,0.0029082596,0.0005046297
222,1436607533937,0.047833405,0.0047408566,0.00019919686
223,1436607533961,0.046917107,0.0035191253,-0.0034659952
224,1436607533988,0.04294648,0.002297394,0.0017263591
225,1436607533997,0.038059562,0.005657155,-0.0013279654
226,1436607534019,0.039586723,0.0029082596,-0.0019388311
227,1436607534037,0.039586723,-0.014501397,-0.0025496967
228,1436607534059,0.037448697,-0.012668807,-0.002244264
229,1436607534076,0.04141932,-0.008087318,-0.00407686
230,1436607534099,0.042030185,-0.0038112588,-0.002244264
231,1436607534119,0.041724753,-0.0022840947,-0.0046877246
232,1436607534139,0.03836499,-0.004116688,-0.0013279654
233,1436607534159,0.030729178,-0.009614479,0.0008100625
234,1436607534179,0.028591149,-0.017555725,-0.003771427
235,1436607534200,0.024925958,-0.021220919,-0.006214888
236,1436607534218,0.032867208,-0.030383896,-0.009574647
237,1436607534240,0.04019759,-0.031605627,-0.0034659952
238,1436607534258,0.03714326,-0.033438224,-0.0010225344
239,1436607534278,0.02736942,-0.040463176,0.003864389
240,1436607534296,0.022787929,-0.030994762,0.0066132825
241,1436607534321,0.015457546,-0.030994762,0.009667609
242,1436607534342,0.0059891352,-0.035881687,0.0008100625
243,1436607534362,0.0023239441,-0.043212067,0.0011154953
244,1436607534379,-0.005311871,-0.043517496,0.0026426576
245,1436607534397,-0.0028684102,-0.05176418,0.0029480904
246,1436607534418,-0.0037847087,-0.06428692,0.0050861184
247,1436607534439,-0.019667204,-0.07375534,0.011500204
248,1436607534457,-0.033717107,-0.07283904,0.023106642
249,1436607534476,-0.040742055,-0.07558793,0.029215295
250,1436607534549,-0.03432797,-0.082918316,0.03318592
251,1436607534550,-0.026386723,-0.09849538,0.04723582
252,1436607534551,-0.0043955743,-0.08688894,0.062202018
253,1436607534559,0.009654327,-0.10124427,0.07350303
254,1436607534577,0.025536824,-0.116821334,0.08572033
255,1436607534597,0.047527973,-0.1314821,0.099464804
256,1436607534616,0.0627996,-0.15316781,0.10954408
257,1436607534637,0.07807124,-0.16477425,0.11809619
258,1436607534659,0.10097868,-0.17790785,0.13367325
259,1436607534679,0.14496098,-0.20112073,0.16452195
260,1436607534699,0.20726924,-0.23868895,0.2042282
261,1436607534742,0.2631634,-0.2683159,0.23263343
262,1436607534743,0.32791513,-0.29091793,0.2680636
263,1436607534759,0.39938635,-0.33062416,0.28852758
264,1436607534777,0.43664914,-0.38010424,0.29799598
265,1436607534800,0.47666082,-0.43233323,0.28241894
266,1436607534820,0.47818798,-0.5004447,0.2558463
267,1436607534840,0.4626109,-0.56000406,0.20483905
268,1436607534858,0.43603826,-0.6388057,0.16268936
269,1436607534880,0.37770063,-0.6998922,0.10465716
270,1436607534900,0.28851432,-0.75395375,0.059453126
271,1436607534920,0.18008573,-0.75517553,0.032269623
272,1436607534942,0.093037434,-0.6959216,0.024939239
273,1436607534956,-0.03310624,-0.67026526,0.028909862
274,1436607534982,-0.12840122,-0.66782176,0.043570627
275,1436607535003,-0.14611632,-0.6809554,0.05762053
276,1436607535019,-0.123819724,-0.6449143,0.071365
277,1436607535039,-0.12137626,-0.56366926,0.08327687
278,1436607535058,-0.10976982,-0.4347767,0.09457788
279,1436607535080,-0.09969055,-0.3571968,0.076251924
280,1436607535100,-0.14061852,-0.33520564,0.0023372248
281,1436607535120,-0.24751994,-0.36330545,-0.09173602
282,1436607535139,-0.42467088,-0.51113486,-0.19588855
283,1436607535161,-0.555396,-0.73898757,-0.2514773
284,1436607535179,-0.71758074,-0.8892604,-0.32233766
285,1436607535200,-0.85472,-1.0144877,-0.34860486
286,1436607535224,-0.9399357,-1.0447255,-0.31775618
287,1436607535298,-0.961316,-0.98302823,-0.26155657
288,1436607535299,-0.9432955,-0.8721562,-0.16198552
289,1436607535300,-0.9261912,-0.7362387,0.009056743
290,1436607535301,-0.8770166,-0.76097876,0.19078916
291,1436607535320,-0.70353085,-0.86329865,0.3963453
292,1436607535341,-0.50805396,-0.98547167,0.47178715
293,1436607535357,-0.37763423,-1.0199856,0.4449091
294,1436607535382,-0.31013364,-1.0175421,0.3896258
295,1436607535412,-0.31746402,-1.0480853,0.30318835
296,1436607535421,-0.4268089,-1.1467401,0.18926199
297,1436607535437,-0.49766928,-1.3153389,0.11931792
298,1436607535457,-0.47567812,-1.4973767,0.10587889
299,1436607535477,-0.40298516,-1.5535764,0.11351471
300,1436607535501,-0.30769017,-1.4973767,0.15352638
301,1436607535521,-0.16780202,-1.4860758,0.23080082
302,1436607535541,-0.029135615,-1.5285308,0.29921773
303,1436607535560,0.20849097,-1.5037909,0.37924108
304,1436607535579,0.43267852,-1.3232801,0.42597225
305,1436607535601,0.55760044,-1.1235272,0.4598753
306,1436607535621,0.6721377,-1.085959,0.5325683
307,1436607535639,0.75704795,-1.251198,0.5157695
308,1436607535662,0.68221694,-1.6992677,0.45682096
309,1436607535678,0.4100765,-2.4390256,0.5078282
310,1436607535701,-0.008977063,-2.881903,0.6553522
311,1436607535718,-0.108853534,-2.6259503,0.6394697
312,1436607535737,-0.13023381,-2.1296225,0.44582537
313,1436607535757,-0.23682979,-2.081364,0.2961634
314,1436607535778,-0.33120847,-2.1500864,0.29707968
315,1436607535803,-0.26828936,-2.0095873,0.384128
316,1436607535824,-0.100301415,-1.5749567,0.4085626
317,1436607535841,0.011792355,-1.1705638,0.3373968
318,1436607535857,0.08753964,-1.0554157,0.23477145
319,1436607535880,0.16695213,-1.0905405,0.110765815
320,1436607535898,0.24758634,-1.2117972,0.024633806
321,1436607535919,0.30928373,-1.2246253,-0.03462012
322,1436607536042,0.27263182,-1.2276797,-0.07585353
323,1436607536043,0.22467889,-1.1717856,-0.16412355
324,1436607536044,0.2042149,-1.0349517,-0.250561
325,1436607536045,0.1693956,-0.9036158,-0.39106
326,1436607536046,0.15198593,-0.77777755,-0.50804067
327,1436607536047,0.18191832,-0.6580479,-0.56301856
328,1436607536061,0.22193,-0.57894087,-0.5895912
329,1436607536080,0.28087848,-0.5377075,-0.6066954
330,1436607536101,0.33280203,-0.4772318,-0.59814334
331,1436607536118,0.34960082,-0.32756984,-0.6118878
332,1436607536138,0.3502117,-0.10399316,-0.6262431
333,1436607536161,0.36670506,0.17700486,-0.66839284
334,1436607536179,0.38991794,0.1999123,-0.7178729
335,1436607536199,0.38930708,0.14951591,-0.7496379
336,1436607536219,0.35418233,0.13516058,-0.77987576
337,1436607536238,0.29859358,0.119888954,-0.8168331
338,1436607536261,0.2350636,0.046585124,-0.87853044
339,1436607536281,0.2042149,0.015125565,-0.91823673
340,1436607536300,0.22803865,0.07682295,-0.93931156
341,1436607536321,0.26560688,0.18005918,-0.9133498
342,1436607536340,0.296761,0.22679037,-0.871811
343,1436607536361,0.26896662,0.17578313,-0.85959363
344,1436607536381,0.1956628,0.102173865,-0.8424894
345,1436607536399,0.14037949,-0.18523824,-0.8064484
346,1436607536421,0.10708734,-0.6766793,-0.77895945
347,1436607536440,0.023704227,-1.1363554,-0.78018117
348,1436607536460,-0.08350262,-1.4619465,-0.8076701
349,1436607536481,-0.15894449,-1.269524,-0.75971717
350,1436607536498,-0.15191953,-0.7475397,-0.6625896
351,1436607536518,-0.09694166,-0.1745481,-0.5184254
352,1436607536540,-0.06487124,0.36728936,-0.36601454
353,1436607536561,-0.019056339,0.577427,-0.20871672
354,1436607536582,0.027063986,0.8028363,-0.10456419
355,1436607536602,0.08906681,1.1177374,0.003558956
356,1436607536622,0.15351309,1.5914633,0.045097794
357,1436607536639,0.15748371,1.8837624,0.011194771
358,1436607536660,0.1367143,2.0483906,-0.029427767
359,1436607536680,0.118999206,2.2628043,-0.07402093
360,1436607536699,0.11961007,2.530363,-0.1280825
361,1436607536770,0.11258512,2.7453878,-0.16503985
362,1436607536772,0.09914608,2.997064,-0.20077546
363,1436607536784,0.09639719,3.4142852,-0.19802657
364,1436607536785,0.065243065,3.8260083,-0.18733643
365,1436607536798,0.035310667,4.1015086,-0.16412355
366,1436607536823,0.030423746,4.1128097,-0.086238235
367,1436607536839,0.058218114,3.8580787,0.037461977
368,1436607536859,0.11502858,3.2386613,0.14466883
369,1436607536881,0.18527809,2.4500344,0.19384348
370,1436607536899,0.30500767,2.0187635,0.25554085
371,1436607536920,0.4006081,1.7194396,0.28058633
