id,attr_time,attr_x,attr_y,attr_z
1,1436167051128,0.00267029,0.000106812,-0.0039978
2,1436167051147,0.0133514,0.00544739,-0.000793457
3,1436167051167,0.0197601,0.00971985,0.00561523
4,1436167051187,0.00694275,0.010788,0.00775146
5,1436167051207,0.0037384,0.010788,0.00775146
6,1436167051227,0.0197601,0.0139923,0.003479
7,1436167051249,0.0293732,0.0139923,0.00241089
8,1436167051267,0.0144196,0.00758362,0.00561523
9,1436167051286,-0.0112152,0.00331116,0.00668335
10,1436167051305,-0.0218964,-0.00309753,0.00881958
11,1436167051326,-0.018692,0.00117493,0.00881958
12,1436167051347,0.00160217,0.00758362,0.00668335
13,1436167051366,0.0144196,0.00971985,0.003479
14,1436167051385,0.0112152,0.010788,0.003479
15,1436167051404,0.0218964,0.0129242,0.00775146
16,1436167051426,0.0251007,0.0161285,0.00561523
17,1436167051445,0.0304413,0.010788,0.00134277
18,1436167051465,0.0251007,0.00117493,-0.00720215
19,1436167051484,0.00907898,-0.00736999,-0.00933838
20,1436167051504,-0.0037384,-0.00523376,-0.00186157
21,1436167051524,-0.0112152,-0.00630188,0.013092
22,1436167051544,-0.0251007,-0.00736999,0.0205688
23,1436167051564,-0.0229645,-0.00843811,0.0195007
24,1436167051584,-0.0122833,-0.0116425,0.00454712
25,1436167051603,0.00907898,-0.00630188,-0.00506592
26,1436167051622,0.00907898,-0.00950623,-0.00613403
27,1436167051643,-0.0133514,-0.0137787,-0.000793457
28,1436167051662,-0.0325775,-0.0223236,0.00881958
29,1436167051683,-0.0197601,-0.0223236,0.00561523
30,1436167051702,0.0037384,-0.0180511,-0.00292969
31,1436167051722,-0.000534058,-0.0159149,-0.00613403
32,1436167051742,-0.0218964,-0.0191193,-0.0039978
33,1436167051762,-0.0208282,-0.0137787,0.000274658
34,1436167051782,0.0037384,-0.0127106,0.00134277
35,1436167051801,0.0251007,-0.00736999,-0.00292969
36,1436167051821,0.0208282,-0.0105743,-0.0039978
37,1436167051841,-0.00907898,-0.0127106,-0.00613403
38,1436167051861,-0.0229645,-0.0137787,-0.00720215
39,1436167051883,-0.0165558,-0.00950623,-0.0039978
40,1436167051900,-0.00587463,-0.00416565,-0.00186157
41,1436167051919,0.00907898,0.00331116,0.00134277
42,1436167051938,0.0112152,0.0065155,-0.000793457
43,1436167051959,0.00694275,0.010788,-0.0039978
44,1436167051981,0.0165558,0.0161285,-0.00292969
45,1436167052101,0.0251007,0.0150604,-0.00613403
46,1436167052102,0.0197601,0.010788,-0.00827026
47,1436167052103,0.0154877,0.00437927,-0.00720215
48,1436167052104,0.00480652,0.00865173,-0.00613403
49,1436167052105,-0.00694275,0.0118561,-0.000793457
50,1436167052106,-0.0101471,0.0139923,0.00561523
51,1436167052118,-0.0101471,0.0139923,0.00668335
52,1436167052137,-0.00160217,0.0171967,0.003479
53,1436167052158,0.0144196,0.020401,0.00134277
54,1436167052180,0.0144196,0.0129242,0.000274658
55,1436167052197,0.00160217,0.00117493,-0.00506592
56,1436167052217,-0.00480652,0.00117493,-0.0039978
57,1436167052237,-0.000534058,0.00544739,0.00241089
58,1436167052255,0.00160217,0.0161285,0.00668335
59,1436167052277,0.0176239,0.0182648,0.00881958
60,1436167052295,0.0336456,0.0214691,0.0120239
61,1436167052316,0.0411224,0.0257416,0.0120239
62,1436167052336,0.0389862,0.0246735,0.0120239
63,1436167052356,0.0496674,0.020401,0.00881958
64,1436167052378,0.0614166,0.0171967,0.0120239
65,1436167052394,0.0603485,0.0129242,0.0109558
66,1436167052414,0.046463,0.0129242,0.00668335
67,1436167052435,0.0518036,0.010788,0.00668335
68,1436167052455,0.0571442,0.00865173,0.00454712
69,1436167052474,0.0400543,0.00544739,-0.00186157
70,1436167052495,0.0347137,0.010788,-0.000793457
71,1436167052514,0.0325775,0.0193329,0.00668335
72,1436167052534,0.0197601,0.0182648,0.0162964
73,1436167052554,0.0251007,0.020401,0.0184326
74,1436167052572,0.03685,0.0214691,0.00881958
75,1436167052594,0.0518036,0.020401,0.00454712
76,1436167052612,0.0336456,0.0171967,0.00241089
77,1436167052633,0.0165558,0.0150604,0.00454712
78,1436167052653,0.00694275,0.00971985,0.0184326
79,1436167052673,-0.0122833,0.000106812,0.0195007
80,1436167052692,-0.0101471,-0.00202942,0.0195007
81,1436167052711,0.00160217,-0.00202942,0.0109558
82,1436167052732,0.00587463,-0.00416565,0.00775146
83,1436167052751,-0.000534058,-0.00416565,0.00881958
84,1436167052774,-0.0283051,-0.0105743,0.0120239
85,1436167052791,-0.0336456,-0.00736999,0.0184326
86,1436167052810,-0.0197601,-0.00843811,0.0269775
87,1436167052831,-0.0197601,-0.00843811,0.021637
88,1436167052851,-0.0176239,0.000106812,0.0184326
89,1436167052873,-0.00694275,0.00971985,0.021637
90,1436167052889,-0.0037384,0.0139923,0.0344543
91,1436167052910,-0.0101471,0.010788,0.0419312
92,1436167052928,0.000534058,0.0118561,0.0365906
93,1436167052950,0.0165558,0.0182648,0.0291138
94,1436167052969,0.0122833,0.0236053,0.0227051
95,1436167052990,-0.0122833,0.0236053,0.0323181
96,1436167053009,-0.0347137,0.020401,0.0451355
97,1436167053027,-0.0496674,0.0193329,0.0558167
98,1436167053049,-0.0518036,0.0289459,0.0643616
99,1436167053068,-0.0453949,0.0289459,0.068634
100,1436167053088,-0.0571442,0.0278778,0.0739746
101,1436167053111,-0.0934601,0.0150604,0.0803833
102,1436167053127,-0.0955963,0.0065155,0.0761108
103,1436167053148,-0.0763702,0.00437927,0.0675659
104,1436167053167,-0.0753021,-0.00416565,0.0739746
105,1436167053187,-0.121231,-0.0137787,0.077179
106,1436167053209,-0.204544,-0.0319366,0.0953369
107,1436167053227,-0.260086,-0.0522308,0.113495
108,1436167053246,-0.327377,-0.0842743,0.12738
109,1436167053267,-0.416031,-0.134476,0.130585
110,1436167053286,-0.483322,-0.167587,0.140198
111,1436167053307,-0.585861,-0.216721,0.128448
112,1436167053326,-0.695877,-0.279739,0.111359
113,1436167053344,-0.839005,-0.348099,0.0974731
114,1436167053365,-0.978928,-0.416458,0.068634
115,1436167053385,-1.07933,-0.462387,0.049408
116,1436167053405,-1.19148,-0.509384,0.0269775
117,1436167053425,-1.36986,-0.575607,-0.0104065
118,1436167053445,-1.41258,-0.647171,-0.0531311
119,1436167053464,-1.48949,-0.657852,0.000274658
120,1436167053485,-1.5226,-0.721939,-0.00292969
121,1436167053505,-1.43822,-0.67067,0.0664978
122,1436167053524,-1.36665,-0.642899,0.191467
123,1436167053544,-1.25023,-0.583084,0.327118
124,1436167053562,-1.19469,-0.551041,0.42218
125,1436167053583,-1.15303,-0.490158,0.54715
126,1436167053604,-1.10497,-0.443161,0.644348
127,1436167053623,-0.962906,-0.372665,0.753296
128,1436167053643,-0.936203,-0.354507,0.863312
129,1436167053661,-0.999222,-0.357712,0.941284
130,1436167053682,-1.0804,-0.342758,1.00858
131,1436167053704,-1.16905,-0.342758,1.00323
132,1436167053722,-1.09001,-0.293625,0.988281
133,1436167053742,-1.05797,-0.254105,0.939148
134,1436167053761,-1.07826,-0.235947,0.900696
135,1436167053781,-1.17012,-0.223129,0.86438
136,1436167053801,-1.26305,-0.208176,0.834473
137,1436167053821,-1.28654,-0.168655,0.784271
138,1436167053840,-1.26091,-0.109909,0.727661
139,1436167053860,-1.11671,-0.0330048,0.671051
140,1436167053879,-0.88707,0.0588531,0.671051
141,1436167053903,-0.743942,0.215866,0.721252
142,1436167053920,-0.719376,0.27034,0.693481
143,1436167053939,-0.703354,0.29277,0.671051
144,1436167053959,-0.7621,0.365402,0.605896
145,1436167053977,-0.895615,0.354721,0.542877
146,1436167054002,-1.01845,0.315201,0.385864
147,1436167054018,-0.72258,0.25325,0.239532
148,1436167054039,-0.369034,0.118668,-0.0285645
149,1436167054058,-0.0165558,-0.0479584,-0.325501
150,1436167054078,0.475845,-0.219925,-0.59787
151,1436167054099,1.06651,-0.280807,-0.737793
152,1436167054118,0.955429,-0.436752,-0.815765
153,1436167054137,0.373306,-0.611923,-0.770905
154,1436167054158,-0.34874,-0.730484,-0.602142
155,1436167054177,-0.872116,-0.884293,-0.453674
156,1436167054196,-1.29616,-1.01674,-0.305206
157,1436167054217,-1.52153,-1.12569,-0.247528
158,1436167054237,-1.39122,-1.09151,-0.275299
159,1436167054257,-1.11137,-1.01567,-0.345795
160,1436167054276,-0.827255,-0.9142,-0.423767
161,1436167054294,-0.562363,-0.810593,-0.498535
162,1436167054316,-0.29213,-0.706986,-0.535919
163,1436167054337,-0.0699615,-0.627945,-0.52417
164,1436167054356,0.0614166,-0.582016,-0.471832
165,1436167054375,0.018692,-0.582016,-0.379974
166,1436167054395,-0.253677,-0.638626,-0.261414
167,1436167054414,-0.678787,-0.696304,-0.11615
168,1436167054437,-1.10497,-0.720871,0.0397949
169,1436167054454,-1.39336,-0.686691,0.182922
170,1436167054474,-1.51085,-0.594833,0.313232
171,1436167054494,-1.50337,-0.474136,0.462769
172,1436167054513,-1.34102,-0.31926,0.671051
173,1436167054534,-1.11351,-0.193222,0.939148
174,1436167054554,-0.994949,-0.108841,1.2489
175,1436167054574,-0.968246,-0.0319366,1.55118
176,1436167054594,-1.00456,0.0364227,1.82248
177,1436167054612,-0.976791,0.188095,2.11835
178,1436167054633,-0.889206,0.251114,2.25186
179,1436167054652,-0.942612,0.0898285,2.15253
180,1436167054672,-0.8358,0.0770111,1.80539
181,1436167054692,-0.497208,0.187027,1.30872
182,1436167054712,0.0261688,0.328018,0.890015
183,1436167054732,0.0614166,0.228683,0.595215
184,1436167054752,-0.339127,-0.0415497,0.436066
185,1436167054771,-0.96611,-0.284012,0.383728
186,1436167054791,-1.63368,-0.438889,0.429657
187,1436167054811,-2.16347,-0.464523,0.465973
188,1436167054832,-2.5843,-0.444229,0.446747
189,1436167054851,-2.63771,-0.412186,0.432861
190,1436167054870,-2.41981,-0.314987,0.464905
191,1436167054890,-2.0887,-0.22847,0.493744
192,1436167054910,-1.58989,-0.0896149,0.549286
193,1436167054929,-0.996017,0.0919647,0.597351
194,1436167054950,-0.521774,0.262863,0.637939
195,1436167054969,-0.284653,0.342972,0.66037
196,1436167054989,-0.112686,0.402786,0.653961
197,1436167055009,-0.0827789,0.442307,0.589874
198,1436167055031,-0.0774384,0.49144,0.493744
199,1436167055049,-0.0208282,0.561935,0.363434
200,1436167055068,0.156479,0.631363,0.219238
201,1436167055088,0.395737,0.636703,0.0536804
202,1436167055108,0.596542,0.54805,-0.179169
203,1436167055127,0.565567,0.483963,-0.341522
204,1436167055148,0.392532,0.388901,-0.417358
205,1436167055167,0.224838,0.231888,-0.434448
206,1436167055187,0.288925,-0.123795,-0.455811
207,1436167055207,0.538864,-0.474136,-0.543396
208,1436167055229,1.23421,-0.615128,-0.733521
209,1436167055245,1.86333,-0.499771,-0.842468
210,1436167055266,1.88362,-0.479477,-0.791199
211,1436167055285,1.4724,-0.458115,-0.600006
212,1436167055306,0.751419,-0.656784,-0.421631
213,1436167055326,0.0806427,-0.858658,-0.220825
214,1436167055346,-0.489731,-0.952652,-0.22403
215,1436167055366,-0.293198,-1.02315,-0.304138
216,1436167055385,0.0859833,-0.940903,-0.530579
217,1436167055405,0.246201,-0.99324,-0.763428
218,1436167055425,0.369034,-1.00499,-1.02191
219,1436167055445,0.579453,-0.997513,-1.23874
220,1436167055464,0.634995,-1.0114,-1.43527
221,1436167055484,0.524979,-1.00819,-1.56879
222,1436167055504,0.347672,-0.988968,-1.6286
223,1436167055524,0.161819,-0.966538,-1.61365
224,1436167055544,-0.0144196,-0.928085,-1.5282
225,1436167055562,-0.215225,-0.873611,-1.37973
226,1436167055583,-0.425644,-0.798843,-1.16397
227,1436167055602,-0.604019,-0.697372,-0.870239
228,1436167055623,-0.80162,-0.578812,-0.48999
229,1436167055643,-1.04408,-0.478409,-0.0552673
230,1436167055663,-1.32607,-0.412186,0.388001
231,1436167055682,-1.63475,-0.426071,0.754364
232,1436167055702,-1.87935,-0.380142,1.03955
233,1436167055722,-1.7437,-0.138748,1.47214
234,1436167055743,-1.46919,-0.0693207,1.64197
235,1436167055762,-1.25023,-0.0436859,1.65479
236,1436167055781,-0.937271,0.149643,1.63022
237,1436167055804,-0.375443,0.36647,1.54584
238,1436167055821,0.333786,0.472214,1.51807
239,1436167055841,0.659561,0.336563,1.517
240,1436167055861,0.327377,0.06633,1.52661
241,1436167055879,-0.376511,-0.109909,1.53088
242,1436167055902,-1.35277,-0.206039,1.53516
243,1436167055919,-2.23717,-0.239151,1.47427
244,1436167055939,-2.75734,-0.196426,1.33969
245,1436167055960,-2.81181,-0.183609,1.25317
246,1436167055979,-2.46574,-0.182541,1.20297
247,1436167056001,-1.92635,-0.168655,1.17413
248,1436167056018,-1.36986,-0.146225,1.16559
249,1436167056039,-0.80162,-0.112045,1.1752
250,1436167056058,-0.374374,-0.025528,1.23715
251,1436167056078,-0.253677,0.0770111,1.38242
252,1436167056101,-0.328445,0.152847,1.58215
253,1436167056117,-0.477982,0.257523,1.76694
254,1436167056138,-0.559158,0.368607,1.86841
255,1436167056158,-0.474777,0.466873,1.82889
256,1436167056177,-0.183182,0.544846,1.60352
257,1436167056196,0.28038,0.668747,1.18054
258,1436167056217,0.77919,0.653793,0.640076
259,1436167056236,1.09856,0.716812,0.0814514
260,1436167056257,1.24916,0.62175,-0.344727
261,1436167056276,1.02379,0.341904,-0.733521
262,1436167056298,0.581589,0.129349,-1.06036
263,1436167056316,0.192795,-0.00950623,-1.26971
264,1436167056334,0.185318,-0.117386,-1.37225
265,1436167056356,0.428848,-0.241287,-1.43527
266,1436167056375,0.709763,-0.407913,-1.46411
267,1436167056397,0.784531,-0.56813,-1.47159
268,1436167056414,0.724716,-0.697372,-1.51111
269,1436167056435,0.723648,-0.751846,-1.61792
270,1436167056454,0.777054,-0.784958,-1.76212
271,1436167056474,0.771713,-0.838364,-1.96933
272,1436167056493,0.804825,-0.858658,-2.19897
273,1436167056512,0.963974,-0.853317,-2.39444
274,1436167056534,1.18614,-0.842636,-2.54718
275,1436167056553,1.36665,-0.835159,-2.61768
276,1436167056573,1.42967,-0.839432,-2.56961
277,1436167056593,1.30898,-0.839432,-2.40833
278,1436167056613,1.05263,-0.833023,-2.17014
279,1436167056633,0.723648,-0.834091,-1.87106
280,1436167056651,0.334854,-0.825546,-1.55063
281,1436167056672,-0.0432587,-0.80098,-1.2131
282,1436167056691,-0.346603,-0.73262,-0.837128
283,1436167056712,-0.56984,-0.634354,-0.388519
284,1436167056732,-0.759964,-0.553177,0.086792
285,1436167056752,-0.996017,-0.520065,0.536469
286,1436167056771,-1.26091,-0.481613,0.891083
287,1436167056790,-1.36452,-0.277603,1.33862
288,1436167056811,-1.28441,-0.178268,1.66119
289,1436167056829,-1.30898,-0.0960236,1.87482
290,1436167056851,-1.36986,0.094101,2.19952
291,1436167056869,-1.17546,0.369675,2.55841
292,1436167056890,-0.653152,0.586502,2.85214
293,1436167056910,-0.197067,0.552322,2.94293
294,1436167056929,-0.0272369,0.375015,2.80728
295,1436167056950,0.0881195,0.345108,2.55414
296,1436167056968,0.0507355,0.362198,2.22089
297,1436167056989,-0.412827,0.364334,1.92502
298,1436167057008,-0.945816,0.30986,1.69858
299,1436167057029,-1.24275,0.293839,1.51166
300,1436167057049,-1.55998,0.299179,1.3728
301,1436167057068,-1.72234,0.259659,1.32687
302,1436167057088,-1.70525,0.27034,1.31726
303,1436167057107,-1.54716,0.274612,1.32153
304,1436167057128,-1.32607,0.261795,1.34717
305,1436167057146,-1.06972,0.252182,1.41766
306,1436167057167,-0.825119,0.269272,1.51486
307,1436167057186,-0.594406,0.303452,1.62381
308,1436167057207,-0.402145,0.376083,1.68256
309,1436167057227,-0.193863,0.479691,1.68576
310,1436167057247,0.0432587,0.560867,1.61099
311,1436167057266,0.271835,0.567276,1.38028
312,1436167057285,0.545273,0.569412,0.956238
313,1436167057306,0.853958,0.521347,0.355957
314,1436167057325,1.26411,0.539505,-0.227234
315,1436167057346,1.50551,0.345108,-0.777313
316,1436167057365,1.37733,0.121872,-1.2569
317,1436167057385,0.928726,-0.00736999,-1.62646
318,1436167057404,0.662766,-0.0970917,-1.80484
319,1436167057425,0.710831,-0.248764,-1.87534
320,1436167057444,0.653152,-0.541428,-1.92874
321,1436167057464,0.430984,-0.841568,-1.99069
322,1436167057484,0.225906,-1.05199,-2.04837
323,1436167057503,0.0891876,-1.16307,-2.16266
324,1436167057524,0.0699615,-1.18123,-2.33249
325,1436167057544,0.064621,-1.15132,-2.466
326,1436167057563,0.11055,-1.09578,-2.61768
327,1436167057583,0.299606,-0.995377,-2.72235
328,1436167057601,0.632858,-0.894974,-2.75333
329,1436167057623,1.01524,-0.827682,-2.72021
330,1436167057641,1.36559,-0.787094,-2.61447
331,1436167057663,1.58562,-0.757187,-2.42862
332,1436167057682,1.59309,-0.751846,-2.18082
333,1436167057702,1.42647,-0.752914,-1.90845
334,1436167057721,1.13808,-0.72728,-1.61792
335,1436167057741,0.786667,-0.65892,-1.30176
336,1436167057761,0.477982,-0.547836,-0.94928
337,1436167057780,0.203476,-0.394028,-0.548737
338,1436167057801,-0.0977325,-0.232742,-0.100128
339,1436167057820,-0.421371,-0.110977,0.347412
340,1436167057840,-0.748215,-0.0436859,0.767181
341,1436167057860,-1.03233,0.167801,1.2019
342,1436167057880,-1.03661,0.424149,1.65265
343,1436167057900,-0.890274,0.566208,1.91113
344,1436167057918,-0.735397,0.654861,2.03183
345,1436167057939,-0.499344,0.815079,2.13223
346,1436167057958,-0.15007,0.946457,2.23798
347,1436167057979,0.21843,1.01482,2.34158
348,1436167057999,0.335922,0.903732,2.35013
349,1436167058019,-0.00267029,0.71254,2.27536
350,1436167058038,-0.52391,0.607864,2.15787
351,1436167058058,-1.06865,0.600388,1.98163
352,1436167058078,-1.54182,0.614273,1.80432
353,1436167058098,-1.88255,0.607864,1.67294
354,1436167058117,-2.24571,0.526688,1.57468
355,1436167058137,-2.407,0.412399,1.55545
356,1436167058157,-2.33437,0.340836,1.57468
357,1436167058177,-2.09724,0.325882,1.6174
358,1436167058197,-1.76613,0.314133,1.67401
359,1436167058217,-1.43394,0.306656,1.74344
360,1436167058236,-1.18187,0.316269,1.84491
361,1436167058256,-1.02272,0.30986,1.94211
362,1436167058275,-0.961838,0.340836,1.99551
363,1436167058296,-0.843277,0.43483,2.0094
364,1436167058316,-0.548477,0.519211,1.95706
365,1436167058336,-0.156479,0.529892,1.75946
366,1436167058355,0.130844,0.461533,1.35678
367,1436167058375,0.408554,0.407059,0.788544
368,1436167058395,0.703354,0.376083,0.157288
369,1436167058414,0.893478,0.317337,-0.385315
370,1436167058434,0.654221,0.137894,-0.870239
371,1436167058453,0.212021,-0.0490265,-1.2868
372,1436167058474,-0.14473,-0.0693207,-1.58374
373,1436167058494,-0.151138,-0.0586395,-1.69696
374,1436167058514,0.26329,-0.192154,-1.69803
375,1436167058534,0.919113,-0.407913,-1.71191
376,1436167058552,1.49696,-0.709122,-1.68521
377,1436167058573,1.78429,-0.977219,-1.69162
378,1436167058592,1.91246,-1.18016,-1.82513
379,1436167058613,2.20299,-1.24104,-2.02701
380,1436167058632,2.42836,-1.29552,-2.2214
381,1436167058652,2.22969,-1.40767,-2.47775
382,1436167058672,1.41899,-1.53157,-2.69138
383,1436167058694,0.881729,-1.59673,-2.78003
384,1436167058712,0.604019,-1.61168,-2.93491
385,1436167058731,0.730057,-1.65334,-2.90927
386,1436167058751,1.01524,-1.66829,-2.81848
387,1436167058771,1.04836,-1.69713,-2.61554
388,1436167058791,0.797348,-1.70674,-2.34744
389,1436167058811,0.328445,-1.69926,-2.04623
390,1436167058831,-0.230179,-1.64906,-1.71832
391,1436167058850,-0.809097,-1.51021,-1.34128
392,1436167058869,-1.32072,-1.32329,-0.90976
393,1436167058890,-1.67961,-1.07762,-0.448334
394,1436167058909,-1.83662,-0.852249,0.0397949
395,1436167058929,-1.79283,-0.65892,0.442474
396,1436167058949,-1.66679,-0.353439,0.854767
397,1436167058969,-1.51726,-0.117386,1.10577
398,1436167058989,-1.40404,0.169937,1.23822
399,1436167059009,-1.1808,0.506393,1.42514
400,1436167059031,-0.910568,0.745651,1.70712
401,1436167059048,-0.674515,0.718948,2.05319
402,1436167059068,-0.485458,0.488235,2.37897
403,1436167059088,-0.42778,0.246841,2.63638
404,1436167059107,-0.659561,0.154984,2.79874
405,1436167059130,-0.955429,0.210526,2.77631
406,1436167059147,-1.28975,0.36113,2.63318
407,1436167059167,-1.74263,0.351517,2.43771
408,1436167059185,-1.96587,0.252182,2.26788
409,1436167059207,-1.87401,0.177414,2.16321
410,1436167059226,-1.60698,0.166733,2.11514
411,1436167059246,-1.23207,0.221207,2.10553
412,1436167059266,-0.81337,0.319473,2.10339
413,1436167059286,-0.476913,0.413467,2.12476
414,1436167059306,-0.212021,0.49144,2.19846
415,1436167059325,-0.0144196,0.549118,2.29352
416,1436167059345,-0.0112152,0.545914,2.35226
417,1436167059365,-0.217361,0.554459,2.3309
418,1436167059385,-0.229111,0.612137,2.24438
419,1436167059404,0.123367,0.656998,2.06067
420,1436167059427,0.656357,0.73497,1.75092
421,1436167059444,1.21819,0.728561,1.31406
422,1436167059464,1.47453,0.656998,0.744751
423,1436167059484,1.67641,0.588638,0.261963
424,1436167059502,1.65932,0.380356,-0.203735
425,1436167059524,1.3784,0.152847,-0.672638
426,1436167059542,1.01311,0.0609894,-1.09454
427,1436167059563,0.846481,0.0065155,-1.35623
428,1436167059583,1.09001,-0.117386,-1.46411
429,1436167059603,1.45103,-0.306442,-1.50256
430,1436167059625,1.59309,-0.543564,-1.55063
