id,attr_time,attr_x,attr_y,attr_z
1,1435994343832,0.00756836,-0.00306702,-0.00462341
2,1435994343850,0.00222778,-0.00520325,-0.00141907
3,1435994343871,-0.000976562,-0.0019989,0.00178528
4,1435994343891,0.00756836,-0.000930786,0.00178528
5,1435994343911,0.00970459,-0.0019989,0.000717163
6,1435994343930,0.00543213,0.000137329,-0.00675964
7,1435994343948,0.0161133,-0.0019989,-0.000350952
8,1435994343969,0.0193176,0.00120544,0.00392151
9,1435994343989,9.15527e-05,0.00120544,0.00285339
10,1435994344012,-0.0244751,-0.00840759,-0.00462341
11,1435994344029,-0.0255432,-0.0148163,-0.00996399
12,1435994344049,-0.0159302,-0.0116119,-0.0110321
13,1435994344069,-0.0159302,-0.00947571,-0.0110321
14,1435994344089,-0.023407,-0.00947571,-0.00782776
15,1435994344109,-0.0276794,-0.00733948,-0.00248718
16,1435994344128,-0.0212708,-0.00520325,-0.00248718
17,1435994344148,-0.00845337,-0.00306702,-0.00248718
18,1435994344167,-0.00311279,-0.00306702,-0.0035553
19,1435994344188,0.00115967,-0.00520325,-0.00248718
20,1435994344208,-0.00204468,-0.00520325,-0.00248718
21,1435994344227,-0.00204468,-0.000930786,-0.00248718
22,1435994344247,-0.000976562,0.000137329,-0.00141907
23,1435994344265,0.00115967,0.00227356,0.000717163
24,1435994344286,0.00222778,0.000137329,0.000717163
25,1435994344305,0.00115967,0.00227356,0.00392151
26,1435994344326,0.00115967,0.00120544,0.00285339
27,1435994344346,0.00436401,0.00120544,0.000717163
28,1435994344365,0.00650024,-0.000930786,0.000717163
29,1435994344385,0.00863647,-0.000930786,-0.00141907
30,1435994344406,0.0107727,0.00120544,-0.00141907
31,1435994344425,0.0107727,-0.000930786,0.000717163
32,1435994344443,0.00543213,0.000137329,-0.000350952
33,1435994344464,0.00650024,0.00227356,-0.00248718
34,1435994344484,0.0118408,0.00334167,-0.0035553
35,1435994344506,0.0246582,0.00227356,0.000717163
36,1435994344524,0.0278625,0.00654602,-0.000350952
37,1435994344544,0.0257263,0.00440979,-0.00141907
38,1435994344563,0.0246582,0.000137329,-0.00141907
39,1435994344582,0.0257263,0.00547791,0.000717163
40,1435994344603,0.0332031,0.00440979,0.00178528
41,1435994344622,0.0364075,0.00440979,-0.00141907
42,1435994344642,0.0235901,0.00654602,-0.00462341
43,1435994344663,0.0310669,0.00440979,-0.0035553
44,1435994344682,0.041748,0.00334167,0.00392151
45,1435994344704,0.032135,0.00547791,0.00498962
46,1435994344722,0.00970459,-0.00413513,0.00285339
47,1435994344741,0.00543213,-0.0105438,-0.00248718
48,1435994344759,0.00863647,-0.0116119,-0.00248718
49,1435994344781,0.00756836,-0.00840759,-0.00569153
50,1435994344802,0.00436401,-0.00413513,-0.00248718
51,1435994344820,0.00115967,-0.00413513,-0.000350952
52,1435994344841,0.00222778,-0.0019989,0.00285339
53,1435994344860,0.00436401,-0.00306702,0.00605774
54,1435994344880,0.00222778,0.000137329,0.00819397
55,1435994344901,0.00650024,-0.00306702,0.00819397
56,1435994344919,0.0129089,0.00227356,0.00819397
57,1435994344939,0.0129089,0.00440979,0.00605774
58,1435994344959,0.00650024,0.00547791,0.00819397
59,1435994344978,0.00436401,0.00654602,0.0124664
60,1435994345001,0.00115967,0.00868225,0.0113983
61,1435994345027,0.00115967,0.0129547,0.0103302
62,1435994345035,0.00222778,0.0150909,0.00926208
63,1435994345058,0.00543213,0.0118866,0.00926208
64,1435994345076,0.00756836,0.0108185,0.0103302
65,1435994345097,0.0129089,0.0150909,0.0103302
66,1435994345116,0.0182495,0.0161591,0.0135345
67,1435994345138,0.0235901,0.0150909,0.0156708
68,1435994345157,0.022522,0.0172272,0.0156708
69,1435994345179,0.022522,0.0161591,0.0156708
70,1435994345197,0.0257263,0.0161591,0.0156708
71,1435994345216,0.0310669,0.0161591,0.0135345
72,1435994345236,0.0374756,0.0118866,0.0113983
73,1435994345255,0.0353394,0.0108185,0.0113983
74,1435994345276,0.022522,0.0108185,0.0113983
75,1435994345295,0.022522,0.00440979,0.0124664
76,1435994345314,0.0246582,0.00975037,0.00712585
77,1435994345335,0.0139771,0.00975037,0.00285339
78,1435994345354,0.0267944,0.0108185,0.00392151
79,1435994345374,0.032135,0.00547791,0.00605774
80,1435994345393,0.0235901,0.00654602,0.00498962
81,1435994345414,0.00650024,-0.000930786,0.00498962
82,1435994345433,-0.00738525,-0.00947571,0.00285339
83,1435994345453,-0.00631714,-0.00733948,-0.000350952
84,1435994345473,-0.00952148,-0.00627136,-0.00462341
85,1435994345493,-0.0116577,-0.00733948,-0.00782776
86,1435994345513,-0.00631714,-0.00627136,-0.00569153
87,1435994345532,-0.000976562,-0.00413513,0.000717163
88,1435994345553,-0.00952148,-0.00306702,0.00498962
89,1435994345574,-0.023407,-0.00306702,0.00605774
90,1435994345591,-0.0180664,-0.0105438,0.000717163
91,1435994345612,-0.00738525,-0.00840759,-0.00141907
92,1435994345630,-0.0127258,-0.00520325,-0.00782776
93,1435994345651,-0.0255432,-0.00627136,-0.00675964
94,1435994345674,-0.03302,-0.00413513,-0.000350952
95,1435994345691,-0.0362244,-0.00306702,0.00285339
96,1435994345709,-0.0340881,-0.0019989,0.00285339
97,1435994345731,-0.0298157,0.000137329,-0.00141907
98,1435994345749,-0.0223389,0.000137329,-0.00248718
99,1435994345772,-0.0191345,-0.0019989,-0.000350952
100,1435994345790,-0.0159302,-0.00306702,0.00285339
101,1435994345809,-0.0159302,-0.0019989,0.00392151
102,1435994345829,-0.0159302,-0.0019989,0.00498962
103,1435994345849,-0.0148621,0.000137329,0.00392151
104,1435994345871,-0.0148621,-0.000930786,0.00178528
105,1435994345888,-0.00845337,0.000137329,0.000717163
106,1435994345909,-0.000976562,0.00227356,0.00178528
107,1435994345927,-0.000976562,0.00227356,0.00178528
108,1435994345948,-0.00204468,-0.000930786,0.000717163
109,1435994345967,-0.0127258,-0.000930786,0.00498962
110,1435994345987,-0.00311279,-0.0019989,0.00498962
111,1435994346007,0.00970459,-0.000930786,0.00178528
112,1435994346026,0.00436401,0.00334167,-0.0035553
113,1435994346047,0.0118408,0.00654602,-0.00248718
114,1435994346068,0.0193176,0.00334167,0.00392151
115,1435994346087,0.0171814,0.00868225,0.00605774
116,1435994346106,-0.00204468,0.00120544,0.00178528
117,1435994346126,-0.00845337,-0.00520325,-0.000350952
118,1435994346146,0.0032959,-0.00520325,-0.0035553
119,1435994346165,0.0032959,0.000137329,-0.0035553
120,1435994346185,-0.00738525,-0.000930786,-0.0035553
121,1435994346208,-0.0116577,-0.00413513,-0.00462341
122,1435994346225,-0.0105896,-0.0019989,-0.00141907
123,1435994346243,-0.00418091,0.000137329,0.00392151
124,1435994346265,-0.0105896,0.00227356,0.000717163
125,1435994346284,-0.0148621,-0.0019989,0.000717163
126,1435994346303,-0.0148621,-0.00733948,-0.00569153
127,1435994346324,-0.0116577,-0.00520325,-0.00462341
128,1435994346341,-0.0169983,-0.00413513,-0.00569153
129,1435994346363,-0.023407,-0.00733948,-0.000350952
130,1435994346382,-0.0319519,-0.00627136,0.000717163
131,1435994346405,-0.0362244,-0.00413513,0.00285339
132,1435994346422,-0.0372925,-0.00520325,-0.00248718
133,1435994346442,-0.0266113,-0.00413513,-0.00462341
134,1435994346462,-0.0191345,-0.00627136,-0.00675964
135,1435994346482,-0.0148621,-0.00627136,-0.00248718
136,1435994346504,-0.0148621,-0.00413513,0.00178528
137,1435994346521,-0.0148621,-0.00306702,0.00392151
138,1435994346541,-0.0148621,-0.00413513,0.00392151
139,1435994346560,-0.0116577,-0.00306702,-0.00141907
140,1435994346581,-0.00845337,0.000137329,-0.0035553
141,1435994346600,-0.00738525,-0.000930786,-0.0035553
142,1435994346621,-0.00418091,0.00334167,-0.0035553
143,1435994346639,-0.00418091,0.00120544,-0.00141907
144,1435994346658,-0.00738525,0.00227356,-0.000350952
145,1435994346680,0.0032959,0.00334167,0.00285339
146,1435994346702,0.0214539,0.00975037,0.00285339
147,1435994346719,0.022522,0.0129547,0.00178528
148,1435994346739,0.0193176,0.0161591,0.00178528
149,1435994346758,0.0299988,0.0129547,0.0103302
150,1435994346778,0.0289307,0.0204315,0.0156708
151,1435994346799,0.0129089,0.0150909,0.0103302
152,1435994346818,0.00115967,0.00654602,0.00712585
153,1435994346836,0.0107727,0.00227356,0.00498962
154,1435994346858,0.0118408,0.00440979,0.00178528
155,1435994346876,0.00650024,0.00440979,0.00285339
156,1435994346897,0.00543213,0.00654602,0.00392151
157,1435994346917,0.0129089,0.00761414,0.00926208
158,1435994346936,0.0214539,0.0108185,0.0103302
159,1435994346956,0.0203857,0.00868225,0.0103302
160,1435994346975,0.0107727,0.00440979,0.00819397
161,1435994346996,0.0150452,0.00227356,0.00605774
162,1435994347015,0.0182495,0.00654602,0.00712585
163,1435994347036,0.0118408,0.00975037,0.00926208
164,1435994347055,0.00863647,0.0108185,0.00819397
165,1435994347075,0.00543213,0.0108185,0.0135345
166,1435994347095,9.15527e-05,0.00868225,0.0146027
167,1435994347115,0.00756836,0.00975037,0.0135345
168,1435994347134,0.0171814,0.0118866,0.00819397
169,1435994347152,0.0246582,0.00975037,0.00712585
170,1435994347174,0.0299988,0.0108185,0.00605774
171,1435994347192,0.032135,0.0108185,0.0103302
172,1435994347214,0.0310669,0.0140228,0.0124664
173,1435994347235,0.032135,0.0129547,0.0124664
174,1435994347253,0.0289307,0.0161591,0.00926208
175,1435994347275,0.0267944,0.0161591,0.0103302
176,1435994347291,0.0299988,0.0182953,0.00819397
177,1435994347312,0.032135,0.0182953,0.00819397
178,1435994347332,0.0278625,0.0150909,0.00926208
179,1435994347352,0.0246582,0.0150909,0.0124664
180,1435994347371,0.0203857,0.0150909,0.0135345
181,1435994347392,0.032135,0.0150909,0.0124664
182,1435994347411,0.022522,0.0172272,0.00926208
183,1435994347431,0.0193176,0.0182953,0.00819397
184,1435994347451,0.0342712,0.0182953,0.0124664
185,1435994347468,0.0438843,0.0193634,0.0146027
186,1435994347490,0.0332031,0.0193634,0.0103302
187,1435994347509,0.0182495,0.00761414,0.00819397
188,1435994347530,0.0118408,0.00120544,0.00712585
189,1435994347550,0.00863647,0.00334167,0.00498962
190,1435994347572,0.00863647,0.00334167,0.00392151
191,1435994347588,0.00756836,0.00227356,0.000717163
192,1435994347609,0.0129089,0.00227356,0.00498962
193,1435994347628,0.0139771,0.00227356,0.00819397
194,1435994347648,0.00543213,0.00440979,0.00712585
195,1435994347669,-0.00311279,-0.0019989,0.00392151
196,1435994347689,0.00222778,-0.00520325,0.00498962
197,1435994347708,-0.000976562,-0.00413513,0.00178528
198,1435994347728,-0.00738525,-0.00306702,-0.000350952
199,1435994347748,-0.0137939,-0.00627136,0.000717163
200,1435994347770,-0.0159302,-0.00520325,0.00285339
201,1435994347786,-0.0159302,-0.00306702,0.00285339
202,1435994347807,-0.0169983,-0.000930786,-0.000350952
203,1435994347825,-0.0137939,-0.000930786,-0.000350952
204,1435994347846,-0.0137939,-0.00413513,-0.00141907
205,1435994347869,-0.0127258,-0.00306702,-0.000350952
206,1435994347886,-0.00952148,0.000137329,-0.0035553
207,1435994347906,-0.00738525,0.00120544,-0.00462341
208,1435994347925,-0.000976562,0.00761414,-0.00569153
209,1435994347945,0.00650024,0.00975037,-0.0035553
210,1435994347964,0.0129089,0.0108185,0.000717163
211,1435994347985,0.0235901,0.00547791,0.00178528
212,1435994348005,0.0374756,-0.00520325,-0.00248718
213,1435994348024,0.0396118,-0.0126801,-0.00675964
214,1435994348044,0.0193176,-0.0148163,-0.0121002
215,1435994348064,0.00970459,-0.0158844,-0.0131683
216,1435994348084,0.00115967,-0.0137482,-0.0131683
217,1435994348102,-0.0116577,-0.00627136,-0.00996399
218,1435994348123,-0.0127258,0.000137329,-0.00462341
219,1435994348142,-0.0127258,0.00227356,0.000717163
220,1435994348163,-0.0276794,0.00334167,0.000717163
221,1435994348183,-0.0501099,-0.00627136,-0.00462341
222,1435994348202,-0.0693359,-0.0201569,-0.00462341
223,1435994348222,-0.060791,-0.0222931,-0.00675964
224,1435994348242,-0.0575867,-0.0233612,-0.00675964
225,1435994348262,-0.0693359,-0.0222931,-0.0121002
226,1435994348281,-0.0661316,-0.0222931,-0.0131683
227,1435994348300,-0.0533142,-0.0190887,-0.00996399
228,1435994348320,-0.0426331,-0.0126801,-0.00569153
229,1435994348341,-0.051178,-0.00840759,-0.00248718
230,1435994348359,-0.0501099,-0.0126801,0.00285339
231,1435994348380,-0.0458374,-0.0126801,-0.000350952
232,1435994348401,-0.0362244,-0.0105438,-0.00462341
233,1435994348419,-0.0351562,-0.00840759,-0.00889587
234,1435994348442,-0.0308838,-0.00733948,-0.00675964
235,1435994348459,-0.0276794,-0.00733948,-0.0035553
236,1435994348479,-0.0308838,-0.00627136,-0.00248718
237,1435994348499,-0.0266113,-0.00627136,-0.00462341
238,1435994348519,-0.0169983,-0.00627136,-0.00889587
239,1435994348541,-0.00952148,-0.00733948,-0.0121002
240,1435994348558,-0.00311279,-0.0116119,-0.0110321
241,1435994348578,-0.00418091,-0.00840759,-0.0110321
242,1435994348597,-0.00311279,-0.00947571,-0.00889587
243,1435994348618,0.0032959,-0.0105438,-0.00996399
244,1435994348636,0.0107727,-0.00840759,-0.00889587
245,1435994348657,0.0171814,-0.00840759,-0.00889587
246,1435994348677,0.0129089,-0.0116119,-0.00675964
247,1435994348697,0.00436401,-0.0126801,-0.00996399
248,1435994348717,-0.000976562,-0.0148163,-0.00996399
249,1435994348735,0.00115967,-0.0116119,-0.0110321
250,1435994348756,0.0118408,-0.0116119,-0.0131683
251,1435994348775,0.0150452,-0.0126801,-0.0131683
252,1435994348796,-0.000976562,-0.0105438,-0.0131683
253,1435994348816,9.15527e-05,-0.0126801,-0.00996399
254,1435994348838,0.00222778,-0.0116119,-0.00569153
255,1435994348855,-0.00738525,-0.00627136,-0.00889587
256,1435994348875,-0.0266113,-0.0137482,-0.0153046
257,1435994348894,-0.0351562,-0.0190887,-0.0153046
258,1435994348914,-0.03302,-0.021225,-0.0153046
259,1435994348937,-0.0404968,-0.021225,-0.0153046
260,1435994348952,-0.0458374,-0.0180206,-0.0163727
261,1435994348974,-0.0469055,-0.0201569,-0.0163727
262,1435994348994,-0.0351562,-0.0180206,-0.0153046
263,1435994349013,-0.0287476,-0.0148163,-0.0131683
264,1435994349033,-0.0351562,-0.0126801,-0.0131683
265,1435994349051,-0.0383606,-0.0158844,-0.0110321
266,1435994349072,-0.0255432,-0.0126801,-0.0110321
267,1435994349091,-0.0212708,-0.00947571,-0.00996399
268,1435994349112,-0.0298157,-0.00413513,-0.00889587
269,1435994349132,-0.0287476,-0.00520325,-0.00782776
270,1435994349152,-0.0255432,-0.00520325,-0.00782776
271,1435994349172,-0.0266113,-0.00413513,-0.00569153
272,1435994349191,-0.0202026,-0.00413513,-0.00996399
273,1435994349211,-0.0137939,-0.00306702,-0.00996399
274,1435994349231,-0.00631714,-0.00520325,-0.0131683
275,1435994349250,-0.000976562,-0.00413513,-0.0110321
276,1435994349269,-0.00204468,-0.00733948,-0.00889587
277,1435994349290,-0.00311279,-0.00733948,-0.00889587
278,1435994349310,9.15527e-05,-0.00627136,-0.00889587
279,1435994349330,0.00756836,-0.00413513,-0.0121002
280,1435994349350,0.0118408,0.000137329,-0.0121002
281,1435994349368,0.0139771,-0.00306702,-0.0110321
282,1435994349389,0.0171814,-0.00413513,-0.0131683
283,1435994349408,0.0214539,-0.00413513,-0.0121002
284,1435994349431,0.0332031,-0.0019989,-0.00996399
285,1435994349448,0.0460205,0.00334167,-0.00569153
286,1435994349469,0.0492249,-0.0019989,-0.00569153
287,1435994349488,0.0396118,-0.000930786,-0.00675964
288,1435994349508,0.0449524,0.00227356,-0.00141907
289,1435994349528,0.0534973,0.00654602,0.000717163
290,1435994349545,0.0470886,0.00654602,-0.00141907
291,1435994349567,0.0299988,-0.00306702,-0.00782776
292,1435994349585,0.0257263,-0.00947571,-0.00675964
293,1435994349606,0.0299988,-0.00947571,-0.00569153
294,1435994349625,0.0235901,-0.00733948,-0.00569153
295,1435994349646,0.0246582,-0.00733948,-0.00569153
296,1435994349666,0.0267944,-0.00627136,-0.00462341
297,1435994349684,0.0332031,-0.00520325,-0.00569153
298,1435994349706,0.0353394,-0.00413513,-0.00462341
299,1435994349724,0.0246582,-0.00627136,-0.00569153
300,1435994349745,0.0203857,-0.0105438,-0.00569153
301,1435994349768,0.0150452,-0.0105438,-0.00889587
302,1435994349784,0.0129089,-0.00413513,-0.0131683
303,1435994349804,0.00436401,-0.0019989,-0.00996399
304,1435994349824,-0.00311279,-0.0019989,-0.00675964
305,1435994349844,-0.0169983,-0.00306702,-0.00248718
306,1435994349864,-0.0191345,-0.000930786,-0.000350952
307,1435994349884,-0.0127258,-0.000930786,-0.00141907
308,1435994349902,-0.00738525,0.00120544,-0.0035553
309,1435994349923,-0.00204468,-0.00413513,-0.0035553
310,1435994349943,9.15527e-05,-0.00306702,-0.00248718
311,1435994349962,0.00222778,-0.0019989,-0.000350952
312,1435994349982,0.00543213,0.00120544,0.000717163
313,1435994350001,0.0139771,0.000137329,0.000717163
314,1435994350022,0.0203857,0.00334167,0.00178528
315,1435994350041,0.0150452,0.00654602,-0.00141907
316,1435994350064,0.0150452,0.00334167,-0.00248718
317,1435994350081,0.0171814,0.00227356,-0.00462341
318,1435994350101,0.0107727,0.00440979,-0.0035553
319,1435994350121,0.0235901,0.00440979,0.000717163
320,1435994350140,0.0257263,0.00654602,-0.00141907
321,1435994350163,0.0150452,0.00547791,-0.00248718
322,1435994350179,0.0235901,0.00761414,0.00178528
323,1435994350200,0.0310669,0.00868225,0.00285339
324,1435994350218,0.0364075,0.0118866,0.00285339
325,1435994350240,0.0299988,0.00334167,0.00178528
326,1435994350261,0.0203857,-0.00520325,0.000717163
327,1435994350278,0.0161133,-0.00520325,0.00285339
328,1435994350299,0.00863647,-0.00306702,0.00178528
329,1435994350318,0.0032959,-0.00627136,-0.0035553
330,1435994350338,0.00436401,-0.00413513,-0.00569153
331,1435994350358,0.00222778,-0.00627136,-0.0035553
332,1435994350377,-0.00418091,-0.00413513,0.000717163
333,1435994350398,-0.0180664,-0.00413513,-0.000350952
334,1435994350418,-0.0255432,-0.00840759,-0.00141907
335,1435994350437,-0.0212708,-0.0116119,-0.00462341
336,1435994350457,-0.0169983,-0.00627136,-0.00889587
337,1435994350477,-0.0223389,-0.00627136,-0.0110321
338,1435994350495,-0.0266113,-0.00520325,-0.00782776
339,1435994350516,-0.0308838,-0.00520325,-0.00462341
340,1435994350535,-0.0415649,-0.00627136,-0.00462341
341,1435994350556,-0.0394287,-0.00627136,-0.00675964
342,1435994350575,-0.03302,-0.00627136,-0.0110321
343,1435994350595,-0.0276794,-0.00520325,-0.0121002
344,1435994350614,-0.03302,-0.0105438,-0.0121002
345,1435994350635,-0.0404968,-0.0105438,-0.00996399
346,1435994350655,-0.0394287,-0.00947571,-0.00675964
347,1435994350674,-0.03302,-0.00413513,-0.0035553
348,1435994350696,-0.0255432,-0.00520325,-0.0035553
349,1435994350715,-0.0266113,-0.00520325,-0.00248718
350,1435994350734,-0.0319519,-0.00627136,-0.00141907
351,1435994350753,-0.0426331,-0.00840759,-0.00141907
352,1435994350774,-0.0415649,-0.00733948,-0.00248718
353,1435994350795,-0.0287476,-0.0019989,0.00178528
354,1435994350811,-0.0276794,-0.0019989,0.000717163
355,1435994350833,-0.0287476,-0.00520325,0.00285339
356,1435994350851,-0.0287476,0.00227356,0.00392151
357,1435994350872,-0.0105896,0.00334167,0.00926208
358,1435994350895,0.0032959,0.00761414,0.00926208
359,1435994350912,-0.000976562,0.00227356,0.00605774
360,1435994350931,-0.00845337,-0.00413513,0.00392151
361,1435994350951,-0.00311279,-0.00520325,0.00392151
362,1435994350971,-0.00204468,-0.00413513,0.00178528
363,1435994350991,-0.000976562,-0.00306702,0.000717163
364,1435994351011,-0.00204468,-0.0019989,-0.00248718
365,1435994351029,0.00436401,-0.000930786,-0.00141907
366,1435994351050,0.00650024,0.00120544,0.00178528
367,1435994351070,-0.00418091,0.00120544,0.000717163
368,1435994351090,-0.0169983,-0.00306702,0.00178528
369,1435994351109,-0.00524902,-0.000930786,-0.000350952
370,1435994351127,-0.000976562,0.00440979,0.000717163
371,1435994351149,-0.00845337,0.00440979,0.00178528
372,1435994351168,-0.0169983,0.00440979,0.00498962
373,1435994351189,-0.0202026,0.00654602,0.00926208
374,1435994351208,-0.0169983,0.00654602,0.0135345
375,1435994351228,-0.0148621,0.00868225,0.0135345
376,1435994351248,-0.0127258,0.00547791,0.0103302
377,1435994351268,-0.0137939,0.00334167,0.00712585
378,1435994351287,-0.0105896,-0.000930786,0.00926208
379,1435994351307,-0.0116577,-0.000930786,0.00712585
380,1435994351327,-0.0105896,0.00120544,0.0113983
381,1435994351345,-0.0116577,0.000137329,0.0113983
382,1435994351366,-0.0137939,0.00120544,0.0113983
383,1435994351388,-0.0159302,0.00334167,0.00926208
384,1435994351406,-0.0105896,0.00227356,0.00712585
385,1435994351426,-0.0127258,0.00227356,0.00819397
386,1435994351444,-0.0127258,0.00334167,0.00926208
387,1435994351465,-0.000976562,0.00868225,0.0113983
388,1435994351487,0.00436401,0.00654602,0.0113983
389,1435994351505,9.15527e-05,0.00547791,0.00605774
