id,attr_time,attr_x,attr_y,attr_z
1,1435994343834,-0.037873644,-0.003970624,0.0061086523
2,1435994343853,-0.038179077,-0.010995574,-0.00030543262
3,1435994343878,-0.043676864,-0.011911872,-0.0021380284
4,1435994343897,-0.045814894,-0.018936822,0.0
5,1435994343915,-0.048258353,-0.019242255,0.0061086523
6,1435994343938,-0.04428773,-0.0143553335,0.004581489
7,1435994343958,-0.040317107,-0.003970624,0.004886922
8,1435994343974,-0.03726278,0.013133603,0.0067195175
9,1435994343993,-0.03481932,0.02565634,0.009162978
10,1435994344017,-0.033292156,0.036651913,0.00061086525
11,1435994344033,-0.034513887,0.040011674,0.0015271631
12,1435994344058,-0.03604105,0.03023783,0.00580322
13,1435994344082,-0.036957346,-0.0009162979,0.01160644
14,1435994344096,-0.03604105,-0.018325957,0.010079277
15,1435994344117,-0.042455133,-0.03390302,0.003970624
16,1435994344138,-0.04184427,-0.0290161,-0.0030543262
17,1435994344181,-0.040927973,-0.019242255,-0.0027488936
18,1435994344182,-0.03970624,-0.004581489,-0.0009162979
19,1435994344194,-0.036957346,0.002443461,0.002443461
20,1435994344213,-0.04062254,-0.00061086525,0.004886922
21,1435994344232,-0.03604105,-0.013744468,0.00030543262
22,1435994344255,-0.034208454,-0.013744468,0.0027488936
23,1435994344271,-0.03145956,0.0015271631,-0.005497787
24,1435994344291,-0.040011674,0.0036651916,-0.0012217305
25,1435994344314,-0.03940081,-0.017104227,0.010079277
26,1435994344332,-0.032070424,-0.028405234,-0.00030543262
27,1435994344354,-0.029626964,-0.008857546,-0.00580322
28,1435994344382,-0.038179077,-0.01160644,0.00030543262
29,1435994344393,-0.033292156,-0.03481932,-0.005497787
30,1435994344414,-0.02687807,-0.028099801,-0.009468411
31,1435994344437,-0.03176499,-0.01038471,-0.002443461
32,1435994344454,-0.036957346,0.017104227,-0.0027488936
33,1435994344472,-0.03176499,0.030543262,-0.0061086523
34,1435994344497,-0.031154128,0.029932396,0.0
35,1435994344515,-0.025350908,0.011301007,0.0
36,1435994344536,-0.022907447,-0.0036651916,-0.004886922
37,1435994344556,-0.028710667,0.0070249503,-0.004581489
38,1435994344573,-0.037873644,0.027183503,-0.002443461
39,1435994344593,-0.036651913,0.022296581,-0.0012217305
40,1435994344620,-0.03390302,0.021685716,0.0021380284
41,1435994344639,-0.030543262,0.0143553335,0.0009162979
42,1435994344654,-0.034208454,0.018325957,-0.0018325958
43,1435994344678,-0.032375857,0.019547688,-0.00030543262
44,1435994344693,-0.030848695,0.027488936,-0.004886922
45,1435994344714,-0.030543262,0.040011674,-0.0036651916
46,1435994344743,-0.034208454,0.04795292,-0.0076358155
47,1435994344765,-0.031154128,0.03756821,0.002443461
48,1435994344797,-0.03359759,0.027794369,0.0027488936
49,1435994344798,-0.03176499,0.020158553,0.0012217305
50,1435994344812,-0.030848695,0.01160644,-0.0021380284
51,1435994344831,-0.03634648,0.014049901,-0.0012217305
52,1435994344856,-0.031154128,0.026572637,-0.0018325958
53,1435994344872,-0.032375857,0.03268129,-0.0036651916
54,1435994344895,-0.030848695,0.04153884,-0.006414085
55,1435994344915,-0.03145956,0.03390302,-0.002443461
56,1435994344936,-0.03145956,0.0106901415,-0.0036651916
57,1435994344955,-0.034208454,-0.0106901415,-0.0015271631
58,1435994344978,-0.03573562,-0.013744468,-0.007941248
59,1435994344996,-0.032375857,0.0,-0.013133603
60,1435994345015,-0.03848451,0.004276057,-0.0061086523
61,1435994345038,-0.04337143,-0.014049901,0.0021380284
62,1435994345056,-0.027794369,-0.018936822,-0.004886922
63,1435994345074,-0.03390302,-0.01038471,-0.003970624
64,1435994345098,-0.03268129,-0.028710667,0.004276057
65,1435994345116,-0.034208454,-0.048563786,0.00030543262
66,1435994345135,-0.03726278,-0.03145956,-0.004581489
67,1435994345156,-0.037873644,-0.00580322,-0.0061086523
68,1435994345172,-0.04428773,0.03634648,-0.0067195175
69,1435994345194,-0.040317107,0.05589417,-0.006414085
70,1435994345215,-0.03268129,0.04337143,0.003970624
71,1435994345297,-0.032375857,0.020463986,0.010995574
72,1435994345298,-0.030543262,0.006414085,0.0036651916
73,1435994345299,-0.033292156,0.013439035,-0.0009162979
74,1435994345300,-0.030543262,0.015577064,-0.0015271631
75,1435994345313,-0.035124753,0.017104227,0.007330383
76,1435994345334,-0.034513887,0.018020526,0.008857546
77,1435994345352,-0.028710667,0.016493361,0.008246681
78,1435994345373,-0.025045475,0.016493361,0.0106901415
79,1435994345413,-0.022602014,0.0033597588,0.013439035
80,1435994345414,-0.023823744,0.004581489,0.013439035
81,1435994345432,-0.020158553,0.0030543262,0.0106901415
82,1435994345455,-0.01863139,0.007941248,0.011911872
83,1435994345472,-0.022602014,0.008246681,0.015577064
84,1435994345496,-0.023823744,0.0030543262,0.015577064
85,1435994345520,-0.028099801,-0.009162978,0.013744468
86,1435994345533,-0.027488936,-0.018936822,0.014049901
87,1435994345552,-0.025350908,-0.02321288,0.011911872
88,1435994345574,-0.027488936,-0.02076942,0.009162978
89,1435994345592,-0.027183503,-0.018020526,0.014660766
90,1435994345612,-0.022296581,-0.025350908,0.017715093
91,1435994345637,-0.0290161,-0.0421497,0.016187929
92,1435994345656,-0.03634648,-0.04734206,0.020158553
93,1435994345677,-0.035124753,-0.03940081,0.016187929
94,1435994345698,-0.031154128,-0.02565634,0.004276057
95,1435994345716,-0.04153884,-0.024740042,0.015577064
96,1435994345737,-0.028710667,-0.031154128,0.014049901
97,1435994345760,-0.03145956,-0.023823744,0.011911872
98,1435994345774,-0.03604105,-0.061391957,0.021380283
99,1435994345798,-0.03756821,-0.08246681,0.024129177
100,1435994345818,-0.033292156,-0.07422013,0.0
101,1435994345838,-0.038789943,-0.035430185,-0.008246681
102,1435994345859,-0.04428773,0.009468411,-0.0036651916
103,1435994345878,-0.043676864,0.028405234,0.003970624
104,1435994345897,-0.031154128,0.024129177,0.0076358155
105,1435994345915,-0.029321533,0.00030543262,0.0061086523
106,1435994345939,-0.032986723,-0.013439035,0.0009162979
107,1435994345959,-0.03573562,-0.004581489,-0.00061086525
108,1435994345979,-0.03940081,-0.002443461,-0.003970624
109,1435994345999,-0.038789943,-0.004276057,-0.00030543262
110,1435994346016,-0.038789943,0.0076358155,0.005192355
111,1435994346037,-0.03390302,0.015577064,0.005192355
112,1435994346092,-0.032070424,0.020463986,0.0061086523
113,1435994346094,-0.029321533,0.023518313,0.0036651916
114,1435994346095,-0.024740042,0.032375857,0.0036651916
115,1435994346116,-0.024740042,0.035430185,0.004581489
116,1435994346137,-0.021685716,0.03268129,0.009468411
117,1435994346158,-0.02687807,0.019242255,0.009162978
118,1435994346179,-0.029321533,0.00580322,0.010079277
119,1435994346195,-0.03145956,-0.00030543262,0.01038471
120,1435994346215,-0.03359759,-0.0021380284,0.006414085
121,1435994346239,-0.03176499,0.004886922,0.007941248
122,1435994346258,-0.030543262,0.015271631,0.0067195175
123,1435994346277,-0.032375857,0.011911872,0.008552114
124,1435994346301,-0.030543262,0.008857546,0.010079277
125,1435994346314,-0.030848695,-0.002443461,0.009162978
126,1435994346335,-0.032375857,-0.017104227,0.016187929
127,1435994346359,-0.033292156,-0.024740042,0.0067195175
128,1435994346377,-0.03176499,-0.014049901,-0.0030543262
129,1435994346397,-0.036957346,-0.004581489,-0.0012217305
130,1435994346420,-0.04184427,-0.018325957,0.014049901
131,1435994346437,-0.03145956,-0.026267206,0.013133603
132,1435994346483,-0.0290161,-0.021991149,0.009468411
133,1435994346484,-0.03756821,-0.03481932,0.013439035
134,1435994346495,-0.034208454,-0.058948494,0.005192355
135,1435994346515,-0.032070424,-0.05467244,0.0018325958
136,1435994346540,-0.03970624,-0.03604105,0.0012217305
137,1435994346560,-0.035124753,-0.0106901415,-0.0015271631
138,1435994346580,-0.03359759,0.013439035,-0.0030543262
139,1435994346602,-0.027183503,0.009773844,-0.0021380284
140,1435994346618,-0.027183503,-0.0021380284,0.008552114
141,1435994346635,-0.02565634,-0.017104227,0.0030543262
142,1435994346657,-0.028099801,-0.007330383,0.0033597588
143,1435994346673,-0.032986723,0.00061086525,-0.00030543262
144,1435994346697,-0.034208454,-0.0009162979,0.0021380284
145,1435994346723,-0.035430185,-0.004276057,0.006414085
146,1435994346734,-0.034513887,0.0030543262,0.0070249503
147,1435994346756,-0.029932396,0.007330383,0.003970624
148,1435994346777,-0.028099801,0.026572637,0.004581489
149,1435994346799,-0.02687807,0.03970624,-0.0030543262
150,1435994346815,-0.033292156,0.043982297,-0.0012217305
151,1435994346837,-0.03023783,0.038789943,0.0012217305
152,1435994346855,-0.03268129,0.027488936,0.0027488936
153,1435994346879,-0.035124753,0.022907447,0.003970624
154,1435994346902,-0.03268129,0.024129177,0.0015271631
155,1435994346919,-0.033292156,0.018936822,-0.00061086525
156,1435994346941,-0.029321533,0.009773844,0.0
157,1435994346958,-0.028405234,0.0036651916,0.0021380284
158,1435994346978,-0.03268129,0.0012217305,0.006414085
159,1435994346999,-0.027794369,0.003970624,0.00580322
160,1435994347021,-0.03359759,0.009773844,0.005497787
161,1435994347035,-0.027183503,0.002443461,0.005192355
162,1435994347058,-0.025961773,0.005497787,0.0036651916
163,1435994347079,-0.022296581,0.011911872,-0.004886922
164,1435994347096,-0.027488936,0.014966198,0.00030543262
165,1435994347118,-0.033292156,-0.013744468,0.018020526
166,1435994347163,-0.016798794,-0.042455133,0.008246681
167,1435994347164,-0.020158553,-0.03604105,0.0030543262
168,1435994347175,-0.029626964,-0.037873644,0.012217305
169,1435994347201,-0.026267206,-0.046731193,0.009162978
170,1435994347215,-0.027183503,-0.031154128,0.00580322
171,1435994347235,-0.029321533,0.0015271631,0.009162978
172,1435994347259,-0.029932396,0.021685716,0.004276057
173,1435994347277,-0.03023783,0.038179077,-0.0009162979
174,1435994347296,-0.022602014,0.025350908,0.0076358155
175,1435994347320,-0.025350908,-0.0027488936,0.0061086523
176,1435994347338,-0.027794369,-0.014966198,0.009773844
177,1435994347408,-0.02565634,-0.0061086523,0.0125227375
178,1435994347409,-0.034513887,0.0030543262,0.0067195175
179,1435994347410,-0.034208454,0.0061086523,0.01160644
180,1435994347418,-0.029932396,0.0061086523,0.009468411
181,1435994347437,-0.028405234,0.0076358155,0.014660766
182,1435994347459,-0.022907447,0.017104227,0.016187929
183,1435994347477,-0.02321288,0.011911872,0.014660766
184,1435994347499,-0.021991149,0.012217305,0.007330383
185,1435994347515,-0.02321288,0.014660766,0.007330383
186,1435994347540,-0.024740042,0.009468411,0.01160644
187,1435994347560,-0.032070424,0.0033597588,0.008246681
188,1435994347578,-0.03481932,-0.0076358155,0.011911872
189,1435994347598,-0.030848695,-0.01985312,0.009773844
190,1435994347618,-0.027794369,-0.022296581,0.008857546
191,1435994347639,-0.030543262,-0.025961773,0.0067195175
192,1435994347659,-0.029321533,-0.02687807,0.0067195175
193,1435994347681,-0.023823744,-0.020158553,0.0070249503
194,1435994347699,-0.021380283,-0.016493361,0.008246681
195,1435994347719,-0.02321288,-0.014660766,0.009773844
196,1435994347747,-0.025045475,-0.025045475,0.01160644
197,1435994347763,-0.026572637,-0.027183503,0.013439035
198,1435994347778,-0.024740042,-0.021991149,0.0076358155
199,1435994347806,-0.029626964,-0.020463986,0.01160644
200,1435994347815,-0.027183503,-0.030848695,0.019547688
201,1435994347834,-0.023823744,-0.021685716,0.013133603
202,1435994347856,-0.027183503,-0.034513887,0.02107485
203,1435994347874,-0.02565634,-0.06536258,0.023518313
204,1435994347896,-0.027488936,-0.06811147,0.011911872
205,1435994347919,-0.028405234,-0.056199603,0.005497787
206,1435994347938,-0.03481932,-0.013133603,0.0015271631
207,1435994347958,-0.03604105,0.014049901,-0.0012217305
208,1435994347984,-0.032070424,0.015882496,0.00580322
209,1435994347998,-0.029321533,0.004886922,0.005497787
210,1435994348024,-0.027488936,-0.014660766,0.0076358155
211,1435994348085,-0.029626964,-0.021991149,0.00580322
212,1435994348086,-0.029626964,-0.011911872,0.0027488936
213,1435994348087,-0.036957346,-0.006414085,0.0
214,1435994348099,-0.03481932,-0.0012217305,0.007941248
215,1435994348116,-0.036957346,0.009468411,0.004276057
216,1435994348138,-0.03145956,0.02107485,0.009162978
217,1435994348159,-0.03176499,0.02565634,0.0106901415
218,1435994348180,-0.03145956,0.026572637,0.0076358155
219,1435994348199,-0.03023783,0.028710667,0.008246681
220,1435994348219,-0.028099801,0.02076942,0.008552114
221,1435994348238,-0.024740042,0.011911872,0.0106901415
222,1435994348259,-0.029626964,0.004276057,0.005497787
223,1435994348282,-0.032070424,-0.009162978,0.0036651916
224,1435994348303,-0.02687807,-0.01160644,0.002443461
225,1435994348321,-0.027488936,-0.008552114,0.00030543262
226,1435994348341,-0.026572637,0.0018325958,0.002443461
227,1435994348359,-0.029321533,0.0012217305,-0.00030543262
228,1435994348379,-0.03359759,-0.01282817,0.006414085
229,1435994348401,-0.03970624,-0.038789943,0.008857546
230,1435994348419,-0.04642576,-0.06780604,0.004886922
231,1435994348439,-0.045814894,-0.060170226,-0.005497787
232,1435994348461,-0.046120327,-0.03573562,-0.01863139
233,1435994348479,-0.043982297,-0.021380283,-0.005497787
234,1435994348498,-0.040317107,-0.034513887,-0.0012217305
235,1435994348521,-0.029321533,-0.02321288,-0.004276057
236,1435994348539,-0.023823744,-0.026572637,0.0015271631
237,1435994348562,-0.021380283,-0.042455133,0.015271631
238,1435994348583,-0.02076942,-0.045814894,0.006414085
239,1435994348602,-0.03359759,-0.005497787,-0.0033597588
240,1435994348620,-0.0421497,0.054367006,-0.004581489
241,1435994348642,-0.05009095,0.09132435,-0.006414085
242,1435994348658,-0.044593163,0.11026118,0.0015271631
243,1435994348680,-0.03573562,0.080634214,0.007330383
244,1435994348709,-0.028405234,0.044898596,0.009468411
245,1435994348719,-0.028405234,0.027794369,0.0067195175
246,1435994348762,-0.026267206,0.02687807,0.0012217305
247,1435994348763,-0.025961773,0.0290161,-0.00580322
248,1435994348775,-0.03390302,0.03604105,0.00030543262
249,1435994348795,-0.03176499,0.022907447,0.004886922
250,1435994348818,-0.03604105,0.023518313,0.005192355
251,1435994348837,-0.035430185,0.021991149,0.005497787
252,1435994348859,-0.03940081,0.022296581,0.004276057
253,1435994348880,-0.036957346,0.015882496,0.004276057
254,1435994348897,-0.032375857,0.015882496,-0.0033597588
255,1435994348920,-0.03634648,-0.0030543262,-0.004581489
256,1435994348943,-0.034513887,-0.010079277,-0.00030543262
257,1435994348961,-0.037873644,-0.010079277,-0.003970624
258,1435994348977,-0.04184427,-0.015271631,-0.00580322
259,1435994349002,-0.04642576,-0.017104227,-0.01038471
260,1435994349020,-0.048258353,-0.016493361,-0.0030543262
261,1435994349040,-0.046731193,-0.01282817,-0.00580322
262,1435994349062,-0.045814894,-0.009773844,-0.007941248
263,1435994349080,-0.051923547,-0.008857546,-0.0106901415
264,1435994349100,-0.048563786,-0.015882496,-0.0143553335
265,1435994349120,-0.04428773,-0.020158553,-0.009468411
266,1435994349137,-0.045814894,-0.008246681,-0.013133603
267,1435994349160,-0.04734206,0.0030543262,-0.015882496
268,1435994349181,-0.052839845,-0.004276057,0.0
269,1435994349198,-0.04184427,-0.00580322,-0.007330383
270,1435994349218,-0.03970624,0.0018325958,-0.014966198
271,1435994349245,-0.046120327,-0.006414085,-0.00580322
272,1435994349260,-0.044593163,-0.026572637,-0.005497787
273,1435994349280,-0.04337143,-0.022602014,-0.008552114
274,1435994349302,-0.04184427,-0.010995574,-0.005497787
275,1435994349319,-0.04550946,0.024129177,-0.010079277
276,1435994349339,-0.042760566,0.058337633,-0.013439035
277,1435994349360,-0.039095376,0.06841691,-0.011911872
278,1435994349380,-0.03756821,0.05375614,-0.0061086523
279,1435994349401,-0.033292156,0.032986723,-0.005497787
280,1435994349437,-0.03359759,0.032070424,-0.0067195175
281,1435994349438,-0.035430185,0.028099801,-0.010079277
282,1435994349457,-0.035124753,0.028099801,-0.007330383
283,1435994349479,-0.038789943,0.02321288,-0.004581489
284,1435994349497,-0.034513887,0.016493361,-0.0012217305
285,1435994349517,-0.03176499,0.018020526,0.00061086525
286,1435994349540,-0.030848695,0.014966198,-0.00030543262
287,1435994349557,-0.027794369,0.01740966,0.0
288,1435994349578,-0.027183503,0.0076358155,-0.006414085
289,1435994349602,-0.026572637,0.007330383,-0.00061086525
290,1435994349619,-0.02443461,0.004886922,-0.0067195175
291,1435994349641,-0.030848695,0.008552114,-0.008857546
292,1435994349663,-0.037873644,0.0015271631,-0.008857546
293,1435994349681,-0.03848451,-0.0106901415,-0.01160644
294,1435994349701,-0.03573562,-0.016493361,-0.0070249503
295,1435994349723,-0.035430185,-0.027488936,-0.0076358155
296,1435994349741,-0.040317107,-0.025045475,-0.0061086523
297,1435994349761,-0.03848451,-0.01985312,-0.01160644
298,1435994349784,-0.035430185,-0.016187929,-0.010079277
299,1435994349801,-0.034208454,-0.012217305,-0.010079277
300,1435994349821,-0.03970624,-0.0015271631,-0.010995574
301,1435994349845,-0.03940081,0.012217305,-0.015882496
302,1435994349861,-0.04886922,0.008246681,-0.006414085
303,1435994349881,-0.03940081,-0.020463986,-0.004581489
304,1435994349900,-0.030543262,-0.024129177,-0.012217305
305,1435994349918,-0.03970624,-0.019242255,-0.0076358155
306,1435994349939,-0.042760566,-0.03970624,0.00061086525
307,1435994349963,-0.037873644,-0.058643065,-0.004581489
308,1435994349984,-0.04153884,-0.03634648,-0.00580322
309,1435994350004,-0.045814894,-0.009468411,-0.007330383
310,1435994350024,-0.047036625,0.030543262,-0.014966198
311,1435994350040,-0.040317107,0.043676864,-0.0125227375
312,1435994350065,-0.03848451,0.017715093,0.0012217305
313,1435994350160,-0.03268129,-0.011911872,-0.002443461
314,1435994350161,-0.036651913,-0.02443461,-0.007330383
315,1435994350162,-0.04184427,-0.020463986,-0.011911872
316,1435994350163,-0.042760566,-0.0106901415,-0.015577064
317,1435994350164,-0.040011674,-0.0033597588,-0.008857546
318,1435994350178,-0.04062254,-0.005192355,-0.0030543262
319,1435994350200,-0.035124753,0.009162978,-0.0030543262
320,1435994350219,-0.029626964,0.026572637,-0.0009162979
321,1435994350239,-0.029626964,0.043066,-0.0027488936
322,1435994350261,-0.028099801,0.05589417,-0.0033597588
323,1435994350281,-0.031154128,0.06078109,0.0021380284
324,1435994350301,-0.028710667,0.052534413,-0.0018325958
325,1435994350324,-0.025045475,0.040317107,0.0027488936
326,1435994350341,-0.03023783,0.03176499,0.0021380284
327,1435994350361,-0.03634648,0.02443461,-0.0021380284
328,1435994350383,-0.029321533,0.022602014,-0.005192355
329,1435994350401,-0.0290161,0.021685716,-0.0076358155
330,1435994350421,-0.030848695,0.02107485,-0.0018325958
331,1435994350443,-0.027488936,0.015271631,-0.0018325958
332,1435994350461,-0.027794369,-0.0009162979,-0.005497787
333,1435994350480,-0.038789943,-0.012217305,0.0033597588
334,1435994350504,-0.032375857,-0.0143553335,-0.0018325958
335,1435994350521,-0.031154128,0.009773844,-0.0076358155
336,1435994350540,-0.03481932,0.011911872,-0.00580322
337,1435994350563,-0.029321533,-0.002443461,-0.0021380284
338,1435994350580,-0.03176499,0.015882496,-0.00061086525
339,1435994350604,-0.032070424,-0.008552114,0.01282817
340,1435994350624,-0.03359759,-0.048563786,0.018936822
341,1435994350644,-0.03481932,-0.06352998,0.009162978
342,1435994350662,-0.04062254,-0.05467244,-0.004276057
343,1435994350684,-0.0421497,-0.020158553,-0.008246681
344,1435994350699,-0.04642576,0.011911872,-0.0061086523
345,1435994350719,-0.039095376,0.015882496,0.0021380284
346,1435994350751,-0.036651913,0.005497787,0.00061086525
347,1435994350802,-0.032375857,-0.010995574,0.0036651916
348,1435994350803,-0.028405234,0.00061086525,-0.0033597588
349,1435994350804,-0.034208454,0.011301007,-0.006414085
350,1435994350819,-0.03604105,0.010079277,-0.0015271631
351,1435994350838,-0.036957346,0.018020526,0.005192355
352,1435994350862,-0.036651913,0.0290161,0.0033597588
353,1435994350881,-0.03726278,0.041233405,0.0012217305
354,1435994350899,-0.03481932,0.040927973,0.0030543262
355,1435994350921,-0.035124753,0.038179077,0.0021380284
356,1435994350942,-0.026572637,0.027794369,-0.0012217305
357,1435994350963,-0.028099801,0.019242255,-0.004581489
358,1435994350985,-0.033292156,0.03145956,-0.006414085
359,1435994351002,-0.028710667,0.030543262,-0.0015271631
360,1435994351019,-0.028099801,0.02443461,0.00061086525
