id,attr_time,attr_x,attr_y,attr_z
1,1435994343825,0.023664385,0.033571035,0.015882496
2,1435994343853,0.020304628,0.028378678,0.02443461
3,1435994343865,0.019693762,0.028073248,0.021380285
4,1435994343883,0.022137223,0.028989544,0.014966199
5,1435994343905,0.017861165,0.030516706,0.0106901415
6,1435994343923,0.009003621,0.03204387,0.0015271632
7,1435994343944,0.0071710236,0.027156949,-0.0027488936
8,1435994343966,0.004422132,0.02624065,0.0064140856
9,1435994343983,0.009309053,0.021659162,0.007635815
10,1435994344005,0.0059492923,0.02379719,0.0042760577
11,1435994344026,0.0016732365,0.017688537,-0.0036651911
12,1435994344046,0.0050329976,0.017383104,-0.001832596
13,1435994344066,0.006560158,0.02043743,0.0033597592
14,1435994344086,-0.0007702224,0.028378678,0.0030543264
15,1435994344106,0.0035058334,0.03204387,0.0012217304
16,1435994344126,0.009309053,0.0341819,0.0
17,1435994344146,0.009309053,0.03998512,-0.0027488936
18,1435994344166,0.006560158,0.03662536,-0.00580322
19,1435994344188,0.0028949678,0.029905843,-0.0064140847
20,1435994344204,0.0053384304,0.024713488,-0.0073303827
21,1435994344226,0.010530785,0.022575459,-0.003970624
22,1435994344249,0.009614486,0.022270028,0.001832596
23,1435994344268,0.014195975,0.027156949,0.0030543264
24,1435994344287,0.012668811,0.02624065,0.001832596
25,1435994344306,0.008392755,0.031433005,0.0048869215
26,1435994344323,0.012668811,0.036014494,-0.0027488936
27,1435994344344,0.013890542,0.039679684,-0.001832596
28,1435994344363,0.0035058334,0.033571035,-0.00030543283
29,1435994344388,0.008392755,0.022575459,0.0042760577
30,1435994344409,0.011141647,0.025018921,0.0030543264
31,1435994344427,0.012668811,0.03082214,-0.0024434607
32,1435994344445,0.015723139,0.042734012,-0.004276057
33,1435994344475,0.017861165,0.039374255,0.002138028
34,1435994344518,0.0050329976,0.025629785,0.0064140856
35,1435994344519,0.012974244,0.028073248,-0.004276057
36,1435994344537,0.020304628,0.03998512,0.0015271632
37,1435994344544,0.011141647,0.04029055,0.0051923543
38,1435994344574,0.019082896,0.04120685,-0.0045814896
39,1435994344585,0.022137223,0.04456661,-0.009162979
40,1435994344603,0.015112273,0.046399206,-0.013133602
41,1435994344626,0.016028572,0.047620934,-0.012217305
42,1435994344645,0.015112273,0.056783915,-0.0024434607
43,1435994344665,0.015723139,0.057089344,-0.002138028
44,1435994344685,0.01847203,0.056478478,0.0030543264
45,1435994344707,0.012974244,0.05311872,-0.0073303827
46,1435994344727,0.014195975,0.053424153,-0.009773844
47,1435994344747,0.018166598,0.049148098,-0.009773844
48,1435994344767,0.014806841,0.055256747,-0.009162979
49,1435994344787,0.010530785,0.061670832,-0.0045814896
50,1435994344807,0.017861165,0.064114295,-0.007941248
51,1435994344827,0.019693762,0.06564146,-0.0070249503
52,1435994344847,0.01938833,0.06197627,-0.008857546
53,1435994344867,0.01938833,0.061365403,-0.014966198
54,1435994344887,0.016028572,0.060754538,-0.0106901415
55,1435994344908,0.013890542,0.062281698,-0.014660765
56,1435994344924,0.0172503,0.05892194,-0.009162979
57,1435994344947,0.021220926,0.057089344,-0.0106901415
58,1435994344964,0.014501408,0.05770021,-0.014966198
59,1435994344983,0.016334005,0.060143672,-0.014660765
60,1435994345004,0.01847203,0.05770021,-0.016187929
61,1435994345035,0.0172503,0.05770021,-0.016187929
62,1435994345050,0.019082896,0.057089344,-0.018936822
63,1435994345064,0.015723139,0.057089344,-0.01863139
64,1435994345134,0.0172503,0.04945353,-0.01985312
65,1435994345135,0.023358954,0.04456661,-0.009162979
66,1435994345136,0.0172503,0.039374255,-0.013439035
67,1435994345144,0.020915493,0.041817717,-0.018936822
68,1435994345165,0.025496982,0.05281329,-0.020158553
69,1435994345245,0.016944867,0.04120685,-0.013439035
70,1435994345246,0.004422132,0.026546083,-0.013439035
71,1435994345247,0.028551308,0.025935218,-0.0064140847
72,1435994345248,0.026107848,0.03296017,-0.00030543283
73,1435994345265,0.019693762,0.03998512,-0.004276057
74,1435994345285,0.020915493,0.038457956,-0.013133602
75,1435994345305,0.016334005,0.045482904,-0.021380283
76,1435994345325,0.0071710236,0.044261176,-0.022602014
77,1435994345346,0.009309053,0.037541658,-0.020158553
78,1435994345364,0.016334005,0.043344878,-0.008552114
79,1435994345386,0.013890542,0.05403502,-0.005497787
80,1435994345406,0.012668811,0.057089344,-0.002138028
81,1435994345427,0.0056438595,0.05189699,-0.013439035
82,1435994345448,0.018777464,0.046704635,-0.010079276
83,1435994345467,0.017861165,0.050675258,-0.0051923543
84,1435994345487,0.017555732,0.05159156,-0.0015271632
85,1435994345507,0.022442656,0.055562183,-0.00030543283
86,1435994345527,0.026718711,0.059838243,0.003970625
87,1435994345548,0.025496982,0.05770021,0.0030543264
88,1435994345568,0.02641328,0.05617305,0.002138028
89,1435994345588,0.022442656,0.05281329,0.0042760577
90,1435994345608,0.030383904,0.050675258,0.0030543264
91,1435994345629,0.034049094,0.05036983,0.008246681
92,1435994345645,0.03099477,0.045482904,0.0073303822
93,1435994345668,0.033438228,0.043344878,0.006108653
94,1435994345687,0.033743665,0.045177475,0.0073303822
95,1435994345706,0.031300202,0.04609377,0.008552114
96,1435994345727,0.03801972,0.046704635,0.0070249513
97,1435994345748,0.038630582,0.047926366,0.006108653
98,1435994345768,0.03465996,0.04578834,0.010079276
99,1435994345788,0.03007847,0.033571035,0.007635815
100,1435994345808,0.03007847,0.027156949,0.009773845
101,1435994345827,0.026107848,0.029294977,0.0073303822
102,1435994345847,0.026718711,0.028378678,0.0064140856
103,1435994345867,0.033743665,0.039679684,0.0073303822
104,1435994345887,0.01847203,0.036930792,0.001832596
105,1435994345914,0.014501408,0.011579885,0.0064140856
106,1435994345959,0.037714288,0.0091364235,0.013439035
107,1435994345960,0.031300202,0.014634212,0.016493361
108,1435994345977,0.017555732,0.011885318,0.013133602
109,1435994345985,0.014806841,0.024713488,0.0042760577
110,1435994346014,0.015417706,0.03296017,-0.0006108647
111,1435994346025,0.0059492923,0.025324352,-0.0064140847
112,1435994346045,0.013890542,0.016161375,0.0009162985
113,1435994346066,0.019082896,0.028378678,0.0030543264
114,1435994346085,0.015112273,0.036930792,0.0070249513
115,1435994346105,0.004422132,0.04120685,0.0033597592
116,1435994346130,0.012974244,0.030211275,0.002138028
117,1435994346145,0.012974244,0.04029055,0.003970625
118,1435994346168,0.002589535,0.048537232,0.0009162985
119,1435994346188,0.0059492923,0.038152523,0.001832596
120,1435994346208,0.01847203,0.043039445,0.00030543283
121,1435994346228,0.019693762,0.05036983,0.0012217304
122,1435994346248,0.014806841,0.052507855,0.003970625
123,1435994346268,0.01847203,0.05311872,0.0024434607
124,1435994346288,0.023053521,0.050675258,0.003665192
125,1435994346308,0.029467605,0.050064396,-0.00091629755
126,1435994346328,0.023358954,0.050675258,0.0048869215
127,1435994346348,0.022748088,0.05403502,0.0070249513
128,1435994346366,0.02183179,0.053729586,0.006108653
129,1435994346388,0.02519155,0.05159156,0.0012217304
130,1435994346408,0.023358954,0.055562183,0.003970625
131,1435994346428,0.02519155,0.048842665,0.0030543264
132,1435994346448,0.02061006,0.050980695,0.0027488936
133,1435994346468,0.022442656,0.050064396,0.003970625
134,1435994346488,0.021526359,0.04242858,0.012828169
135,1435994346508,0.022442656,0.028378678,0.013133602
136,1435994346528,0.024580684,0.03570906,0.0070249513
137,1435994346546,0.02641328,0.04242858,0.008857546
138,1435994346568,0.027329577,0.048842665,0.0067195185
139,1435994346587,0.004116699,0.032654736,0.0067195185
140,1435994346606,0.03007847,0.01677224,0.010995574
141,1435994346626,0.023358954,0.019521132,0.0143553335
142,1435994346691,0.020915493,0.013717913,0.01771509
143,1435994346692,0.026107848,0.019826565,0.008246681
144,1435994346693,0.03099477,0.028989544,0.0027488936
145,1435994346715,0.022748088,0.039374255,-0.0015271632
146,1435994346725,0.017861165,0.031433005,-0.0048869215
147,1435994346745,0.01938833,0.029294977,-0.0012217304
148,1435994346766,0.016334005,0.02624065,0.0045814887
149,1435994346785,0.018777464,0.033876467,0.0012217304
150,1435994346806,0.011141647,0.03540363,0.0012217304
151,1435994346825,0.014501408,0.03296017,-0.005497787
152,1435994346846,0.0172503,0.03906882,-0.0033597583
153,1435994346869,0.012057945,0.03876339,0.0033597592
154,1435994346886,0.014501408,0.040901415,0.0012217304
155,1435994346906,0.014806841,0.047620934,-0.0012217304
156,1435994346929,0.012057945,0.052507855,-0.0024434607
157,1435994346949,0.010530785,0.050980695,-0.0024434607
158,1435994346969,0.016944867,0.051286124,-0.005497787
159,1435994346989,0.012057945,0.05159156,-0.007941248
160,1435994347009,0.008392755,0.04945353,-0.0045814896
161,1435994347029,0.010836218,0.046399206,-0.0024434607
162,1435994347048,0.015112273,0.050064396,-0.0045814896
163,1435994347069,0.015417706,0.05159156,-0.0045814896
164,1435994347089,0.014501408,0.05403502,-0.0012217304
165,1435994347106,0.014806841,0.055562183,-0.0012217304
166,1435994347129,0.018777464,0.054951318,-0.00030543283
167,1435994347149,0.013279676,0.055562183,-0.0027488936
168,1435994347169,0.016028572,0.047926366,0.00030543283
169,1435994347189,0.014806841,0.039679684,-0.00030543283
170,1435994347208,0.01847203,0.038457956,-0.004276057
171,1435994347229,0.025496982,0.038152523,-0.008552114
172,1435994347249,0.024580684,0.049148098,-0.0067195175
173,1435994347269,0.02519155,0.04151228,-0.0030543264
174,1435994347289,0.012974244,0.02043743,0.0030543264
175,1435994347309,0.033743665,0.02043743,0.002138028
176,1435994347326,0.025802415,0.031433005,0.00580322
177,1435994347347,0.022748088,0.0341819,0.0067195185
178,1435994347449,0.03007847,0.041817717,0.001832596
179,1435994347450,0.028245876,0.043344878,-0.008857546
180,1435994347451,0.015417706,0.044261176,-0.020769417
181,1435994347452,0.01847203,0.040595986,-0.011301007
182,1435994347474,0.020304628,0.039374255,-0.0061086523
183,1435994347475,0.021220926,0.047620934,-0.0015271632
184,1435994347486,0.023664385,0.047926366,0.0015271632
185,1435994347506,0.018777464,0.048537232,-0.0030543264
186,1435994347526,0.023053521,0.045177475,-0.0106901415
187,1435994347546,0.01938833,0.044872038,-0.0067195175
188,1435994347571,0.012363378,0.049758963,-0.001832596
189,1435994347615,0.019693762,0.054340452,0.0009162985
190,1435994347616,0.020915493,0.0604491,0.005497787
191,1435994347626,0.01938833,0.058005646,-0.00030543283
192,1435994347647,0.024886116,0.050064396,-0.00091629755
193,1435994347668,0.022137223,0.045177475,0.0015271632
194,1435994347688,0.02061006,0.050675258,0.0
195,1435994347708,0.021526359,0.042734012,-0.0024434607
196,1435994347728,0.026107848,0.04701007,-0.0006108647
197,1435994347748,0.023969818,0.046399206,0.0045814887
198,1435994347769,0.023664385,0.04242858,0.0033597592
199,1435994347788,0.029467605,0.042734012,0.0030543264
200,1435994347808,0.03099477,0.045482904,-0.0015271632
201,1435994347829,0.02763501,0.04456661,-0.0015271632
202,1435994347848,0.03099477,0.048537232,0.00030543283
203,1435994347867,0.030689336,0.039679684,0.0033597592
204,1435994347889,0.033743665,0.03448733,0.006108653
205,1435994347909,0.029162174,0.031127572,0.003665192
206,1435994347928,0.031605635,0.032349303,0.0048869215
207,1435994347948,0.032216497,0.042123146,0.0030543264
208,1435994347970,0.025802415,0.038152523,0.003665192
209,1435994347989,0.020915493,0.025935218,0.0033597592
210,1435994348009,0.048098996,0.02135373,0.01160644
211,1435994348030,0.037408855,0.025018921,0.016798794
212,1435994348050,0.028856741,0.030516706,0.013439035
213,1435994348070,0.03007847,0.031738438,0.0064140856
214,1435994348088,0.027329577,0.038152523,0.0042760577
215,1435994348107,0.022748088,0.037541658,-0.0030543264
216,1435994348128,0.017555732,0.031433005,-0.00580322
217,1435994348191,0.022748088,0.035098195,-0.0027488936
218,1435994348192,0.022442656,0.047620934,-0.0012217304
219,1435994348193,0.017861165,0.04701007,0.002138028
220,1435994348216,0.008087322,0.045482904,0.0009162985
221,1435994348227,0.015417706,0.0473155,0.00061086565
222,1435994348247,0.0172503,0.05159156,0.0024434607
223,1435994348267,0.016028572,0.054951318,0.0030543264
224,1435994348287,0.013585109,0.05403502,0.00061086565
225,1435994348308,0.012363378,0.056783915,0.0015271632
226,1435994348329,0.009614486,0.054340452,0.001832596
227,1435994348348,0.011141647,0.050064396,0.0024434607
228,1435994348367,0.016028572,0.047620934,0.00061086565
229,1435994348388,0.015112273,0.04701007,0.0042760577
230,1435994348408,0.019999195,0.049148098,0.006108653
231,1435994348430,0.02183179,0.04609377,0.0027488936
232,1435994348450,0.01938833,0.045482904,0.007941248
233,1435994348470,0.027024144,0.04029055,0.0033597592
234,1435994348490,0.028856741,0.037236225,0.001832596
235,1435994348510,0.029467605,0.032654736,-0.0024434607
236,1435994348530,0.02183179,0.032349303,-0.002138028
237,1435994348550,0.016639438,0.027156949,0.001832596
238,1435994348571,0.012363378,0.014939643,0.0064140856
239,1435994348589,0.0016732365,0.0128016155,0.0033597592
240,1435994348608,0.008698188,0.01799397,0.0042760577
241,1435994348630,0.021220926,0.03570906,0.0024434607
242,1435994348651,0.013279676,0.03876339,0.00030543283
243,1435994348671,0.010225352,0.02043743,0.0015271632
244,1435994348687,0.031911068,0.023186324,0.00580322
245,1435994348709,0.028551308,0.028378678,0.010995574
246,1435994348730,0.02641328,0.032654736,0.012828169
247,1435994348751,0.025496982,0.03784709,0.0067195185
248,1435994348771,0.020304628,0.049758963,-0.003970624
249,1435994348791,0.013890542,0.062587135,-0.00580322
250,1435994348808,0.008698188,0.060143672,-0.0106901415
251,1435994348828,0.014195975,0.05617305,-0.0045814896
252,1435994348848,0.015112273,0.06747405,0.0027488936
253,1435994348913,0.011141647,0.07388814,0.0030543264
254,1435994348914,0.008087322,0.06625232,0.0064140856
255,1435994348915,0.019999195,0.065336026,0.0033597592
256,1435994348936,0.012974244,0.07083382,0.0042760577
257,1435994348947,0.0077818893,0.06594689,0.0015271632
258,1435994348968,0.013279676,0.059532806,0.002138028
259,1435994348990,0.016944867,0.06289256,-0.00030543283
260,1435994349009,0.008698188,0.069917515,0.0
261,1435994349030,0.0077818893,0.064114295,-0.0006108647
262,1435994349050,0.0077818893,0.054340452,0.0030543264
263,1435994349069,0.0035058334,0.04456661,0.00030543283
264,1435994349091,0.008392755,0.04120685,-0.0033597583
265,1435994349109,0.008698188,0.04456661,-0.004276057
266,1435994349128,0.0071710236,0.040901415,-0.0006108647
267,1435994349148,-0.0016865209,0.036014494,0.001832596
268,1435994349171,-0.0062680095,0.029905843,0.0009162985
269,1435994349191,-0.004740849,0.029905843,-0.0073303827
270,1435994349209,-0.0077951737,0.027767815,-0.011911872
271,1435994349231,-0.012682099,0.02135373,-0.010079276
272,1435994349251,-0.010238636,0.014023346,-0.0106901415
273,1435994349271,-0.009322338,0.014634212,-0.009162979
274,1435994349291,-0.0081006065,0.018299403,-0.010995574
275,1435994349311,-0.009627771,0.028989544,-0.009773844
276,1435994349333,-0.0041299835,0.028684111,-0.011911872
277,1435994349351,-0.022455942,0.013717913,-0.01160644
278,1435994349369,-0.010238636,0.014328779,-0.013439035
279,1435994349389,0.0022841021,0.029294977,-0.009773844
280,1435994349414,-0.0026028194,0.03082214,-0.0006108647
281,1435994349429,0.0013678037,0.032349303,-0.002138028
282,1435994349448,0.0059492923,0.039374255,-0.01282817
283,1435994349468,0.0013678037,0.047926366,-0.019547688
284,1435994349488,-0.0044354163,0.043344878,-0.024129178
285,1435994349515,-0.0019919537,0.04609377,-0.014660765
286,1435994349529,0.00014607236,0.05036983,-0.013744468
287,1435994349549,-0.0016865209,0.05189699,-0.009162979
288,1435994349569,-0.0044354163,0.050675258,-0.011911872
289,1435994349594,-0.0026028194,0.043344878,-0.015577064
290,1435994349668,0.006865591,0.046399206,-0.017104227
291,1435994349669,0.0050329976,0.051286124,-0.010384709
292,1435994349670,0.0056438595,0.057089344,-0.0076358155
293,1435994349671,0.0077818893,0.05892194,-0.0070249503
294,1435994349689,0.010225352,0.055562183,-0.0064140847
295,1435994349711,0.013890542,0.053424153,-0.0070249503
296,1435994349728,0.017861165,0.050675258,-0.0067195175
297,1435994349754,0.019999195,0.04945353,-0.008246681
298,1435994349769,0.013890542,0.0482318,-0.0061086523
299,1435994349789,0.018166598,0.044872038,-0.0073303827
300,1435994349811,0.019999195,0.04578834,-0.011911872
301,1435994349831,0.019693762,0.045177475,-0.0076358155
302,1435994349849,0.018166598,0.046399206,-0.008552114
303,1435994349871,0.020915493,0.04609377,-0.0076358155
304,1435994349892,0.023664385,0.047926366,-0.013439035
305,1435994349912,0.021220926,0.046399206,-0.01160644
306,1435994349929,0.020304628,0.03876339,-0.004276057
307,1435994349949,0.01938833,0.026851516,-0.0061086523
308,1435994349969,0.0172503,0.02960041,-0.01160644
309,1435994349989,0.017861165,0.03570906,-0.015271631
310,1435994350009,0.022137223,0.047926366,-0.020769417
311,1435994350157,0.00045150518,0.03784709,-0.012217305
312,1435994350158,-0.00046478957,0.02135373,-0.009468411
313,1435994350159,0.019693762,0.02960041,-0.0125227375
314,1435994350160,0.009614486,0.03296017,-0.004276057
315,1435994350161,0.012363378,0.028378678,-0.005497787
316,1435994350162,0.012057945,0.033876467,-0.018020526
317,1435994350163,0.0059492923,0.03540363,-0.02687807
318,1435994350169,0.006560158,0.03784709,-0.029321533
319,1435994350189,0.0035058334,0.0332656,-0.023823746
320,1435994350209,0.006254725,0.034792766,-0.018936822
321,1435994350229,0.008698188,0.03448733,-0.014660765
322,1435994350249,0.010225352,0.036930792,-0.013744468
323,1435994350273,0.0074764565,0.04151228,-0.01740966
324,1435994350289,0.012974244,0.04578834,-0.01740966
325,1435994350338,0.011752512,0.052202426,-0.015271631
326,1435994350339,0.0071710236,0.056478478,-0.015882496
327,1435994350389,0.010530785,0.05739478,-0.014966198
328,1435994350390,0.016639438,0.058311075,-0.013744468
329,1435994350391,0.01938833,0.06686319,-0.0143553335
330,1435994350409,0.015723139,0.06564146,-0.014660765
331,1435994350429,0.012974244,0.06594689,-0.011911872
332,1435994350449,0.010530785,0.061059967,-0.011911872
333,1435994350469,0.0114470795,0.062587135,-0.013133602
334,1435994350493,0.013585109,0.065336026,-0.009773844
335,1435994350509,0.018777464,0.065336026,-0.01160644
336,1435994350529,0.018777464,0.06686319,-0.011301007
337,1435994350550,0.018777464,0.06930665,-0.010995574
338,1435994350569,0.0172503,0.07175011,-0.010995574
339,1435994350589,0.019999195,0.06625232,-0.016798794
340,1435994350609,0.022137223,0.05617305,-0.013133602
341,1435994350628,0.02061006,0.050980695,-0.013133602
342,1435994350650,0.0172503,0.05403502,-0.0125227375
343,1435994350670,0.019693762,0.052507855,-0.020463984
344,1435994350688,0.014195975,0.048537232,-0.026572637
345,1435994350709,0.016944867,0.042123146,-0.016493361
346,1435994350732,0.0053384304,0.030211275,-0.021380283
347,1435994350750,0.027024144,0.025018921,-0.005497787
348,1435994350769,0.028245876,0.02960041,0.0009162985
349,1435994350790,0.017555732,0.027767815,0.0015271632
350,1435994350810,0.016028572,0.031738438,-0.0027488936
351,1435994350833,0.016639438,0.03876339,-0.012217305
352,1435994350852,0.014806841,0.038152523,-0.010995574
353,1435994350870,0.011141647,0.03448733,-0.016187929
354,1435994350890,0.013890542,0.033876467,-0.009773844
355,1435994350909,0.016944867,0.042734012,-0.003970624
356,1435994350930,0.0056438595,0.04945353,-0.002138028
357,1435994350952,0.0019786693,0.04242858,-0.00091629755
358,1435994350972,0.010836218,0.04120685,-0.00030543283
359,1435994350991,0.006865591,0.049148098,-0.0012217304
360,1435994351010,0.004116699,0.047926366,-0.00091629755
361,1435994351029,0.0053384304,0.04365031,-0.002138028
362,1435994351059,0.012057945,0.043344878,-0.0030543264
363,1435994351069,0.0172503,0.052202426,-0.0015271632
364,1435994351088,0.012057945,0.05403502,-0.0030543264
365,1435994351108,0.012057945,0.054645885,-0.0051923543
366,1435994351129,0.016028572,0.053729586,-0.00580322
367,1435994351149,0.02183179,0.055256747,-0.0036651911
