id,attr_time,attr_x,attr_y,attr_z
1,1436605249210,0.00465393,-0.00500488,0.00732422
2,1436605249233,0.00572205,-0.00180054,0.00411987
3,1436605249250,0.00679016,-0.00180054,0.00518799
4,1436605249270,0.00785828,-0.00286865,0.00839233
5,1436605249290,0.00465393,-0.00286865,0.0062561
6,1436605249310,-0.00282288,-0.00393677,0.00839233
7,1436605249331,-0.000686646,-0.000732422,0.00732422
8,1436605249347,0.00144958,0.000335693,0.00411987
9,1436605249369,-0.00495911,-0.00180054,-0.0012207
10,1436605249388,-0.0102997,0.00674438,-0.0012207
11,1436605249408,-0.0124359,0.00460815,0.000915527
12,1436605249431,-0.00923157,0.012085,0.000915527
13,1436605249449,-0.00495911,0.00460815,0.000915527
14,1436605249468,-0.00175476,0.000335693,0.00411987
15,1436605249486,0.00038147,0.000335693,0.00518799
16,1436605249508,-0.00282288,0.000335693,0.00411987
17,1436605249527,-0.00709534,-0.00393677,0.00198364
18,1436605249548,-0.0113678,-0.00714111,-0.0012207
19,1436605249568,-0.0177765,-0.0114136,-0.00442505
20,1436605249587,-0.0199127,-0.0103455,-0.00762939
21,1436605249607,-0.0156403,-0.00820923,-0.00656128
22,1436605249627,-0.0145721,-0.00180054,-0.00335693
23,1436605249647,-0.0124359,0.00140381,-0.00335693
24,1436605249666,-0.00709534,0.00674438,-0.00228882
25,1436605249686,-0.00816345,0.00354004,-0.0012207
26,1436605249706,-0.0124359,0.00247192,-0.0012207
27,1436605249727,-0.0199127,-0.000732422,-0.0012207
28,1436605249745,-0.0263214,0.000335693,-0.0012207
29,1436605249766,-0.0273895,-0.000732422,-0.0012207
30,1436605249786,-0.022049,0.000335693,-0.0012207
31,1436605249804,-0.0156403,0.00247192,-0.000152588
32,1436605249828,-0.0113678,0.00247192,0.000915527
33,1436605249844,-0.00495911,0.000335693,0.000915527
34,1436605249865,-0.00389099,0.00140381,0.00411987
35,1436605249885,-0.00175476,-0.00286865,0.00305176
36,1436605249905,0.00144958,0.00140381,0.00518799
37,1436605249927,0.00358582,-0.000732422,0.00305176
38,1436605249945,-0.00175476,-0.00286865,0.00198364
39,1436605249964,-0.00602722,-0.006073,0.00198364
40,1436605249984,-0.0124359,-0.00500488,0.00411987
41,1436605250004,-0.0113678,-0.00714111,-0.000152588
42,1436605250024,-0.0113678,-0.00286865,0.00305176
43,1436605250044,-0.0113678,-0.00714111,0.000915527
44,1436605250065,-0.0145721,-0.006073,0.00305176
45,1436605250085,-0.0145721,-0.006073,0.00305176
46,1436605250103,-0.00923157,-0.00286865,0.00305176
47,1436605250121,-0.00495911,-0.00393677,0.0062561
48,1436605250143,-0.00282288,-0.006073,0.00518799
49,1436605250162,-0.00602722,-0.000732422,0.00411987
50,1436605250183,-0.00602722,-0.00180054,0.00518799
51,1436605250202,-0.00389099,-0.00393677,0.00411987
52,1436605250222,-0.000686646,-0.00714111,-0.000152588
53,1436605250242,-0.00389099,-0.00927734,-0.00228882
54,1436605250263,-0.0102997,-0.0114136,-0.00442505
55,1436605250282,-0.0102997,-0.0103455,-0.00335693
56,1436605250301,-0.00495911,-0.00500488,-0.0012207
57,1436605250321,-0.00709534,-0.00180054,0.00198364
58,1436605250341,-0.00923157,0.00247192,-0.0012207
59,1436605250364,-0.00175476,0.000335693,0.00305176
60,1436605250382,-0.00282288,-0.00286865,0.00305176
61,1436605250398,-0.0113678,-0.00500488,0.00198364
62,1436605250420,-0.022049,-0.00714111,-0.000152588
63,1436605250440,-0.0241852,-0.00820923,-0.000152588
64,1436605250463,-0.0188446,-0.00714111,0.000915527
65,1436605250479,-0.013504,-0.00820923,0.00305176
66,1436605250500,-0.013504,-0.00714111,0.00198364
67,1436605250520,-0.0113678,-0.006073,0.00198364
68,1436605250540,-0.0102997,-0.00500488,0.00198364
69,1436605250562,-0.00602722,-0.00393677,0.000915527
70,1436605250578,-0.00282288,-0.00286865,0.00198364
71,1436605250599,-0.00282288,-0.00393677,0.00305176
72,1436605250618,-0.000686646,-0.0114136,0.00198364
73,1436605250638,-0.00709534,-0.00927734,-0.0012207
74,1436605250661,-0.013504,-0.00927734,-0.000152588
75,1436605250679,-0.013504,-0.00820923,-0.00228882
76,1436605250700,-0.013504,-0.00820923,-0.00335693
77,1436605250718,-0.0124359,-0.00820923,-0.00549316
78,1436605250737,-0.013504,-0.00714111,-0.000152588
79,1436605250760,-0.0113678,-0.006073,-0.00228882
80,1436605250778,-0.0145721,-0.00286865,-0.0012207
81,1436605250798,-0.0167084,-0.00393677,-0.000152588
82,1436605250817,-0.0156403,-0.0124817,0.00198364
83,1436605250837,-0.0145721,-0.00820923,-0.000152588
84,1436605250859,-0.00495911,-0.006073,0.000915527
85,1436605250877,-0.00175476,-0.006073,-0.00228882
86,1436605250895,-0.000686646,-0.006073,-0.00656128
87,1436605250916,-0.00495911,-0.00714111,-0.00656128
88,1436605250935,-0.00602722,-0.00927734,-0.00549316
89,1436605250959,-0.00389099,-0.00714111,-0.00228882
90,1436605250976,-0.00389099,-0.006073,0.000915527
91,1436605250996,-0.00602722,-0.00500488,0.00305176
92,1436605251016,-0.00495911,-0.00500488,0.00518799
93,1436605251034,0.00038147,-0.00393677,0.0105286
94,1436605251056,0.0025177,-0.00393677,0.00946045
95,1436605251074,-0.000686646,-0.00286865,0.00732422
96,1436605251095,-0.00602722,-0.000732422,0.0062561
97,1436605251115,-0.0102997,-0.00180054,0.00411987
98,1436605251135,-0.00923157,0.000335693,0.00411987
99,1436605251157,-0.00709534,0.000335693,0.00411987
100,1436605251175,-0.0145721,-0.000732422,0.00305176
101,1436605251194,-0.0156403,-0.00286865,-0.000152588
102,1436605251214,-0.0145721,-0.00286865,-0.00442505
103,1436605251234,-0.00923157,-0.00500488,-0.00442505
104,1436605251253,-0.00709534,-0.000732422,-0.00335693
105,1436605251274,-0.000686646,-0.006073,-0.00228882
106,1436605251293,-0.00175476,-0.0124817,-0.00335693
107,1436605251314,0.00144958,-0.0135498,-0.00549316
108,1436605251333,-0.000686646,-0.0146179,-0.00335693
109,1436605251351,-0.00495911,-0.0178223,-0.00335693
110,1436605251373,-0.00602722,-0.0124817,-0.00549316
111,1436605251394,-0.0113678,-0.0146179,-0.00442505
112,1436605251412,-0.0102997,-0.0178223,-0.00549316
113,1436605251432,-0.0102997,-0.0146179,-0.00549316
114,1436605251452,-0.00602722,-0.0103455,-0.00656128
115,1436605251472,0.00144958,-0.00714111,0.000915527
116,1436605251492,0.00358582,-0.00820923,0.00518799
117,1436605251512,0.00038147,-0.006073,0.00732422
118,1436605251531,0.0025177,0.00247192,0.00946045
119,1436605251551,0.0110626,0.0078125,0.0105286
120,1436605251571,0.0121307,0.0142212,0.0115967
121,1436605251593,0.0131989,0.00994873,0.0105286
122,1436605251611,-0.000686646,0.00888061,0.00839233
123,1436605251630,-0.0156403,0.00674438,0.0062561
124,1436605251650,-0.0209808,0.00567627,0.00518799
125,1436605251669,-0.0295258,0.00567627,0.00732422
126,1436605251691,-0.0402069,-0.000732422,0.00732422
127,1436605251707,-0.0423431,-0.00820923,0.00732422
128,1436605251726,-0.0348663,-0.0114136,0.00518799
129,1436605251748,-0.0305939,-0.0146179,0.0062561
130,1436605251767,-0.0241852,-0.0199585,0.00411987
131,1436605251787,-0.022049,-0.0199585,0.00411987
132,1436605251807,-0.0188446,-0.0178223,0.0062561
133,1436605251827,-0.00816345,-0.015686,0.00411987
134,1436605251846,0.00358582,-0.0124817,0.00839233
135,1436605251867,0.00892639,-0.00927734,0.0105286
136,1436605251887,0.0153351,-0.00714111,0.00732422
137,1436605251906,0.0217438,-0.00500488,0.00732422
138,1436605251925,0.0260162,-0.00286865,0.00518799
139,1436605251949,0.0281525,-0.000732422,0.0062561
140,1436605251968,0.0313568,0.00247192,0.00411987
141,1436605251986,0.02388,0.000335693,0.00198364
142,1436605252008,0.0185394,-0.00180054,0.000915527
143,1436605252026,0.0110626,-0.00286865,-0.00228882
144,1436605252048,-0.000686646,-0.000732422,-0.00335693
145,1436605252066,-0.00602722,0.00247192,-0.00549316
146,1436605252089,-0.0113678,0.00354004,-0.00549316
147,1436605252107,-0.0177765,-0.000732422,-0.00656128
148,1436605252125,-0.0177765,0.00140381,-0.0012207
149,1436605252146,-0.0209808,0.000335693,-0.0012207
150,1436605252165,-0.0209808,-0.00180054,-0.00228882
151,1436605252188,-0.0156403,0.000335693,0.00198364
152,1436605252206,-0.0113678,-0.000732422,0.00305176
153,1436605252226,0.0025177,0.00247192,0.00198364
154,1436605252245,0.0164032,0.0078125,0.00411987
155,1436605252266,0.0270844,0.012085,0.00411987
156,1436605252288,0.0270844,0.00888061,0.00305176
157,1436605252305,0.0185394,0.00460815,0.00198364
158,1436605252325,0.0131989,0.000335693,0.000915527
159,1436605252344,0.00999451,0.00567627,0.00198364
160,1436605252365,0.0110626,0.00460815,0.000915527
161,1436605252387,0.00892639,0.00567627,0.0062561
162,1436605252404,0.00679016,0.00460815,0.00411987
163,1436605252424,0.00999451,0.00247192,0.00839233
164,1436605252443,0.00892639,0.000335693,0.00946045
165,1436605252464,0.00038147,-0.00180054,0.0105286
166,1436605252485,-0.00816345,-0.000732422,0.0105286
167,1436605252504,-0.00816345,-0.00393677,0.0105286
168,1436605252523,-0.000686646,-0.000732422,0.0105286
169,1436605252544,0.00572205,-0.00286865,0.0126648
170,1436605252563,0.00785828,-0.00286865,0.0115967
171,1436605252583,0.00572205,-0.00286865,0.0126648
172,1436605252603,0.00892639,-0.00500488,0.0105286
173,1436605252622,0.00892639,-0.00714111,0.0105286
174,1436605252641,0.0131989,-0.00393677,0.0115967
175,1436605252662,0.0174713,-0.00180054,0.0115967
176,1436605252682,0.0174713,-0.000732422,0.0126648
177,1436605252702,0.00999451,-0.000732422,0.00946045
178,1436605252723,0.00785828,-0.00180054,0.00732422
179,1436605252742,0.00358582,-0.00286865,0.00732422
180,1436605252759,0.00358582,0.000335693,0.0062561
181,1436605252781,0.00679016,0.00460815,0.0105286
182,1436605252800,0.00999451,0.00354004,0.00839233
183,1436605252823,0.00572205,0.0078125,0.0115967
184,1436605252841,0.0025177,0.00567627,0.0126648
185,1436605252861,0.00679016,0.012085,0.0105286
186,1436605252880,0.0153351,0.00994873,0.014801
187,1436605252899,0.0196075,0.00674438,0.0126648
188,1436605252923,0.02388,0.00674438,0.014801
189,1436605252939,0.0228119,0.00674438,0.014801
190,1436605252960,0.0185394,0.00247192,0.00946045
191,1436605252979,0.0121307,-0.00180054,0.00946045
192,1436605252999,0.00144958,-0.006073,0.00518799
193,1436605253020,-0.0102997,-0.0103455,0.000915527
194,1436605253039,-0.00602722,-0.00500488,-0.000152588
195,1436605253058,0.00144958,-0.00180054,0.00305176
196,1436605253078,0.00572205,0.00140381,0.0062561
197,1436605253099,0.00679016,0.00354004,0.00732422
198,1436605253120,0.00892639,-0.00180054,0.00839233
199,1436605253138,0.0025177,-0.00393677,0.0105286
200,1436605253158,-0.00389099,-0.00500488,0.0105286
201,1436605253178,-0.0102997,-0.00393677,0.00839233
202,1436605253198,-0.0113678,-0.00393677,0.00732422
203,1436605253217,-0.00495911,-0.00393677,0.00732422
204,1436605253237,-0.00175476,-0.00180054,0.00839233
205,1436605253256,-0.00923157,0.00247192,0.00518799
206,1436605253277,-0.0156403,-0.000732422,0.00198364
207,1436605253297,-0.0167084,0.00140381,-0.000152588
208,1436605253319,-0.0156403,0.00247192,-0.0012207
209,1436605253337,-0.0156403,0.00354004,-0.00228882
210,1436605253356,-0.0113678,0.00247192,-0.00335693
211,1436605253376,-0.013504,0.00460815,-0.00335693
212,1436605253395,-0.0188446,0.00247192,-0.00228882
213,1436605253418,-0.0252533,0.000335693,-0.00549316
214,1436605253436,-0.0284576,-0.00180054,-0.00656128
215,1436605253456,-0.0231171,0.00247192,-0.00762939
216,1436605253476,-0.0263214,-0.00180054,-0.00549316
217,1436605253495,-0.0273895,0.000335693,-0.00656128
218,1436605253518,-0.0273895,0.000335693,-0.000152588
219,1436605253533,-0.0241852,0.00247192,-0.000152588
220,1436605253555,-0.0167084,0.00247192,0.00198364
221,1436605253574,-0.00602722,-0.00500488,0.00411987
222,1436605253594,-0.00709534,-0.000732422,0.00411987
223,1436605253617,-0.013504,-0.00180054,0.00198364
224,1436605253634,-0.0102997,0.00140381,0.00305176
225,1436605253654,-0.00816345,0.000335693,-0.0012207
226,1436605253672,-0.0113678,-0.00180054,-0.00228882
227,1436605253694,-0.0188446,-0.00500488,-0.00549316
228,1436605253713,-0.0199127,-0.00393677,-0.00656128
229,1436605253733,-0.0156403,0.000335693,-0.00335693
230,1436605253753,-0.0156403,0.00247192,0.00198364
231,1436605253773,-0.0167084,0.00567627,0.000915527
232,1436605253793,-0.0124359,0.00888061,0.000915527
233,1436605253813,-0.013504,0.0078125,0.00518799
234,1436605253833,-0.0167084,0.00674438,0.00946045
235,1436605253852,-0.0231171,0.00460815,0.00732422
236,1436605253872,-0.0263214,0.00994873,0.00946045
237,1436605253891,-0.0241852,0.0163574,0.014801
238,1436605253912,-0.0167084,0.021698,0.0190735
239,1436605253932,-0.0113678,0.0302429,0.0201416
240,1436605253951,-0.00389099,0.039856,0.0244141
241,1436605253971,-0.00175476,0.0462646,0.0244141
242,1436605253989,-0.00816345,0.0505371,0.0254822
243,1436605254011,-0.0156403,0.0537415,0.0201416
244,1436605254030,-0.00495911,0.059082,0.0201416
245,1436605254050,-0.0348663,0.0633545,0.0105286
246,1436605254071,-0.114975,0.067627,-0.0119019
247,1436605254091,-0.515518,0.108215,-0.0663757
248,1436605254110,-1.34224,0.00354004,-0.134735
249,1436605254130,-2.19673,-0.071228,-0.326996
250,1436605254150,-2.40608,-0.21756,-0.387878
251,1436605254169,-1.7588,-0.106476,-0.314178
252,1436605254190,-1.1628,-0.0391846,-0.147552
253,1436605254210,-1.07094,-0.089386,-0.0888062
254,1436605254229,-0.902176,-0.0370483,-0.068512
255,1436605254249,-0.568924,0.067627,0.0543213
256,1436605254269,-0.204697,0.122101,0.15686
257,1436605254289,0.0901032,0.141327,0.219879
258,1436605254307,0.338974,0.184052,0.282898
259,1436605254328,0.536575,0.22998,0.345917
260,1436605254347,0.594254,0.24707,0.358734
261,1436605254368,0.406265,0.250275,0.322418
262,1436605254387,0.0826263,0.200073,0.232697
263,1436605254408,-0.174789,0.101807,0.11734
264,1436605254425,-0.345688,0.0526733,0.0361633
265,1436605254446,-0.69603,0.0975342,-0.0332642
266,1436605254467,-1.1425,0.0441284,-0.16571
267,1436605254487,-1.33797,-0.00180054,-0.276794
268,1436605254507,-1.25893,-0.00714111,-0.286407
269,1436605254527,-1.12221,0.021698,-0.259705
270,1436605254546,-1.04103,0.0612183,-0.240479
271,1436605254566,-0.911789,0.0836487,-0.204163
272,1436605254587,-0.656509,0.101807,-0.135803
273,1436605254606,-0.321121,0.118896,-0.0492859
274,1436605254624,0.0110626,0.132782,0.0350952
275,1436605254645,0.222549,0.147736,0.131226
276,1436605254665,0.391312,0.144531,0.244446
277,1436605254686,0.594254,0.100739,0.364075
278,1436605254705,0.781174,0.0302429,0.477295
279,1436605254724,0.882645,-0.0381165,0.577698
280,1436605254745,0.840988,-0.089386,0.65033
281,1436605254763,0.622025,-0.125702,0.678101
282,1436605254785,0.230026,-0.154541,0.635376
283,1436605254804,-0.251694,-0.199402,0.52002
284,1436605254824,-0.686417,-0.215424,0.366211
285,1436605254844,-0.860519,-0.14386,0.277557
286,1436605254864,-0.756912,-0.0199585,0.26474
287,1436605254884,-0.581741,0.142395,0.295715
288,1436605254904,-0.415115,0.251343,0.334167
289,1436605254924,-0.336075,0.295135,0.363007
290,1436605254943,-0.307236,0.271637,0.366211
291,1436605254963,-0.337143,0.193665,0.359802
292,1436605254983,-0.382004,0.0879211,0.32135
293,1436605255003,-0.395889,0.0387878,0.269012
294,1436605255023,-0.385208,0.0409241,0.195312
295,1436605255042,-0.354233,0.0537415,0.116272
296,1436605255062,-0.543289,-0.0210266,-0.0439453
297,1436605255083,-0.886154,-0.206879,-0.325928
298,1436605255102,-1.26747,-0.332916,-0.657043
299,1436605255121,-1.55693,-0.309418,-0.872803
300,1436605255142,-1.62636,-0.232513,-0.974274
301,1436605255162,-1.3604,-0.150269,-1.00311
302,1436605255184,-0.955582,-0.00714111,-0.971069
303,1436605255201,-0.583878,0.113556,-0.914459
304,1436605255221,-0.308304,0.175507,-0.879211
305,1436605255241,-0.147018,0.239593,-0.825806
306,1436605255349,-0.0722504,0.349609,-0.727539
307,1436605255350,-0.426865,0.391266,-0.709381
308,1436605255351,-1.24931,0.50235,-0.903778
309,1436605255352,-3.48061,0.812103,-1.48376
310,1436605255353,-4.80186,1.61533,-2.31476
311,1436605255359,-3.76152,1.72855,-2.67792
312,1436605255379,-1.81755,1.71573,-2.36069
313,1436605255398,0.138168,1.99878,-1.8512
314,1436605255420,1.11763,1.95605,-1.362
315,1436605255438,1.4669,1.60464,-0.970001
316,1436605255459,1.57799,1.30344,-0.592957
317,1436605255479,1.69548,1.10583,-0.219116
318,1436605255499,1.87599,0.911438,0.0468445
319,1436605255519,1.85463,0.691406,0.272217
320,1436605255537,1.54915,0.423309,0.443115
321,1436605255558,1.30348,0.271637,0.41214
322,1436605255577,0.948868,0.452148,0.322418
323,1436605255598,0.502396,0.66684,0.266876
324,1436605255618,0.089035,0.741608,0.252991
325,1436605255637,-0.222855,0.773651,0.32135
326,1436605255657,-0.341415,0.721314,0.421753
327,1436605255677,-0.238876,0.687134,0.46875
328,1436605255697,0.0452423,0.81958,0.461273
329,1436605255716,0.296249,0.838806,0.436707
330,1436605255737,0.463943,0.746948,0.402527
331,1436605255756,0.585709,0.610229,0.303192
332,1436605255776,0.65834,0.464966,0.226288
333,1436605255796,0.650864,0.33252,0.203857
334,1436605255817,0.604935,0.192596,0.203857
335,1436605255836,0.532303,0.0355835,0.193176
336,1436605255855,0.394516,-0.0744324,0.196381
337,1436605255876,0.194778,-0.165222,0.182495
338,1436605255895,0.109329,-0.211151,0.116272
339,1436605255918,0.111465,-0.132111,0.0318909
340,1436605255935,0.136032,0.0078125,-0.0674438
341,1436605255955,0.103989,0.144531,-0.148621
342,1436605255975,0.0644684,0.22464,-0.208435
343,1436605255995,0.106125,0.24173,-0.272522
344,1436605256015,0.157394,0.210754,-0.309906
345,1436605256034,0.19371,0.0953979,-0.377197
346,1436605256054,0.281296,-0.0231628,-0.427399
347,1436605256074,0.371017,-0.137451,-0.450897
348,1436605256094,0.503464,-0.211151,-0.432739
349,1436605256114,0.578232,-0.246399,-0.356903
350,1436605256134,0.730972,-0.303009,-0.338745
351,1436605256153,0.954208,-0.243195,-0.333405
352,1436605256171,1.06102,-0.135315,-0.31311
353,1436605256193,1.0482,-0.0509338,-0.36972
354,1436605256214,0.949936,0.0697632,-0.498962
355,1436605256233,0.768356,0.22464,-0.599365
356,1436605256253,0.595322,0.350677,-0.697632
357,1436605256272,0.352859,0.405151,-0.834351
358,1436605256292,0.042038,0.284454,-1.00739
359,1436605256313,-0.100021,0.121033,-1.10138
360,1436605256331,0.134964,0.0953979,-1.12381
361,1436605256351,0.462875,0.0302429,-1.19537
362,1436605256371,0.586777,-0.106476,-1.35132
363,1436605256391,0.521622,-0.184448,-1.41541
364,1436605256414,0.587845,-0.340393,-1.39938
365,1436605256431,0.846329,-0.528381,-1.29578
366,1436605256451,1.09093,-0.578583,-1.10138
367,1436605256471,1.20415,-0.601013,-0.825806
368,1436605256490,1.30882,-0.657623,-0.53421
369,1436605256511,1.36757,-0.701416,-0.318451
370,1436605256529,1.40175,-0.746277,-0.229797
371,1436605256551,1.45622,-0.720642,-0.200958
372,1436605256569,1.48399,-0.562561,-0.157166
373,1436605256590,1.36009,-0.30835,-0.142212
374,1436605256610,1.08986,-0.0552063,-0.125122
375,1436605256627,0.920029,0.187256,-0.0674438
376,1436605256649,0.976639,0.290863,-0.0354004
377,1436605256668,1.14754,0.282318,-0.0450134
378,1436605256689,1.19347,0.209686,-0.00228882
379,1436605256708,0.91362,0.021698,-0.188141
380,1436605256728,0.619888,-0.0797729,-0.479736
381,1436605256744,0.424423,-0.163086,-0.39856
382,1436605256766,0.477829,-0.205811,-0.267181
383,1436605256786,0.59639,-0.197266,-0.291748
384,1436605256805,0.854874,-0.196198,-0.255432
385,1436605256826,1.13579,-0.17804,-0.267181
386,1436605256846,1.19881,-0.124634,-0.294952
387,1436605256865,0.925369,-0.0722961,-0.3302
388,1436605256885,0.501328,-0.0584106,-0.346222
389,1436605256905,0.371017,0.0206299,-0.312042
390,1436605256925,0.581436,0.149872,-0.0930786
391,1436605256946,0.746994,0.129578,0.0468445
392,1436605256967,0.793991,0.197937,0.126953
393,1436605256986,0.680771,0.154144,0.0831604
394,1436605257007,0.513077,0.0451965,0.0297546
395,1436605257026,0.366745,-0.0252991,-0.0193787
396,1436605257045,0.401993,-0.043457,0.00732422
397,1436605257066,0.581436,0.0078125,-0.00335693
398,1436605257087,0.744858,0.0879211,-0.0300598
399,1436605257106,0.797195,0.213959,-0.0738525
400,1436605257125,0.674362,0.253479,-0.0994873
401,1436605257145,0.520554,0.307953,-0.121918
402,1436605257165,0.389175,0.381653,-0.0738525
403,1436605257187,0.294113,0.436127,-0.0610352
404,1436605257205,0.240707,0.460693,-0.0439453
