id,attr_time,attr_x,attr_y,attr_z
1,1438345018029,-1.6771383,9.934141,1.6089035
2,1438345018085,-1.632247,9.892242,1.608305
3,1438345018086,-1.6130934,9.865907,1.6136919
4,1438345018087,-1.6346412,9.873688,1.6118963
5,1438345018109,-1.6771383,9.874885,1.6005238
6,1438345018116,-1.678934,9.924564,1.6011224
7,1438345018136,-1.6460136,9.953894,1.6047137
8,1438345018156,-1.6077064,9.935339,1.6220716
9,1438345018178,-1.5753847,9.928156,1.632247
10,1438345018200,-1.6041151,9.910199,1.6172832
11,1438345018220,-1.6101006,9.932944,1.5969325
12,1438345018240,-1.6436194,9.947908,1.5747862
13,1438345018260,-1.6597804,9.955689,1.596334
14,1438345018280,-1.6364368,9.913192,1.6136919
15,1438345018300,-1.6681601,9.919178,1.608305
16,1438345018320,-1.6681601,9.907805,1.5831659
17,1438345018339,-1.6759412,9.941922,1.5945383
18,1438345018374,-1.6651673,9.932944,1.5765818
19,1438345018377,-1.6059108,9.918579,1.6154876
20,1438345018400,-1.5837644,9.920375,1.6130934
21,1438345018417,-1.6639702,9.96766,1.5927427
22,1438345018437,-1.7196354,9.898827,1.6208745
23,1438345018457,-1.6932992,9.855731,1.6292542
24,1438345018482,-1.6286557,9.879673,1.5993267
25,1438345018501,-1.6053122,9.859323,1.5855601
26,1438345018523,-1.6196774,9.871892,1.5753847
27,1438345018539,-1.6394296,9.8994255,1.6118963
28,1438345018558,-1.6717514,9.929952,1.596334
29,1438345018577,-1.6645688,9.898827,1.6172832
30,1438345018599,-1.6537948,9.902418,1.62686
31,1438345018620,-1.6837224,9.936536,1.6112977
32,1438345018638,-1.6747441,9.903017,1.6136919
33,1438345018709,-1.6256629,9.870695,1.6184803
34,1438345018710,-1.6316484,9.865308,1.6059108
35,1438345018711,-1.6567876,9.855133,1.5813702
36,1438345018717,-1.7010803,9.89344,1.5855601
37,1438345018740,-1.7340006,9.921572,1.6065093
38,1438345018760,-1.7489643,9.919178,1.6220716
39,1438345018777,-1.6944963,9.928755,1.654992
40,1438345018802,-1.6723499,9.892841,1.6160861
41,1438345018830,-1.6711528,9.868899,1.6196774
42,1438345018838,-1.7022774,9.873688,1.6316484
43,1438345018858,-1.7040731,9.88506,1.6106992
44,1438345018879,-1.6867151,9.881469,1.6208745
45,1438345018897,-1.6460136,9.85633,1.6118963
46,1438345018920,-1.661576,9.879673,1.6041151
47,1438345018940,-1.7046716,9.872491,1.6286557
48,1438345018960,-1.7447745,9.865907,1.6460136
49,1438345018980,-1.6819267,9.890448,1.654992
50,1438345019000,-1.6555905,9.919776,1.6190789
51,1438345019021,-1.6873137,9.911396,1.6466122
52,1438345019040,-1.7316064,9.870695,1.6944963
53,1438345019059,-1.6903064,9.825205,1.6831238
54,1438345019078,-1.6657659,9.862315,1.6711528
55,1438345019097,-1.6238673,9.880871,1.6472107
56,1438345019119,-1.6035166,9.902418,1.6663644
57,1438345019141,-1.6537948,9.904813,1.7016789
58,1438345019161,-1.6980876,9.896433,1.6879122
59,1438345019180,-1.7310078,9.872491,1.6819267
60,1438345019200,-1.7142484,9.924564,1.644218
61,1438345019220,-1.6885108,9.913791,1.673547
62,1438345019240,-1.6723499,9.889849,1.7040731
63,1438345019261,-1.6490064,9.8677025,1.6903064
64,1438345019281,-1.6448165,9.870096,1.6753427
65,1438345019339,-1.6879122,9.85633,1.6472107
66,1438345019340,-1.6950948,9.871294,1.6543933
67,1438345019341,-1.7375919,9.87668,1.6968905
68,1438345019367,-1.7076644,9.888053,1.6831238
69,1438345019424,-1.6956934,9.887454,1.7130513
70,1438345019425,-1.7004818,9.859323,1.6921021
71,1438345019426,-1.6998832,9.879075,1.6837224
72,1438345019438,-1.751957,9.8515415,1.6843209
73,1438345019459,-1.7555484,9.862315,1.678934
74,1438345019481,-1.7495629,9.865308,1.6962919
75,1438345019500,-1.738789,9.84795,1.6944963
76,1438345019518,-1.7381904,9.880871,1.6861166
77,1438345019538,-1.7669208,9.88925,1.654992
78,1438345019559,-1.7393875,9.882068,1.7088615
79,1438345019579,-1.6807296,9.8754835,1.6956934
80,1438345019598,-1.7034745,9.93893,1.6747441
81,1438345019619,-1.7447745,9.904214,1.7010803
82,1438345019638,-1.763928,9.824607,1.7100586
83,1438345019659,-1.7010803,9.818622,1.7052702
84,1438345019681,-1.6633717,9.850943,1.6801311
85,1438345019701,-1.6232687,9.847352,1.644218
86,1438345019721,-1.6382325,9.8677025,1.6927006
87,1438345019741,-1.6585833,9.907805,1.7082629
88,1438345019761,-1.6753427,9.912594,1.7046716
89,1438345019781,-1.697489,9.873089,1.7549498
90,1438345019801,-1.6980876,9.915586,1.7322049
91,1438345019821,-1.7369933,9.882666,1.7106571
92,1438345019840,-1.7040731,9.835381,1.7154455
93,1438345019861,-1.702876,9.803059,1.6837224
94,1438345019881,-1.7280151,9.802461,1.6370354
95,1438345019903,-1.7729063,9.840768,1.6292542
96,1438345019923,-1.7735049,9.880871,1.6729485
97,1438345019941,-1.7429788,9.883863,1.70946
98,1438345019961,-1.7046716,9.874287,1.738789
99,1438345019980,-1.6962919,9.8683,1.7190368
100,1438345020003,-1.6956934,9.871294,1.6699557
101,1438345020021,-1.7106571,9.868899,1.650802
102,1438345020040,-1.6968905,9.876082,1.678934
103,1438345020072,-1.6825253,9.847352,1.6831238
104,1438345020079,-1.6944963,9.845556,1.6310499
105,1438345020151,-1.769315,9.885659,1.6400281
106,1438345020152,-1.7776948,9.886257,1.6663644
107,1438345020153,-1.7058687,9.905411,1.6938977
108,1438345020171,-1.6705543,9.862315,1.6891093
109,1438345020179,-1.7328035,9.91439,1.650802
110,1438345020199,-1.7657237,9.848549,1.666963
111,1438345020221,-1.7369933,9.831191,1.6831238
112,1438345020253,-1.6693572,9.848549,1.6567876
113,1438345020259,-1.6226702,9.871294,1.614889
114,1438345020280,-1.6298528,9.859323,1.6226702
115,1438345020300,-1.6705543,9.904813,1.6364368
116,1438345020321,-1.7280151,9.953295,1.6358383
117,1438345020341,-1.7256209,9.943718,1.6484078
118,1438345020362,-1.6968905,9.894637,1.6837224
119,1438345020382,-1.6849195,9.924564,1.6256629
120,1438345020402,-1.7184383,9.924564,1.6358383
121,1438345020422,-1.6932992,9.862315,1.6370354
122,1438345020442,-1.6843209,9.877279,1.6160861
123,1438345020465,-1.6956934,9.894038,1.6011224
124,1438345020482,-1.6980876,9.892841,1.5987282
125,1438345020502,-1.7238252,9.908403,1.5939398
126,1438345020522,-1.7699136,9.929952,1.602918
127,1438345020540,-1.7890673,9.91798,1.6077064
128,1438345020562,-1.769315,9.907805,1.6220716
129,1438345020582,-1.6998832,9.887454,1.6298528
130,1438345020602,-1.6956934,9.881469,1.596334
131,1438345020622,-1.7274165,9.883863,1.5664065
132,1438345020643,-1.769315,9.879673,1.5622166
133,1438345020661,-1.7495629,9.8754835,1.5807717
134,1438345020681,-1.7998412,9.884461,1.5867572
135,1438345020704,-1.863886,9.883863,1.5969325
136,1438345020720,-1.8297687,9.8677025,1.608305
137,1438345020742,-1.7585411,9.833585,1.5921441
138,1438345020762,-1.745373,9.903017,1.5945383
139,1438345020781,-1.8082209,9.892841,1.5795746
140,1438345020812,-1.816002,9.825804,1.6178818
141,1438345020882,-1.7597382,9.811439,1.62686
142,1438345020883,-1.7603368,9.81503,1.6023195
143,1438345020884,-1.7753005,9.846753,1.5753847
144,1438345020885,-1.7812861,9.870695,1.5646108
145,1438345020900,-1.821389,9.877279,1.5747862
146,1438345020921,-1.7980455,9.898229,1.6005238
147,1438345020939,-1.7914615,9.868899,1.5987282
148,1438345020966,-1.8022354,9.883265,1.6041151
149,1438345020979,-1.8435353,9.886856,1.5676036
150,1438345021000,-1.8321629,9.87668,1.5777789
151,1438345021023,-1.7884687,9.845556,1.5831659
152,1438345021041,-1.7645266,9.853337,1.5753847
153,1438345021069,-1.7316064,9.860519,1.5747862
154,1438345021081,-1.7340006,9.871892,1.5915456
155,1438345021100,-1.7663223,9.896433,1.5693992
156,1438345021122,-1.8189948,9.901819,1.6023195
157,1438345021142,-1.8429368,9.883863,1.5951369
158,1438345021162,-1.7944542,9.8683,1.5825673
159,1438345021183,-1.7483658,9.865308,1.5921441
160,1438345021202,-1.7537527,9.861717,1.6017209
161,1438345021223,-1.785476,9.862315,1.6118963
162,1438345021242,-1.7675194,9.870096,1.6124948
163,1438345021261,-1.7525556,9.869498,1.5891514
164,1438345021283,-1.7381904,9.866506,1.632247
165,1438345021303,-1.7196354,9.866506,1.608305
166,1438345021323,-1.6837224,9.870096,1.6065093
167,1438345021341,-1.7004818,9.88506,1.5472529
168,1438345021363,-1.7753005,9.946711,1.5574282
169,1438345021383,-1.845331,9.904813,1.5969325
170,1438345021403,-1.7729063,9.8437605,1.6256629
171,1438345021424,-1.702876,9.849147,1.5975311
172,1438345021443,-1.6316484,9.863512,1.5568297
173,1438345021463,-1.6519991,9.854534,1.5693992
174,1438345021481,-1.6968905,9.865308,1.5735891
175,1438345021501,-1.7579426,9.909601,1.5592239
176,1438345021520,-1.7543513,9.909601,1.5855601
177,1438345021585,-1.7633295,9.882068,1.6077064
178,1438345021586,-1.7459716,9.927557,1.6017209
179,1438345021587,-1.7884687,9.889849,1.6023195
180,1438345021608,-1.7968484,9.86471,1.5771804
181,1438345021620,-1.8249803,9.822811,1.5352819
182,1438345021641,-1.8166006,9.837775,1.5029601
183,1438345021660,-1.8177977,9.850345,1.5029601
184,1438345021681,-1.8297687,9.888652,1.5298948
185,1438345021714,-1.8243817,9.901819,1.5664065
186,1438345021722,-1.816002,9.918579,1.555034
187,1438345021746,-1.8261774,9.897031,1.5370775
188,1438345021761,-1.822586,9.878476,1.5292963
189,1438345021783,-1.8417397,9.894637,1.496376
190,1438345021800,-1.8118122,9.9233675,1.4694413
191,1438345021823,-1.8154035,9.916783,1.5107412
192,1438345021843,-1.8177977,9.8515415,1.5077485
193,1438345021863,-1.9033904,9.860519,1.4993688
194,1438345021883,-1.9919758,9.888652,1.4784195
195,1438345021903,-1.9207484,9.916184,1.4999673
196,1438345021923,-1.780089,9.886257,1.5298948
197,1438345021943,-1.6950948,9.916783,1.5053543
198,1438345021963,-1.75076,9.862914,1.5167267
199,1438345021983,-1.7525556,9.832388,1.5023615
200,1438345022002,-1.7082629,9.882068,1.4790181
201,1438345022023,-1.7106571,9.880272,1.4652514
202,1438345022041,-1.721431,9.886257,1.4652514
203,1438345022066,-1.7447745,9.919178,1.4862007
204,1438345022081,-1.804031,9.923966,1.46585
205,1438345022104,-1.8058267,9.912594,1.4167689
206,1438345022124,-1.7483658,9.909601,1.5077485
207,1438345022144,-1.7262194,9.973047,1.5472529
208,1438345022163,-1.780089,9.970055,1.536479
209,1438345022182,-1.79206,9.965266,1.5346833
210,1438345022202,-1.7842789,9.964667,1.5508442
211,1438345022222,-1.7621324,9.929952,1.513734
212,1438345022241,-1.7322049,9.921572,1.4867992
213,1438345022306,-1.7274165,9.88925,1.4580688
214,1438345022307,-1.7657237,9.861118,1.4478935
215,1438345022308,-1.7998412,9.868899,1.484405
216,1438345022320,-1.8118122,9.873089,1.5119383
217,1438345022341,-1.7914615,9.89763,1.5352819
218,1438345022361,-1.774702,9.913192,1.5143325
219,1438345022381,-1.7908629,9.9233675,1.5065514
220,1438345022401,-1.8064252,9.894637,1.5155296
221,1438345022421,-1.809418,9.861118,1.5304934
222,1438345022442,-1.809418,9.854534,1.5005659
223,1438345022465,-1.8297687,9.882666,1.4826094
224,1438345022481,-1.8297687,9.866506,1.4945804
225,1438345022501,-1.7381904,9.853337,1.555034
226,1438345022521,-1.7088615,9.888053,1.5263035
227,1438345022541,-1.7615339,9.89344,1.5167267
228,1438345022561,-1.8010383,9.834184,1.5394717
229,1438345022581,-1.7310078,9.816227,1.5472529
230,1438345022601,-1.7298107,9.853935,1.4826094
231,1438345022621,-1.7316064,9.848549,1.4856021
232,1438345022641,-1.7076644,9.849147,1.5436616
233,1438345022661,-1.7531542,9.890448,1.5448587
234,1438345022681,-1.7890673,9.937733,1.4891934
235,1438345022701,-1.7938557,9.910798,1.5023615
236,1438345022721,-1.7932571,9.914988,1.555034
237,1438345022741,-1.827973,9.883265,1.5442601
238,1438345022761,-1.8579005,9.858724,1.4993688
239,1438345022781,-1.8543092,9.866506,1.4879963
240,1438345022801,-1.8579005,9.852738,1.4700398
241,1438345022821,-1.8507179,9.83957,1.4628572
242,1438345022841,-1.8728642,9.871294,1.5059528
243,1438345022861,-1.8680758,9.888053,1.4909891
244,1438345022881,-1.8495208,9.901819,1.4939818
245,1438345022902,-1.7962499,9.909002,1.5179238
246,1438345022932,-1.7896658,9.907805,1.5412674
247,1438345022940,-1.780089,9.887454,1.5328877
248,1438345022960,-1.7992426,9.870096,1.5388732
249,1438345022980,-1.8142064,9.863512,1.5502456
250,1438345023000,-1.816002,9.850345,1.5089456
251,1438345023023,-1.8028339,9.85633,1.472434
252,1438345023040,-1.7938557,9.904214,1.4903905
253,1438345023060,-1.7657237,9.8916445,1.5047557
254,1438345023080,-1.6879122,9.88506,1.5263035
255,1438345023100,-1.6717514,9.90601,1.5155296
256,1438345023119,-1.7160441,9.949105,1.4790181
257,1438345023139,-1.8189948,9.946113,1.5185224
258,1438345023159,-1.834557,9.867104,1.5753847
259,1438345023180,-1.769315,9.871294,1.5460558
260,1438345023200,-1.7034745,9.865907,1.5173253
261,1438345023220,-1.6621746,9.870096,1.4987702
262,1438345023241,-1.7076644,9.888053,1.489792
263,1438345023261,-1.8058267,9.925761,1.5197195
264,1438345023284,-1.8171991,9.88506,1.5514427
265,1438345023300,-1.7908629,9.865907,1.5610195
266,1438345023323,-1.8088194,9.909601,1.5412674
267,1438345023343,-1.8507179,9.897031,1.5263035
268,1438345023361,-1.8076223,9.861717,1.5394717
269,1438345023381,-1.7753005,9.845556,1.5424645
270,1438345023403,-1.7465701,9.826403,1.5508442
271,1438345023424,-1.6932992,9.87668,1.5448587
272,1438345023445,-1.7052702,9.911396,1.5442601
273,1438345023462,-1.721431,9.916184,1.54845
274,1438345023486,-1.7585411,9.9233675,1.5981296
275,1438345023503,-1.7884687,9.883863,1.6035166
276,1438345023524,-1.8016368,9.888652,1.6011224
277,1438345023542,-1.7866731,9.865907,1.5873557
278,1438345023563,-1.7591397,9.859323,1.5388732
279,1438345023602,-1.7489643,9.863512,1.5664065
280,1438345023603,-1.7405846,9.860519,1.5819688
281,1438345023625,-1.7567455,9.871892,1.578976
282,1438345023641,-1.7513585,9.892242,1.5999253
283,1438345023662,-1.7405846,9.88506,1.6047137
284,1438345023681,-1.6753427,9.864111,1.6274586
285,1438345023702,-1.685518,9.855731,1.5951369
286,1438345023722,-1.775899,9.920973,1.567005
287,1438345023741,-1.8249803,9.8754835,1.6154876
288,1438345023765,-1.7274165,9.828796,1.6304513
289,1438345023785,-1.6633717,9.8276,1.6065093
290,1438345023805,-1.6717514,9.829395,1.5795746
291,1438345023823,-1.7172412,9.879075,1.5586253
292,1438345023844,-1.762731,9.908403,1.5903485
293,1438345023863,-1.7495629,9.9473095,1.5951369
294,1438345023884,-1.6717514,9.882068,1.6286557
295,1438345023904,-1.6334441,9.89763,1.6274586
296,1438345023924,-1.6825253,9.904813,1.5987282
297,1438345023944,-1.6747441,9.89763,1.6065093
298,1438345023964,-1.666963,9.889849,1.6154876
299,1438345023984,-1.673547,9.89344,1.5957354
300,1438345024002,-1.6543933,9.900622,1.608305
301,1438345024024,-1.6364368,9.912594,1.6412252
302,1438345024042,-1.6448165,9.894637,1.6514006
303,1438345024070,-1.6771383,9.931149,1.602918
304,1438345024086,-1.6938977,9.929952,1.6101006
305,1438345024106,-1.6861166,9.916783,1.5897499
306,1438345024126,-1.7034745,9.928156,1.6142905
307,1438345024144,-1.714847,9.895834,1.590947
308,1438345024165,-1.7591397,9.874885,1.6005238
309,1438345024183,-1.774702,9.880871,1.6017209
310,1438345024204,-1.7513585,9.909601,1.6089035
311,1438345024224,-1.7405846,9.931149,1.608305
312,1438345024307,-1.70946,9.919178,1.6250644
313,1438345024308,-1.6490064,9.895236,1.6897079
314,1438345024314,-1.5496471,9.87668,1.7112557
315,1438345024315,-1.5119383,9.921572,1.632247
316,1438345024323,-1.6178818,9.925163,1.6095021
317,1438345024346,-1.661576,9.860519,1.6717514
318,1438345024362,-1.6723499,9.850943,1.6537948
319,1438345024382,-1.6651673,9.854534,1.6130934
320,1438345024416,-1.6376339,9.846753,1.5765818
321,1438345024425,-1.6334441,9.866506,1.5873557
322,1438345024443,-1.6765398,9.916783,1.5801731
323,1438345024464,-1.7118542,9.94312,1.6172832
324,1438345024482,-1.6723499,9.898229,1.6591818
325,1438345024504,-1.6244658,9.928755,1.6418238
326,1438345024525,-1.5969325,9.923966,1.6915035
327,1438345024544,-1.5777789,9.903615,1.6705543
328,1438345024565,-1.5825673,9.894637,1.6687586
329,1438345024585,-1.5759833,9.913791,1.6603789
330,1438345024605,-1.5831659,9.913192,1.6537948
331,1438345024624,-1.5939398,9.930551,1.6466122
332,1438345024644,-1.650802,9.9233675,1.6412252
333,1438345024664,-1.6777369,9.919776,1.6502035
334,1438345024685,-1.7160441,9.8994255,1.6723499
335,1438345024705,-1.7220296,9.916184,1.6621746
336,1438345024724,-1.7052702,9.93474,1.6436194
337,1438345024743,-1.6729485,9.911995,1.6262615
338,1438345024763,-1.6334441,9.881469,1.6663644
339,1438345024783,-1.632247,9.881469,1.6819267
340,1438345024804,-1.6567876,9.869498,1.6741456
341,1438345024826,-1.6376339,9.894637,1.6849195
342,1438345024845,-1.6466122,9.904214,1.6609775
343,1438345024866,-1.6603789,9.904813,1.6968905
344,1438345024886,-1.6603789,9.866506,1.7016789
345,1438345024903,-1.6280571,9.861717,1.7256209
346,1438345024924,-1.6412252,9.879673,1.6801311
347,1438345024944,-1.6980876,9.888053,1.6759412
348,1438345025054,-1.7058687,9.852738,1.6938977
349,1438345025055,-1.6472107,9.8198185,1.7004818
350,1438345025058,-1.5897499,9.801862,1.7100586
351,1438345025059,-1.6011224,9.801263,1.6490064
352,1438345025060,-1.62686,9.841965,1.6298528
353,1438345025069,-1.6897079,9.889849,1.6196774
354,1438345025117,-1.7058687,9.910798,1.6573862
355,1438345025118,-1.6915035,9.852738,1.6915035
356,1438345025190,-1.6849195,9.861118,1.6723499
357,1438345025197,-1.6879122,9.90601,1.6717514
358,1438345025199,-1.6705543,9.887454,1.6430209
359,1438345025200,-1.6561891,9.8683,1.620276
360,1438345025204,-1.6837224,9.861717,1.6424223
361,1438345025224,-1.7184383,9.882068,1.6406267
362,1438345025243,-1.7381904,9.886257,1.6597804
363,1438345025263,-1.7375919,9.896433,1.6729485
364,1438345025283,-1.7256209,9.894637,1.6675615
365,1438345025304,-1.6813282,9.896433,1.70946
366,1438345025325,-1.6753427,9.8916445,1.7010803
367,1438345025346,-1.6867151,9.916184,1.6765398
368,1438345025366,-1.6783354,9.933543,1.7070658
369,1438345025386,-1.6334441,9.929353,1.8369513
370,1438345025406,-1.5705963,9.919178,1.941099
371,1438345025424,-1.5939398,9.929952,2.0039468
372,1438345025450,-1.6346412,9.967062,2.0147207
373,1438345025467,-1.8052281,9.942521,1.9369092
374,1438345025487,-1.9865888,9.856929,1.922544
375,1438345025504,-2.0829554,9.77792,1.9608512
376,1438345025525,-2.0925324,9.733028,1.9321208
377,1438345025547,-1.9249382,9.760562,1.9428947
378,1438345025566,-1.7824832,9.767744,1.9165585
379,1438345025589,-1.738789,9.76954,1.9357121
380,1438345025604,-1.7764976,9.807847,1.9668367
381,1438345025625,-1.8902222,9.716867,1.9997569
382,1438345025647,-1.8662802,9.6288805,2.011728
383,1438345025664,-1.7657237,9.67018,1.9806033
384,1438345025686,-1.6663644,9.737218,1.9608512
385,1438345025711,-1.6118963,9.778519,2.0099323
386,1438345025785,-1.5526398,9.796474,2.0368671
387,1438345025786,-1.5053543,9.828198,2.0470424
388,1438345025787,-1.4999673,9.807847,2.0685902
389,1438345025788,-1.5005659,9.878476,2.0847511
390,1438345025804,-1.5173253,9.956886,2.134431
391,1438345025824,-1.5771804,9.937733,2.179322
392,1438345025844,-1.6041151,9.90601,2.1643584
393,1438345025864,-1.6783354,9.877279,2.147599
394,1438345025896,-1.7118542,9.898827,2.0817583
395,1438345025907,-1.7232267,9.861717,2.095525
396,1438345025925,-1.7489643,9.830592,2.0691888
397,1438345025945,-1.7675194,9.865308,2.0320787
398,1438345025964,-1.7914615,9.880272,1.9829975
399,1438345025985,-1.8579005,9.891046,1.9363106
400,1438345026015,-1.8662802,9.843162,1.9231426
401,1438345026025,-1.8375498,9.7324295,1.9177556
402,1438345026047,-1.8106151,9.603143,1.7788919
403,1438345026069,-1.7405846,9.574412,1.5693992
404,1438345026087,-1.678934,9.58818,1.4772224
405,1438345026104,-1.5580268,9.610924,1.3066356
406,1438345026125,-1.4143747,9.778519,1.1827357
407,1438345026145,-1.2671312,9.975441,1.1887212
408,1438345026171,-1.1139023,10.107721,1.2234371
409,1438345026185,-0.93972415,10.284293,1.2940661
410,1438345026205,-0.830788,10.360908,1.3706805
411,1438345026227,-0.66738373,10.411186,1.4431051
412,1438345026245,-0.4249708,10.356718,1.5729905
413,1438345026267,-0.21667525,10.295666,1.7304093
414,1438345026286,0.09995792,10.161591,1.893215
415,1438345026306,0.52971715,10.028712,2.023699
416,1438345026326,1.0073603,9.99639,2.0177135
417,1438345026346,1.2060791,9.960478,2.0488381
418,1438345026367,1.1887212,10.045472,1.9913772
419,1438345026385,1.0546459,10.120291,1.8854338
420,1438345026407,0.9068039,10.123283,1.7848774
