id,attr_time,attr_x,attr_y,attr_z
1,1436466716622,-0.03848451,-0.010079277,0.028710667
2,1436466716623,-0.034513887,-0.0106901415,0.024740042
3,1436466716624,-0.032375857,-0.0009162979,0.027488936
4,1436466716643,-0.03390302,-0.00030543262,0.02076942
5,1436466716656,-0.040011674,-0.004886922,0.024129177
6,1436466716676,-0.03940081,-0.008246681,0.02443461
7,1436466716696,-0.03176499,0.015882496,0.009162978
8,1436466716716,-0.027183503,0.03970624,0.007941248
9,1436466716737,-0.02321288,0.035124753,0.02321288
10,1436466716757,-0.032070424,0.020463986,0.034208454
11,1436466716778,-0.027794369,0.020463986,0.022602014
12,1436466716797,-0.02443461,0.03359759,0.010079277
13,1436466716818,-0.022296581,0.05131268,0.002443461
14,1436466716839,-0.018325957,0.0729984,-0.005497787
15,1436466716859,-0.019242255,0.08277224,-0.0030543262
16,1436466716883,-0.016187929,0.077579886,0.006414085
17,1436466716898,-0.018020526,0.08002335,0.0106901415
18,1436466716916,-0.017715093,0.086437434,-0.0009162979
19,1436466716939,-0.015577064,0.0842994,-0.0036651916
20,1436466716956,-0.015271631,0.076358154,0.0012217305
21,1436466716979,-0.01038471,0.06566802,-0.004276057
22,1436466716997,-0.014966198,0.058643065,-0.0067195175
23,1436466717019,-0.015271631,0.053450707,-0.011301007
24,1436466717040,-0.017104227,0.049785517,-0.010079277
25,1436466717059,-0.01160644,0.04886922,-0.006414085
26,1436466717105,-0.01160644,0.03634648,-0.0030543262
27,1436466717106,-0.012217305,0.018936822,-0.0021380284
28,1436466717117,-0.017715093,-0.0061086523,0.008552114
29,1436466717139,-0.018325957,-0.013744468,0.0076358155
30,1436466717161,-0.019242255,-0.011301007,0.00580322
31,1436466717182,-0.018325957,-0.013439035,0.0027488936
32,1436466717197,-0.026572637,-0.022602014,0.008552114
33,1436466717217,-0.02565634,-0.040011674,-0.0033597588
34,1436466717236,-0.02076942,-0.030543262,-0.0076358155
35,1436466717258,-0.018936822,-0.028099801,0.0030543262
36,1436466717277,-0.027794369,-0.01863139,0.009468411
37,1436466717349,-0.05222898,-0.004581489,0.0143553335
38,1436466717361,-0.129198,0.015882496,0.064751714
39,1436466717362,-0.21074851,0.051923547,0.129198
40,1436466717363,-0.26083946,0.11575896,0.20952678
41,1436466717377,-0.3735441,0.17134771,0.38881573
42,1436466717402,-0.52442783,0.43371433,0.56199604
43,1436466717431,-0.6606508,0.8762862,0.7431176
44,1436466717437,-0.73945236,1.2965615,0.8142834
45,1436466717458,-0.7724391,1.6187929,0.84207773
46,1436466717483,-0.84391034,1.5430456,1.0323622
47,1436466717498,-0.8772025,1.1939361,1.1841623
48,1436466717519,-0.88697636,0.8536842,1.2067643
49,1436466717540,-0.8857546,0.59406644,1.2144
50,1436466717559,-0.84574294,0.4990769,1.2305881
51,1436466717580,-0.8518516,0.43157628,1.2476922
52,1436466717600,-0.8961393,0.42302418,1.2696834
53,1436466717618,-0.8958339,0.5204572,1.3045027
54,1436466717640,-0.86651236,0.5842926,1.3158038
55,1436466717660,-0.8035932,0.58032197,1.2867876
56,1436466717680,-0.743423,0.58123827,1.221425
57,1436466717698,-0.6609562,0.62949663,1.144456
58,1436466717720,-0.5448918,0.72021013,1.0931433
59,1436466717743,-0.27122417,0.79168135,0.9868528
60,1436466717758,0.098043874,0.79473567,0.8051204
61,1436466717780,0.41141775,0.6469063,0.54367006
62,1436466717800,0.5720753,0.4147775,0.2443461
63,1436466717818,0.5739079,0.15760323,0.09407325
64,1436466717838,0.49357912,-0.011911872,0.04642576
65,1436466717859,0.42210788,-0.15515977,0.13133603
66,1436466717883,0.35735616,-0.21746802,0.20463985
67,1436466717898,0.24648413,-0.3903429,0.08246681
68,1436466717917,0.129198,-0.8194757,-0.18020524
69,1436466717939,-0.09712757,-1.3139712,-0.8042041
70,1436466717960,-0.44073927,-2.1209242,-1.7589865
71,1436466718067,-0.79901177,-2.957504,-2.1685717
72,1436466718068,-0.6994407,-3.0925052,-1.743104
73,1436466718069,-0.14080444,-1.9715676,-1.0592403
74,1436466718070,-0.009468411,0.031154128,-0.77091193
75,1436466718071,-0.35246924,1.2073752,-0.9221011
76,1436466718090,-0.64873886,1.5228871,-1.0784826
77,1436466718307,-0.5354234,1.4208726,-0.8081747
78,1436466718308,-0.2125811,1.2788464,-0.37048978
79,1436466718309,-0.11484267,0.9841039,-0.36651915
80,1436466718310,-0.1301143,0.6429357,-0.5296202
81,1436466718311,-0.101098195,0.5345071,-0.52748215
82,1436466718312,-0.030543262,0.55863625,-0.29352075
83,1436466718313,0.22571471,0.67073005,0.16554448
84,1436466718314,0.32742378,0.89675015,0.691194
85,1436466718315,0.10842858,1.2159272,1.0784826
86,1436466718316,-0.10476339,1.4175128,1.1328496
87,1436466718317,-0.30695978,1.353372,0.7883216
88,1436466718421,-0.13897185,1.039998,0.14446963
89,1436466718422,0.4886922,0.6774496,-0.21502456
90,1436466718423,0.9505063,0.15241088,-0.14477506
91,1436466718424,1.2495248,-0.49021935,-0.0012217305
92,1436466718425,1.2034045,-0.84788096,0.118202426
93,1436466718426,1.0781772,-1.185384,0.064446285
94,1436466718452,0.8940013,-1.4385877,-0.15118915
95,1436466718458,0.6032294,-1.7944167,-0.34269542
96,1436466718478,0.12980886,-1.9538525,-0.58459806
97,1436466718496,-0.21166481,-1.6377298,-1.0668762
98,1436466718521,-0.15943582,-0.9560041,-1.1722504
99,1436466718536,0.090713486,-0.67011917,-0.27550024
100,1436466718556,0.18784106,-0.014049901,0.070249505
101,1436466718577,-0.053450707,0.14385876,0.571159
102,1436466718596,-0.2125811,-0.005497787,0.8854492
103,1436466718620,-0.38087448,0.21991149,0.85062987
104,1436466718639,-0.5907067,0.39400807,0.8313876
105,1436466718656,-0.72692966,0.5421429,0.840856
106,1436466718676,-0.6985244,1.0198395,0.86009824
107,1436466718701,-0.7266242,1.6108516,0.7583892
108,1436466718718,-0.5213735,1.6914859,0.3707952
109,1436466718739,-0.20799962,0.8900307,0.17256944
110,1436466718758,-0.036957346,-0.07696902,0.22082779
111,1436466718776,-0.0143553335,-0.99265605,0.27091873
112,1436466718799,0.018325957,-0.79168135,0.20708331
113,1436466718816,0.076052725,0.05955936,0.0027488936
114,1436466718836,0.14844026,0.6020077,-0.18112154
115,1436466718861,0.32436943,0.8530733,-0.40408736
116,1436466718877,0.54550266,0.32834008,-0.45020768
117,1436466718897,0.63346726,-0.61361414,-0.3475823
118,1436466718919,0.6243043,-1.3344351,-0.2434298
119,1436466718941,0.58459806,-1.6887369,-0.099571034
120,1436466718959,0.5925393,-2.0161607,-0.025350908
121,1436466718984,0.58184916,-2.2773056,-0.08124508
122,1436466719001,0.54183745,-2.441323,-0.29077184
123,1436466719022,0.4636467,-2.36863,-0.52931476
124,1436466719040,0.10873401,-2.172237,-0.98563105
125,1436466719061,-0.64996064,-1.8408424,-1.9080375
126,1436466719081,-1.2702943,-1.8005253,-2.649628
127,1436466719101,-0.7837401,-1.4364496,-1.7690657
128,1436466719122,0.2883284,0.50701815,-0.5177083
129,1436466719140,0.40622538,1.890628,0.32711834
130,1436466719161,-0.20677789,1.2452488,0.6078109
131,1436466719181,-0.46853364,0.14935656,0.87689704
132,1436466719200,-0.453262,-0.08368854,1.063211
133,1436466719221,-0.44868052,0.09285152,1.1038336
134,1436466719242,-0.35796702,0.7800749,1.1206323
135,1436466719260,-0.12980886,1.6215417,1.1246029
136,1436466719280,0.035124753,2.0204368,1.1148291
137,1436466719300,0.13713925,1.7705929,1.2253957
138,1436466719321,0.094989546,1.1102476,1.3762794
139,1436466719341,-0.10598512,0.5494733,1.2831224
140,1436466719361,-0.3145956,0.5170974,1.0076222
141,1436466719379,-0.42302418,1.1407908,0.61269784
142,1436466719397,-0.35063666,1.4327844,-0.112399206
143,1436466719430,-0.026572637,0.91965765,-0.5821546
144,1436466719437,0.20158553,-0.2452624,-0.72326446
145,1436466719458,0.3417791,-1.212262,-0.6649268
146,1436466719490,0.42730024,-1.681712,-0.6001751
147,1436466719502,0.4896085,-1.8267925,-0.605062
148,1436466719518,0.5186246,-1.9120082,-0.7324274
149,1436466719540,0.5180137,-1.8258762,-0.97402465
150,1436466719560,0.44318274,-1.5085317,-1.208597
151,1436466719584,0.06505715,-1.2330315,-1.4834863
152,1436466719599,-0.91690874,-0.88056225,-1.7617353
153,1436466719624,-1.8469511,-0.52381694,-2.5607471
154,1436466719639,-1.1884383,-1.210124,-1.3521502
155,1436466719662,-0.13408493,-0.61758476,-0.33658674
156,1436466719683,0.14110987,-0.004886922,0.35735616
157,1436466719702,-0.36254853,0.41447207,0.50426924
158,1436466719722,-0.6411031,0.26847526,0.6453791
159,1436466719743,-0.5152648,-0.009468411,0.7852673
160,1436466719762,-0.32620203,0.2134974,0.7110472
161,1436466719782,-0.3463606,0.86406887,0.47036624
162,1436466719803,-0.51251596,1.4691309,0.27977628
163,1436466719824,-0.3921755,1.8808541,0.20738874
164,1436466719839,-0.23182335,1.8817704,0.23487769
165,1436466719862,-0.29016098,1.5262468,0.27977628
166,1436466719882,-0.47983465,0.55955255,0.33108896
167,1436466719902,-0.61850107,-0.22052236,0.16829337
168,1436466719922,-0.5158757,-0.66767573,-0.32375857
169,1436466719942,0.06963864,-1.1530081,-0.54275376
170,1436466719961,0.79504114,-1.4926492,-0.42363504
171,1436466719982,1.135293,-1.5858061,-0.10873401
172,1436466720002,1.0549643,-1.0002918,0.16279559
173,1436466720023,1.0259482,-0.033292156,0.28955013
174,1436466720043,1.0250319,0.5751296,0.36377025
175,1436466720064,1.0073168,0.977079,0.3231477
176,1436466720082,0.9682214,0.8915578,0.087659165
177,1436466720103,0.83108217,0.53023106,-0.25686884
178,1436466720172,0.4288274,0.16829337,-0.5103779
179,1436466720173,-0.79045963,-0.040927973,-1.1191051
180,1436466720174,-1.3836098,-0.79290307,-1.366811
181,1436466720179,-0.18600847,-2.1285598,0.21777347
182,1436466720202,0.398895,-1.0464121,1.0485502
183,1436466720221,0.10170906,-0.32925636,1.536937
184,1436466720239,-0.55741453,0.7657196,1.3274102
185,1436466720262,-0.65393126,1.1774428,1.1472049
186,1436466720279,-0.42394048,1.3570372,1.0225884
187,1436466720300,-0.2501493,1.4950926,0.9416488
188,1436466720323,-0.17287487,1.4975362,0.89552844
189,1436466720341,-0.11056661,1.2351695,0.75655663
190,1436466720365,-0.14996742,0.79809546,0.51343226
191,1436466720383,-0.20005837,0.3894266,0.37018433
192,1436466720403,-0.20738874,0.12644911,0.3210097
193,1436466720423,-0.06536258,-0.10873401,0.10873401
194,1436466720443,0.15271631,-0.23640485,-0.23396139
195,1436466720463,0.50976706,-0.6731735,-0.453262
196,1436466720486,0.6713409,-1.2608259,-0.54641896
197,1436466720499,0.66553766,-1.457219,-0.6392705
198,1436466720523,0.6426302,-1.3622295,-0.6597345
199,1436466720545,0.6563747,-1.0445796,-0.5907067
200,1436466720560,0.6808093,-0.6630942,-0.5729916
201,1436466720583,0.7031059,-0.3313944,-0.659429
202,1436466720602,0.5705481,-0.1386664,-0.86284715
203,1436466720621,0.023823744,-0.029626964,-1.07665
204,1436466720642,-1.1181889,-0.0015271631,-1.5021176
205,1436466720663,-1.7715092,-0.34025195,-2.2308798
206,1436466720683,-0.88117313,-1.9016235,-0.9896017
207,1436466720703,0.29046643,-1.674687,0.28221974
208,1436466720723,0.18997909,-0.9324858,0.8588765
209,1436466720742,-0.3680463,0.21135938,1.1258247
210,1436466720761,-0.47861293,0.9126327,1.1334605
211,1436466720781,-0.22174409,1.235475,0.95814216
212,1436466720803,0.100792766,1.4498887,0.8527679
213,1436466720825,0.25961772,1.7024814,0.93462384
214,1436466720879,0.21227567,1.9214766,1.0219775
215,1436466720880,0.15393804,2.1300871,0.91324353
216,1436466720891,0.0070249503,2.463314,0.68019843
217,1436466720900,-0.17928895,2.1239784,0.43004912
218,1436466720929,-0.2687807,1.1044444,0.100792766
219,1436466720943,-0.14477506,-0.07788532,-0.07696902
220,1436466720960,0.14385876,-0.8918633,0.070249505
221,1436466720981,0.37048978,-1.7287487,0.45631635
222,1436466721000,0.50701815,-1.9376645,0.6267477
223,1436466721022,0.6426302,-1.5851953,0.5311473
224,1436466721044,0.7415904,-1.105666,0.42302418
225,1436466721062,0.79229224,-0.6933321,0.21899518
226,1436466721083,0.7602218,-0.03023783,-0.13988814
227,1436466721103,0.5665775,0.50335294,-0.6575964
228,1436466721123,0.11301007,0.5861252,-1.1722504
229,1436466721143,-0.9016371,0.5766568,-2.357329
230,1436466721163,-1.3454307,-0.05589417,-2.6062565
231,1436466721184,-0.050701816,-1.7406605,-1.054048
232,1436466721203,0.17806722,-2.0738876,0.5479461
233,1436466721224,-0.076358154,-2.1731532,1.135904
234,1436466721244,-0.44898596,-1.1960741,1.0064005
235,1436466721265,-0.6612616,0.116980694,0.6026186
236,1436466721284,-0.4428773,1.2027937,0.59803706
237,1436466721304,-0.16493362,2.3463335,0.7134906
238,1436466721322,-0.07849618,2.8429668,0.8546005
239,1436466721341,-0.33536503,2.8206704,0.84238315
240,1436466721361,-0.6203337,1.9297233,0.8051204
241,1436466721386,-0.6105598,0.5036584,0.84849185
242,1436466721406,-0.39736784,-0.38789943,0.8790351
243,1436466721427,-0.25259277,-0.8518516,0.7693848
244,1436466721444,-0.2275473,-1.5091426,0.22876903
245,1436466721462,0.09773844,-1.6310102,-0.3323107
246,1436466721481,0.4092797,-1.486846,-0.61727935
247,1436466721501,0.6035349,-1.5008959,-0.61850107
248,1436466721523,0.66920286,-1.4248432,-0.5045747
249,1436466721541,0.79534656,-1.0952814,-0.5403103
250,1436466721593,0.93615097,-0.82253003,-0.7874053
251,1436466721594,1.0005972,-0.7507534,-1.070236
252,1436466721610,0.9761627,-0.70738196,-1.4376713
253,1436466721622,0.4297437,-0.7012733,-1.7935003
254,1436466721644,-0.9419542,-0.8216137,-2.6700919
255,1436466721661,-1.4269812,-1.6960673,-2.6798658
256,1436466721681,-0.28344148,-2.3057108,-1.5045611
257,1436466721703,0.56321776,-1.5870279,-0.18570304
258,1436466721722,0.25961772,-1.3329079,0.6282749
259,1436466721742,-0.21135938,-0.7620544,1.1169671
260,1436466721762,-0.2574797,1.07665,1.210124
261,1436466721784,-0.118202426,2.4743097,1.1902709
262,1436466721804,0.15393804,3.3053918,1.4123205
263,1436466721824,0.29229903,3.4687984,1.4453071
264,1436466721841,0.21166481,3.1597004,1.1658363
265,1436466721864,0.064751714,2.4443772,1.03786
266,1436466721884,-0.18112154,1.6798794,1.1673635
267,1436466721904,-0.43127087,0.62949663,1.4724907
268,1436466721924,-0.6044512,0.099265605,1.509448
269,1436466721944,-0.58368176,-0.26083946,1.0601566
270,1436466721964,-0.410196,-0.7348709,0.52687126
271,1436466721982,-0.24923302,-1.353372,-0.09407325
272,1436466722002,-0.15790866,-1.6178766,-0.44043383
273,1436466722024,-0.027488936,-1.5763378,-0.58184916
274,1436466722044,0.096516706,-1.4001031,-0.63499445
275,1436466722063,0.25259277,-1.2705997,-0.68539083
276,1436466722083,0.31123585,-1.1612549,-0.7593055
277,1436466722104,0.23732115,-1.1725558,-0.8668178
278,1436466722124,-0.04337143,-1.2614367,-1.0329732
279,1436466722144,-0.52290064,-1.2287555,-1.3811663
280,1436466722165,-1.6438384,-1.1994339,-2.287385
281,1436466722184,-1.6728544,-2.162463,-1.1936307
282,1436466722204,0.11301007,-0.47311515,0.19975294
283,1436466722224,0.42546764,1.679574,0.88270026
284,1436466722244,-0.15577064,1.9343048,1.0824533
285,1436466722268,-0.7318166,0.8491027,0.7788532
286,1436466722342,-0.4034765,0.1591304,0.8029824
287,1436466722343,-0.0018325958,-0.004581489,0.5849035
288,1436466722344,0.1554652,0.45020768,0.45478916
289,1436466722345,0.27397305,0.8338311,0.48349985
290,1436466722365,0.3930918,1.0262536,0.7504479
291,1436466722387,0.32436943,0.86345804,1.0726794
292,1436466722402,-0.0015271631,0.52503866,1.2348641
293,1436466722422,-0.38056904,0.46975538,1.1753048
294,1436466722445,-0.46853364,0.6924158,0.48624873
295,1436466722462,-0.007941248,0.43157628,-0.51007247
296,1436466722483,0.47708577,-0.28710666,-1.2745703
297,1436466722503,0.5549711,-0.8445212,-1.4779885
298,1436466722525,0.4831944,-1.0403035,-1.1924089
299,1436466722545,0.5137377,-1.1517864,-0.6435465
300,1436466722565,0.625526,-1.2443326,-0.34788775
301,1436466722585,0.6603453,-1.4761559,-0.34391713
302,1436466722605,0.5705481,-1.7647897,-0.4972443
303,1436466722625,0.30573806,-1.88849,-0.7675522
304,1436466722645,-0.087964594,-1.9181169,-0.9960158
305,1436466722665,-0.71959925,-1.7427986,-1.3252722
306,1436466722685,-1.502423,-1.4239268,-2.094046
307,1436466722705,-1.8710803,-1.68385,-2.3032675
308,1436466722727,-0.076358154,-1.2443326,-0.4428773
309,1436466722742,0.47128254,0.91415983,0.6640105
310,1436466722765,0.10751228,0.6246097,1.0705414
311,1436466722784,-0.19639318,0.13713925,1.1560625
312,1436466722804,-0.087659165,1.0763446,1.2757921
313,1436466722823,0.1591304,2.559831,1.2932017
314,1436466722846,0.33567044,3.0928106,1.3567317
315,1436466722868,0.31673363,2.8780916,1.3988814
316,1436466722885,0.1600467,2.2809708,1.4633276
317,1436466722905,-0.009773844,1.3720033,1.5070046
318,1436466722924,-0.22174409,0.6835582,1.5763378
319,1436466722944,-0.41355577,0.13927728,1.5485435
320,1436466722964,-0.42271876,-0.31306845,1.2431108
321,1436466722985,-0.17654006,-0.7452556,0.43860126
322,1436466723008,0.14508049,-1.2932017,-0.43493605
323,1436466723084,0.26236662,-1.427592,-1.0219775
324,1436466723085,0.2764165,-1.0830641,-1.1606439
325,1436466723086,0.32467487,-0.5564982,-1.0595458
326,1436466723087,0.46181414,-0.25442538,-0.87964594
327,1436466723104,0.5992588,-0.09010262,-0.79351395
328,1436466723125,0.58093286,-0.2950479,-0.84879726
329,1436466723142,0.41508293,-0.8268061,-0.93767816
330,1436466723166,-0.0852157,-1.239751,-1.0015136
331,1436466723183,-1.0106765,-1.5085317,-1.3460416
332,1436466723203,-2.0677788,-1.4828753,-2.2339342
333,1436466723225,-1.4095715,-1.922393,-1.2305881
334,1436466723244,-0.17898351,0.54611355,-0.3051272
335,1436466723265,0.2452624,2.1212296,0.44165558
336,1436466723286,-0.11026118,2.162463,0.7874053
337,1436466723306,-0.33169982,1.2944235,0.93737274
338,1436466723326,-0.13836098,1.321607,1.1417072
339,1436466723358,0.12370021,1.4657712,1.2501358
340,1436466723362,0.19792034,1.9269744,1.2116512
341,1436466723383,0.16676621,2.1499403,1.2959507
342,1436466723404,0.13591751,1.8796324,1.4840971
343,1436466723423,0.09315695,1.4123205,1.63437
344,1436466723443,-0.36254853,1.1172725,1.8191566
345,1436466723463,-0.6429357,1.2599095,1.350623
346,1436466723483,-0.52595496,1.6948457,0.13255776
347,1436466723503,-0.027488936,1.0543534,-0.84391034
348,1436466723523,0.571159,0.024129177,-1.1957687
349,1436466723543,0.79443026,-1.2647965,-1.2000448
350,1436466723563,0.754724,-2.1557434,-0.8741482
351,1436466723583,0.589485,-2.4507914,-0.6026186
352,1436466723604,0.473726,-2.325564,-0.5161811
353,1436466723623,0.41080686,-2.123673,-0.5488624
354,1436466723643,0.34147367,-1.6801848,-0.74281216
355,1436466723663,0.18081611,-1.2541064,-0.98349303
356,1436466723690,-0.14110987,-0.93951076,-1.0809261
357,1436466723703,-0.5546656,-0.59131753,-1.1468995
358,1436466723723,-1.4715744,-0.21838433,-1.7244726
359,1436466723743,-1.4477507,-0.069027774,-1.9996674
360,1436466723786,-0.17928895,-0.3726278,-0.34116822
361,1436466723787,0.23671028,1.2260065,0.42149702
362,1436466723808,0.029321533,1.042747,0.7644979
363,1436466723823,-0.16737708,0.094989546,0.44806966
364,1436466723843,0.10842858,0.63224554,0.33261612
365,1436466723863,0.27152961,1.5106697,0.27214047
366,1436466723883,0.2938262,2.2525656,0.27672195
367,1436466723903,0.24129178,2.4718661,0.4550946
368,1436466723925,0.22968534,2.2122486,0.6963864
369,1436466723943,0.31398472,1.6310102,0.71868294
370,1436466723963,0.28496864,1.0928379,0.38881573
371,1436466723985,0.0061086523,0.5946773,-0.20830505
372,1436466724004,-0.024740042,-0.71929383,-0.7870999
373,1436466724023,0.21655174,-1.8011361,-1.0235047
374,1436466724044,0.3359759,-2.687807,-0.4886922
375,1436466724061,0.26236662,-2.8747318,0.25992316
376,1436466724086,0.49571714,-2.3970351,0.7593055
377,1436466724106,0.8378017,-1.3451253,0.64965516
378,1436466724123,0.999681,-0.41599923,0.34972036
379,1436466724142,1.0253373,0.12644911,0.03573562
380,1436466724162,0.9279043,0.4560109,-0.10140363
381,1436466724182,0.66156703,0.48716503,-0.106901415
382,1436466724202,0.21930063,0.32589662,-0.0693332
383,1436466724222,-0.5882632,0.041233405,-0.18906279
384,1436466724242,-1.3747523,-0.3023783,-0.58184916
385,1436466724263,-1.8536706,-0.7635816,-1.3341297
386,1436466724283,-1.0711522,-1.9364429,-0.5479461
387,1436466724306,-0.28099802,-1.1181889,0.28344148
388,1436466724327,-0.3744604,-0.25992316,0.786489
389,1436466724345,-0.45051312,0.12461651,1.078788
390,1436466724363,-0.1695151,0.50701815,1.2959507
391,1436466724382,-0.010995574,1.2684617,1.0216721
392,1436466724403,0.01160644,1.4724907,0.77396625
