id,attr_time,attr_x,attr_y,attr_z
1,1436291534812,-0.00580322,0.02076942,-0.027488936
2,1436291534860,-0.016493361,0.031154128,-0.020463986
3,1436291534861,-0.011301007,0.02565634,-0.01985312
4,1436291534879,-0.009468411,0.027794369,-0.021685716
5,1436291534892,-0.011911872,0.026572637,-0.015577064
6,1436291534913,-0.014049901,0.023823744,-0.021685716
7,1436291534932,-0.0143553335,0.028405234,-0.021685716
8,1436291534952,-0.010079277,0.02687807,-0.022296581
9,1436291534971,-0.0076358155,0.029321533,-0.021685716
10,1436291534991,-0.009162978,0.025350908,-0.023518313
11,1436291535011,-0.0076358155,0.022602014,-0.028099801
12,1436291535031,-0.013439035,0.032070424,-0.023518313
13,1436291535051,-0.009162978,0.028405234,-0.014049901
14,1436291535072,-0.010079277,0.026267206,-0.013133603
15,1436291535094,-0.011911872,0.027183503,-0.022296581
16,1436291535112,-0.013133603,0.02687807,-0.02443461
17,1436291535131,-0.013439035,0.029932396,-0.019547688
18,1436291535152,-0.0076358155,0.032375857,-0.024740042
19,1436291535175,-0.007330383,0.02687807,-0.021991149
20,1436291535191,-0.014049901,0.024129177,-0.017104227
21,1436291535213,-0.006414085,0.026572637,-0.025961773
22,1436291535233,-0.008552114,0.027488936,-0.025045475
23,1436291535252,-0.01282817,0.028710667,-0.020463986
24,1436291535272,-0.011911872,0.027794369,-0.015271631
25,1436291535292,-0.013744468,0.021991149,-0.020463986
26,1436291535312,-0.008552114,0.028099801,-0.022296581
27,1436291535331,-0.0067195175,0.030848695,-0.031154128
28,1436291535353,-0.010079277,0.027183503,-0.020158553
29,1436291535372,-0.0143553335,0.030543262,-0.0106901415
30,1436291535396,-0.014660766,0.021380283,-0.017715093
31,1436291535425,-0.0125227375,0.026267206,-0.022602014
32,1436291535433,-0.012217305,0.034208454,-0.023823744
33,1436291535452,-0.013133603,0.032375857,-0.018325957
34,1436291535473,-0.009162978,0.023518313,-0.022296581
35,1436291535495,-0.014966198,0.024740042,-0.016798794
36,1436291535512,-0.023823744,0.029321533,-0.018020526
37,1436291535533,-0.008857546,0.027794369,-0.016493361
38,1436291535553,-0.010079277,0.02687807,-0.015577064
39,1436291535573,-0.017104227,0.027183503,-0.016493361
40,1436291535597,-0.01038471,0.03176499,-0.014660766
41,1436291535616,-0.016798794,0.030848695,-0.018936822
42,1436291535635,-0.003970624,0.035430185,-0.02107485
43,1436291535656,-0.011911872,0.02443461,-0.02443461
44,1436291535676,-0.015271631,0.028099801,-0.020158553
45,1436291535696,-0.009468411,0.025961773,-0.020158553
46,1436291535716,-0.010995574,0.026267206,-0.018936822
47,1436291535736,-0.015882496,0.028405234,-0.017104227
48,1436291535755,-0.01282817,0.026572637,-0.016798794
49,1436291535776,-0.0061086523,0.027488936,-0.013439035
50,1436291535793,-0.013133603,0.028099801,-0.016798794
51,1436291535815,-0.015577064,0.03023783,-0.015882496
52,1436291535836,-0.01282817,0.029626964,-0.017715093
53,1436291535853,-0.012217305,0.03023783,-0.014966198
54,1436291535874,-0.0125227375,0.027794369,-0.016798794
55,1436291535895,-0.017104227,0.028099801,-0.015577064
56,1436291535917,-0.009773844,0.027488936,-0.0067195175
57,1436291535933,-0.011911872,0.028710667,-0.0027488936
58,1436291535953,-0.013744468,0.025961773,-0.0027488936
59,1436291535973,-0.011301007,0.02565634,-0.02107485
60,1436291535998,-0.016798794,0.032070424,-0.009468411
61,1436291536014,-0.0125227375,0.03023783,-0.005192355
62,1436291536036,-0.014049901,0.027794369,-0.004886922
63,1436291536054,-0.018020526,0.022296581,-0.013744468
64,1436291536125,-0.014049901,0.025045475,-0.017715093
65,1436291536126,-0.016798794,0.03145956,-0.016187929
66,1436291536127,-0.018020526,0.03359759,-0.017104227
67,1436291536139,-0.015882496,0.029932396,-0.01740966
68,1436291536153,-0.017104227,0.032986723,-0.01740966
69,1436291536179,-0.010079277,0.027488936,-0.015577064
70,1436291536193,-0.013439035,0.027488936,-0.008246681
71,1436291536215,-0.009773844,0.032070424,-0.009162978
72,1436291536235,-0.008552114,0.026267206,-0.010079277
73,1436291536254,-0.00580322,0.021685716,-0.017715093
74,1436291536274,-0.0036651916,0.01985312,-0.028710667
75,1436291536295,-0.008857546,0.0290161,-0.016187929
76,1436291536316,-0.011911872,0.02076942,-0.0106901415
77,1436291536333,-0.009162978,0.017715093,-0.013439035
78,1436291536357,-0.0125227375,0.027488936,-0.017715093
79,1436291536376,-0.010079277,0.029932396,-0.014660766
80,1436291536396,-0.0009162979,0.02687807,-0.01863139
81,1436291536416,-0.009468411,0.032986723,-0.0143553335
82,1436291536436,-0.0061086523,0.02565634,-0.011911872
83,1436291536456,-0.003970624,0.03145956,-0.008857546
84,1436291536476,-0.00580322,0.030848695,-0.01863139
85,1436291536496,0.0,0.026572637,-0.01740966
86,1436291536514,-0.0070249503,0.03145956,-0.019242255
87,1436291536536,-0.010995574,0.027794369,-0.018936822
88,1436291536556,-0.0125227375,0.031154128,-0.018936822
89,1436291536575,-0.011301007,0.021380283,-0.023518313
90,1436291536595,-0.008857546,0.023518313,-0.0290161
91,1436291536615,-0.018020526,0.03023783,-0.027183503
92,1436291536637,-0.018325957,0.03268129,-0.021380283
93,1436291536658,-0.015577064,0.033292156,-0.0125227375
94,1436291536677,-0.015271631,0.025350908,-0.009773844
95,1436291536696,-0.012217305,0.027488936,-0.011301007
96,1436291536716,-0.017715093,0.027183503,-0.0076358155
97,1436291536735,-0.017104227,0.025350908,-0.0106901415
98,1436291536756,-0.01863139,0.029321533,-0.01282817
99,1436291536775,-0.014049901,0.021685716,-0.01740966
100,1436291536846,-0.014049901,0.019547688,-0.029321533
101,1436291536847,-0.0036651916,0.021380283,-0.034208454
102,1436291536848,-0.010995574,0.025045475,-0.028710667
103,1436291536861,-0.0070249503,0.024129177,-0.028405234
104,1436291536873,-0.00580322,0.02443461,-0.02687807
105,1436291536903,-0.005192355,0.025350908,-0.025350908
106,1436291536916,-0.014049901,0.022296581,-0.020463986
107,1436291536934,-0.007941248,0.025045475,-0.022907447
108,1436291536956,-0.011301007,0.03359759,-0.01863139
109,1436291536974,-0.014049901,0.030543262,-0.008552114
110,1436291536994,-0.008857546,0.026572637,-0.019547688
111,1436291537014,-0.007941248,0.035430185,-0.025961773
112,1436291537040,0.00030543262,0.03390302,-0.01985312
113,1436291537055,0.0015271631,0.026572637,-0.016798794
114,1436291537077,-0.003970624,0.026267206,-0.02687807
115,1436291537097,0.0009162979,0.025350908,-0.035124753
116,1436291537117,-0.006414085,0.03726278,-0.028710667
117,1436291537137,-0.0061086523,0.03176499,-0.018936822
118,1436291537157,-0.01038471,0.028710667,-0.010079277
119,1436291537177,-0.009162978,0.030848695,-0.011911872
120,1436291537197,-0.01863139,0.03023783,-0.0070249503
121,1436291537217,-0.009773844,0.028099801,-0.0143553335
122,1436291537237,-0.017104227,0.025045475,-0.014966198
123,1436291537256,-0.014049901,0.019242255,-0.016187929
124,1436291537274,-0.014966198,0.021991149,-0.017104227
125,1436291537297,-0.009468411,0.021685716,-0.01863139
126,1436291537314,-0.0076358155,0.025045475,-0.019547688
127,1436291537334,-0.005497787,0.019242255,-0.021991149
128,1436291537354,-0.0033597588,0.018325957,-0.027488936
129,1436291537379,-0.0021380284,0.019547688,-0.027794369
130,1436291537399,0.002443461,0.023518313,-0.030543262
131,1436291537420,-0.007330383,0.02443461,-0.024129177
132,1436291537437,-0.0021380284,0.02107485,-0.026267206
133,1436291537454,-0.00061086525,0.025045475,-0.029932396
134,1436291537474,-0.005192355,0.023518313,-0.025961773
135,1436291537494,-0.00030543262,0.024740042,-0.028710667
136,1436291537516,-0.0030543262,0.019242255,-0.021685716
137,1436291537538,-0.003970624,0.0290161,-0.019242255
138,1436291537606,-0.007941248,0.0290161,-0.015882496
139,1436291537607,-0.008552114,0.026267206,-0.018325957
140,1436291537608,-0.008857546,0.022602014,-0.016187929
141,1436291537614,-0.005497787,0.03176499,-0.014049901
142,1436291537635,-0.0070249503,0.029321533,-0.030848695
143,1436291537657,-0.004886922,0.021380283,-0.031154128
144,1436291537674,-0.004276057,0.02076942,-0.031154128
145,1436291537694,-0.0070249503,0.027794369,-0.01740966
146,1436291537718,-0.0070249503,0.022907447,-0.013439035
147,1436291537736,-0.0125227375,0.019242255,-0.02107485
148,1436291537755,-0.004276057,0.022296581,-0.029321533
149,1436291537776,-0.005192355,0.027488936,-0.024740042
150,1436291537795,-0.010079277,0.022907447,-0.011911872
151,1436291537818,-0.011911872,0.022907447,-0.01863139
152,1436291537837,-0.0033597588,0.022907447,-0.033292156
153,1436291537858,-0.005192355,0.026267206,-0.034208454
154,1436291537878,-0.005192355,0.025961773,-0.02321288
155,1436291537898,-0.010995574,0.024129177,-0.014049901
156,1436291537916,-0.009468411,0.01863139,-0.013133603
157,1436291537935,-0.012217305,0.021380283,-0.025045475
158,1436291537956,-0.005192355,0.024129177,-0.027794369
159,1436291537975,-0.004276057,0.027488936,-0.027794369
160,1436291538003,-0.00030543262,0.025045475,-0.02107485
161,1436291538021,-0.008552114,0.01863139,-0.018325957
162,1436291538039,-0.0012217305,0.027488936,-0.025961773
163,1436291538063,0.0021380284,0.026267206,-0.03604105
164,1436291538097,0.0015271631,0.021991149,-0.031154128
165,1436291538098,0.004581489,0.019547688,-0.025045475
166,1436291538115,-0.004886922,0.021380283,-0.018325957
167,1436291538135,-0.009468411,0.019242255,-0.01863139
168,1436291538178,0.0,0.017104227,-0.029321533
169,1436291538179,0.0,0.022602014,-0.03268129
170,1436291538195,0.0033597588,0.022907447,-0.027183503
171,1436291538307,-0.0036651916,0.021685716,-0.019242255
172,1436291538308,-0.004886922,0.015882496,-0.021380283
173,1436291538309,0.0070249503,0.01985312,-0.034208454
174,1436291538310,0.00030543262,0.02321288,-0.035124753
175,1436291538311,0.0027488936,0.027183503,-0.029321533
176,1436291538341,-0.0012217305,0.025961773,-0.021991149
177,1436291538342,0.002443461,0.020463986,-0.024129177
178,1436291538355,0.0015271631,0.022296581,-0.029321533
179,1436291538375,0.0,0.024129177,-0.03634648
180,1436291538395,-0.0015271631,0.02076942,-0.03023783
181,1436291538428,-0.0021380284,0.021991149,-0.024740042
182,1436291538435,-0.005497787,0.023518313,-0.026572637
183,1436291538455,0.0,0.027183503,-0.03481932
184,1436291538474,-0.0027488936,0.021685716,-0.03604105
185,1436291538496,-0.009773844,0.021685716,-0.025045475
186,1436291538515,-0.012217305,0.01985312,-0.02443461
187,1436291538534,-0.010079277,0.02321288,-0.024129177
188,1436291538554,-0.01160644,0.01985312,-0.023823744
189,1436291538575,-0.014966198,0.014660766,-0.021991149
190,1436291538599,-0.0143553335,0.019547688,-0.020158553
191,1436291538614,-0.016493361,0.02443461,-0.020158553
192,1436291538637,-0.006414085,0.025961773,-0.025045475
193,1436291538654,-0.003970624,0.026572637,-0.024740042
194,1436291538677,-0.008246681,0.02107485,-0.020463986
195,1436291538696,-0.003970624,0.018325957,-0.02443461
196,1436291538719,-0.0076358155,0.025350908,-0.02565634
197,1436291538739,-0.0021380284,0.016798794,-0.028099801
198,1436291538759,0.0027488936,0.014966198,-0.03268129
199,1436291538777,0.004581489,0.019547688,-0.030848695
200,1436291538799,0.0027488936,0.024740042,-0.027794369
201,1436291538814,-0.0036651916,0.02565634,-0.02443461
202,1436291538834,0.0021380284,0.020158553,-0.025350908
203,1436291538855,0.0018325958,0.025350908,-0.026572637
204,1436291538877,-0.002443461,0.03268129,-0.02565634
205,1436291538899,-0.0018325958,0.0290161,-0.018936822
206,1436291538917,-0.004581489,0.02687807,-0.02076942
207,1436291538949,-0.011911872,0.01985312,-0.025350908
208,1436291538976,-0.007330383,0.021685716,-0.02107485
209,1436291538980,-0.005497787,0.023518313,-0.021380283
210,1436291539005,-0.011301007,0.023518313,-0.018936822
211,1436291539015,-0.0076358155,0.025045475,-0.02443461
212,1436291539036,-0.004276057,0.025961773,-0.025961773
213,1436291539059,-0.0106901415,0.022907447,-0.016187929
214,1436291539076,-0.008246681,0.030543262,-0.0143553335
215,1436291539103,-0.012217305,0.028405234,-0.017104227
216,1436291539121,-0.0076358155,0.02565634,-0.01863139
217,1436291539136,-0.017104227,0.029932396,-0.013133603
218,1436291539157,-0.0076358155,0.025961773,-0.016493361
219,1436291539177,-0.009162978,0.029321533,-0.01985312
220,1436291539199,-0.012217305,0.029321533,-0.020463986
221,1436291539217,-0.013133603,0.02321288,-0.017715093
222,1436291539238,-0.0143553335,0.023823744,-0.021685716
223,1436291539256,-0.008552114,0.029321533,-0.028710667
224,1436291539276,-0.004886922,0.028099801,-0.02565634
225,1436291539296,-0.0033597588,0.02107485,-0.0290161
226,1436291539316,-0.0009162979,0.02076942,-0.029321533
227,1436291539338,-0.0061086523,0.017104227,-0.026572637
228,1436291539357,-0.005497787,0.021991149,-0.032070424
229,1436291539378,-0.007330383,0.022602014,-0.034513887
230,1436291539399,-0.0033597588,0.022907447,-0.027488936
231,1436291539419,-0.007941248,0.02321288,-0.01740966
232,1436291539438,-0.005192355,0.015271631,-0.02687807
233,1436291539456,-0.0033597588,0.016798794,-0.03176499
234,1436291539479,-0.0076358155,0.029932396,-0.021685716
235,1436291539499,-0.006414085,0.030848695,-0.022907447
236,1436291539519,-0.0021380284,0.022907447,-0.03176499
237,1436291539539,-0.0067195175,0.02443461,-0.03176499
238,1436291539559,-0.008552114,0.022602014,-0.03634648
239,1436291539580,-0.008857546,0.02687807,-0.03359759
240,1436291539596,-0.0067195175,0.027183503,-0.03726278
241,1436291539617,-0.005192355,0.016187929,-0.04734206
242,1436291539637,-0.014660766,0.03481932,-0.065973446
243,1436291539708,-0.03145956,0.041233405,-0.076358154
244,1436291539709,-0.04428773,0.051618114,-0.06780604
245,1436291539710,-0.058948494,0.047036625,-0.06352998
246,1436291539727,-0.077579886,0.053145275,-0.047036625
247,1436291539736,-0.08246681,0.05375614,-0.052534413
248,1436291539756,-0.086437434,0.055588737,-0.04550946
249,1436291539776,-0.10445796,0.06780604,-0.026572637
250,1436291539796,-0.11484267,0.076358154,-0.018936822
251,1436291539818,-0.12583824,0.08155051,-0.013133603
252,1436291539836,-0.14385876,0.077579886,-0.018020526
253,1436291539857,-0.15790866,0.08827003,-0.0106901415
254,1436291539883,-0.17348573,0.09896017,-0.002443461
255,1436291539897,-0.18692477,0.10140363,0.009468411
256,1436291539917,-0.19303341,0.105374254,0.021991149
257,1436291539938,-0.1957823,0.10781772,0.042455133
258,1436291539960,-0.21044308,0.12186762,0.030848695
259,1436291539980,-0.21624629,0.08124508,0.01282817
260,1436291540000,-0.22174409,0.10842858,-0.013744468
261,1436291540020,-0.2049453,0.09132435,-0.048563786
262,1436291540040,-0.19211712,0.07544186,-0.08979719
263,1436291540060,-0.19028452,0.006414085,-0.119729586
264,1436291540080,-0.17837265,-0.035124753,-0.15485434
265,1436291540100,-0.16707164,0.00061086525,-0.17745635
266,1436291540123,-0.16401732,0.064751714,-0.16493362
267,1436291540140,-0.15882497,0.08460484,-0.14966199
268,1436291540163,-0.14110987,0.052534413,-0.15088372
269,1436291540177,-0.12186762,0.084910266,-0.11728613
270,1436291540202,-0.110872045,0.070249505,-0.07422013
271,1436291540220,-0.10354166,0.06505715,-0.023518313
272,1436291540237,-0.10048734,0.054061573,-0.009468411
273,1436291540256,-0.090713486,0.02321288,-0.020158553
274,1436291540277,-0.095294975,0.06047566,-0.02107485
275,1436291540304,-0.09621128,0.07941248,-0.030848695
276,1436291540317,-0.086132,0.028710667,-0.039095376
277,1436291540338,-0.07513642,-0.020463986,-0.05497787
278,1436291540359,-0.06414085,-0.02565634,-0.053450707
279,1436291540381,-0.06047566,0.004886922,-0.03604105
280,1436291540434,-0.062002823,0.02076942,-0.020463986
281,1436291540435,-0.062308256,0.03756821,0.00580322
282,1436291540438,-0.051618114,0.064446285,0.042760566
283,1436291540458,-0.046731193,0.06078109,0.076358154
284,1436291540477,-0.047036625,0.06505715,0.12095132
285,1436291540498,-0.034513887,0.03604105,0.13683382
286,1436291540517,-0.015882496,0.021991149,0.1328632
287,1436291540537,-0.011301007,0.050701816,0.1337795
288,1436291540557,-0.049480084,0.026267206,0.19761491
289,1436291540579,-0.0693332,0.082161374,0.27458394
290,1436291540598,-0.079107046,0.13103059,0.41355577
291,1436291540618,-0.10445796,0.11362094,0.56688297
292,1436291540639,-0.11148291,0.007330383,0.66523224
293,1436291540659,-0.080634214,-0.06780604,0.8078693
294,1436291540680,-0.050396383,-0.06352998,0.8695667
295,1436291540700,-0.02321288,-0.004276057,0.86284715
296,1436291540720,0.0076358155,0.04550946,0.7703011
297,1436291540741,0.023823744,0.11056661,0.6844745
298,1436291540761,0.06841691,0.1423316,0.56382865
299,1436291540781,0.15241088,-0.26297748,0.6026186
300,1436291540798,0.226631,-0.9230174,0.5375614
301,1436291540821,0.23182335,-1.3014483,0.34238997
302,1436291540847,0.21135938,-1.3048081,0.20647246
303,1436291540858,0.1853976,-1.2574661,0.018020526
304,1436291540881,0.16676621,-1.1175779,-0.21777347
305,1436291540899,0.15577064,-0.91996306,-0.41722095
306,1436291540919,0.16187929,-0.8341365,-0.6450737
307,1436291540938,0.16829337,-0.84574294,-0.8857546
308,1436291540958,0.17898351,-0.8903361,-1.0488557
309,1436291540981,0.1591304,-0.93218035,-1.2629639
310,1436291541001,0.115453534,-0.9639453,-1.4731015
311,1436291541018,0.0870483,-0.89827734,-1.6288722
312,1436291541039,0.03268129,-0.84757555,-1.7754798
313,1436291541060,-0.029626964,-0.82711154,-1.8952094
314,1436291541078,-0.086132,-0.80756384,-1.9428569
315,1436291541099,-0.16249016,-0.8020661,-1.9410243
316,1436291541126,-0.21471913,-0.86315256,-1.9214766
317,1436291541207,-0.24465153,-0.8897252,-1.9501873
318,1436291541208,-0.27580565,-0.8194757,-1.9083431
319,1436291541209,-0.29443705,-0.7669413,-1.7486018
320,1436291541210,-0.30909783,-0.893085,-1.5720617
321,1436291541218,-0.31429017,-0.80481493,-1.4880677
322,1436291541241,-0.28313604,-0.573297,-1.314582
323,1436291541258,-0.2507602,-0.39584067,-1.1438452
324,1436291541278,-0.23579398,-0.20005837,-1.0311406
325,1436291541298,-0.19211712,-0.014966198,-0.7877107
326,1436291541320,-0.13836098,0.03145956,-0.5030475
327,1436291541342,-0.09560041,0.030543262,-0.2648101
328,1436291541362,-0.021685716,0.05589417,0.1518
329,1436291541378,0.10567969,-0.039095376,0.5766568
330,1436291541401,0.2742785,-0.111177474,1.1917981
331,1436291541422,0.22296582,-0.07941248,1.3732251
332,1436291541440,0.12339478,0.23457226,0.73364913
333,1436291541461,0.33750305,2.5418103,1.9529362
334,1436291541482,0.5897904,-0.21838433,2.0109684
335,1436291541500,0.5180137,-1.0619892,1.3255776
336,1436291541521,0.42485678,-0.17104226,0.97005403
337,1436291541542,0.4636467,0.022602014,0.9138544
338,1436291541560,0.41783184,0.19486602,0.88789266
339,1436291541580,0.42332962,0.16187929,0.56199604
340,1436291541599,0.41783184,0.40958515,0.54458636
341,1436291541620,0.47342056,0.4392121,0.6951646
342,1436291541638,0.41386122,0.13225232,0.6728681
343,1436291541658,0.32406402,0.1432479,0.56321776
344,1436291541678,0.26267207,0.2706133,0.52412236
345,1436291541703,0.23426682,0.19608775,0.5329799
346,1436291541727,0.22571471,0.106595986,0.5186246
347,1436291541739,0.20586158,0.105068825,0.4990769
348,1436291541760,0.1740966,0.1908954,0.5729916
349,1436291541778,0.14905111,0.20097467,0.6026186
350,1436291541798,0.11575896,0.22357668,0.65576386
351,1436291541818,0.09468412,0.27091873,0.6976081
352,1436291541841,0.09773844,0.26206118,0.6783658
353,1436291541909,0.09254608,0.3378085,0.69974613
354,1436291541910,0.09010262,0.3576616,0.7733554
355,1436291541911,0.03573562,0.31215215,0.8060367
356,1436291541928,-0.01160644,0.34391713,0.8552113
357,1436291541938,-0.008246681,0.3549127,0.92149025
358,1436291541964,0.004276057,0.37384954,0.98746365
359,1436291541982,0.004276057,0.41599923,1.1010846
360,1436291541998,-0.004581489,0.42546764,1.2990049
361,1436291542038,-0.016493361,0.44776422,1.570229
362,1436291542039,-0.019547688,0.3848451,1.8209893
363,1436291542060,-0.10842858,0.2434298,2.1917844
364,1436291542080,-0.267559,-0.0021380284,2.519819
365,1436291542101,-0.376293,-0.07544186,2.742785
366,1436291542119,-0.30390546,0.06811147,2.9449813
367,1436291542141,-0.21105394,0.52442783,2.9321532
368,1436291542161,-0.14966199,1.3607023,3.1590896
