id,attr_time,attr_x,attr_y,attr_z
1,1436293824008,9.925163,-0.14544775,0.19931729
2,1436293824027,9.938332,-0.24779987,0.25258827
3,1436293824051,9.936536,-0.3196259,0.30945057
4,1436293824069,9.936536,-0.24540567,0.22924481
5,1436293824090,9.91798,-0.14664486,0.1933318
6,1436293824111,9.952098,-0.16879122,0.19812019
7,1436293824128,9.941922,-0.24720132,0.1921347
8,1436293824147,9.943718,-0.28550854,0.2148796
9,1436293824167,9.974244,-0.27353755,0.30885202
10,1436293824187,9.932345,-0.18794483,0.22924481
11,1436293824207,9.834782,-0.1448492,0.207697
12,1436293824227,9.924564,-0.14065935,0.23642741
13,1436293824249,10.056845,-0.21308395,0.26515785
14,1436293824270,10.002377,-0.25857377,0.24779987
15,1436293824290,9.900024,-0.2100912,0.30705637
16,1436293824308,9.820416,-0.19273324,0.30346507
17,1436293824330,9.892242,-0.17357962,0.24480712
18,1436293824349,9.999383,-0.18495208,0.27712885
19,1436293824369,10.018537,-0.17298107,0.29747957
20,1436293824391,9.928156,-0.19752164,0.29508537
21,1436293824410,9.8916445,-0.20829555,0.26635495
22,1436293824461,9.946113,-0.16460137,0.27353755
23,1436293824462,9.977836,-0.16759412,0.29328972
24,1436293824468,9.954493,-0.18136078,0.31603462
25,1436293824489,9.898827,-0.20470424,0.34237084
26,1436293824519,9.903615,-0.18974048,0.2645593
27,1436293824570,9.953894,-0.15741876,0.272939
28,1436293824571,9.967062,-0.18315643,0.37588966
29,1436293824572,9.950901,-0.18255788,0.36272156
30,1436293824587,9.879673,-0.1604115,0.25318682
31,1436293824608,9.935339,-0.1328782,0.22146365
32,1436293824628,9.972448,-0.17417817,0.3309984
33,1436293824647,9.967062,-0.23044191,0.40222588
34,1436293824667,9.939528,-0.21068975,0.39564183
35,1436293824687,9.89344,-0.18555063,0.35434186
36,1436293824708,9.905411,-0.1933318,0.32621
37,1436293824729,9.982624,-0.22625206,0.30107087
38,1436293824751,9.959281,-0.17477672,0.3477578
39,1436293824774,9.938332,-0.16998832,0.39743748
40,1436293824790,9.873688,-0.16639702,0.3812766
41,1436293824809,9.862315,-0.19033903,0.34955344
42,1436293824829,9.9712515,-0.16579847,0.30226797
43,1436293824851,9.980229,-0.15263036,0.31004912
44,1436293824871,9.94312,-0.18555063,0.3597288
45,1436293824890,9.903017,-0.21428105,0.38187516
46,1436293824909,9.909601,-0.17597382,0.3878607
47,1436293824929,9.959281,-0.13826515,0.37828386
48,1436293824952,9.94312,-0.14185645,0.374094
49,1436293824968,9.949105,-0.18016368,0.35793316
50,1436293824988,9.973047,-0.15143326,0.36152446
51,1436293825008,9.911396,-0.12449849,0.39624038
52,1436293825028,9.888652,-0.17477672,0.41479546
53,1436293825051,9.946711,-0.18255788,0.39624038
54,1436293825071,9.949704,-0.15981296,0.42197806
55,1436293825091,9.925761,-0.12330139,0.3633201
56,1436293825110,9.932944,-0.16101007,0.40821138
57,1436293825135,9.900622,-0.23822308,0.38486794
58,1436293825151,9.944916,-0.22385786,0.4141969
59,1436293825240,9.983223,-0.19752164,0.48003745
60,1436293825241,9.908403,-0.13826515,0.41359833
61,1436293825242,9.860519,-0.108337626,0.3441665
62,1436293825243,9.935937,-0.11192893,0.3842694
63,1436293825249,9.9712515,-0.20171149,0.43275195
64,1436293825267,9.948506,-0.2693477,0.47285482
65,1436293825287,9.894038,-0.25318682,0.46567222
66,1436293825307,9.870695,-0.14784196,0.4429273
67,1436293825328,9.965864,-0.13227965,0.4321534
68,1436293825348,9.951499,-0.17058687,0.42556936
69,1436293825368,9.936536,-0.18495208,0.46686932
70,1436293825390,9.886257,-0.16400282,0.492607
71,1436293825411,9.914988,-0.19033903,0.49799395
72,1436293825432,9.986216,-0.20171149,0.45489833
73,1436293825451,9.983821,-0.16938977,0.46148238
74,1436293825472,9.87668,-0.15682021,0.4758476
75,1436293825490,9.810242,-0.17597382,0.46746787
76,1436293825511,9.890448,-0.19273324,0.48003745
77,1436293825530,9.9712515,-0.19512744,0.51355624
78,1436293825550,9.913791,-0.16519992,0.49320555
79,1436293825571,9.883265,-0.11252748,0.4985925
80,1436293825590,9.8916445,-0.142455,0.48602295
81,1436293825610,9.959879,-0.19871874,0.4369418
82,1436293825629,9.983821,-0.19393034,0.44951138
83,1436293825649,9.932944,-0.13826515,0.4878186
84,1436293825669,9.857527,-0.1316811,0.43993455
85,1436293825689,9.877877,-0.142455,0.39145198
86,1436293825710,9.946113,-0.18794483,0.39205053
87,1436293825729,10.00477,-0.20530279,0.40102878
88,1436293825750,10.019734,-0.1933318,0.3597288
89,1436293825774,9.901819,-0.23283611,0.4357447
90,1436293825805,9.847352,-0.27114335,0.5189432
91,1436293825842,9.910199,-0.25498247,0.50517654
92,1436293825843,10.014347,-0.24301147,0.28072014
93,1436293825854,10.000581,-0.20829555,0.27353755
94,1436293825871,9.957485,-0.22625206,0.39624038
95,1436293825888,9.890448,-0.25677812,0.45070848
96,1436293825908,9.891046,-0.26755205,0.5081693
97,1436293825929,9.944916,-0.23044191,0.42556936
98,1436293825949,9.918579,-0.2148796,0.36152446
99,1436293825969,9.873688,-0.2801216,0.28550854
100,1436293825991,9.89344,-0.33159694,0.30825347
101,1436293826013,10.027515,-0.35254622,0.4249708
102,1436293826031,9.968858,-0.23702596,0.33159694
103,1436293826050,9.87668,-0.18854338,0.26755205
104,1436293826072,9.937733,-0.22266077,0.35793316
105,1436293826092,9.934141,-0.3250129,0.362123
106,1436293826110,9.916783,-0.30107087,0.38965634
107,1436293826153,9.848549,-0.2765303,0.32680854
108,1436293826154,9.817424,-0.33279404,0.20649989
109,1436293826169,9.916184,-0.42556936,0.047285482
110,1436293826188,10.038289,-0.29149407,0.18016368
111,1436293826208,10.052654,-0.14425065,0.40641573
112,1436293826230,9.973646,-0.14185645,0.44532153
113,1436293826249,9.881469,-0.15023616,0.4297592
114,1436293826269,9.828796,-0.20530279,0.29149407
115,1436293826291,9.838972,-0.23523031,0.27952304
116,1436293826314,9.925163,-0.25318682,0.28790274
117,1436293826343,10.059837,-0.24061728,0.36272156
118,1436293826350,10.016742,-0.22505496,0.31184477
119,1436293826369,9.829395,-0.22864626,0.19931729
120,1436293826392,9.812037,-0.24839842,0.15981296
121,1436293826417,9.982624,-0.24600422,0.26874915
122,1436293826429,10.02572,-0.2172738,0.2741361
123,1436293826449,9.901221,-0.20649989,0.13467385
124,1436293826470,9.882666,-0.18914193,0.19033903
125,1436293826510,9.928156,-0.21428105,0.2908955
126,1436293826511,9.968858,-0.25857377,0.2633622
127,1436293826531,9.902418,-0.27952304,0.142455
128,1436293826549,9.961076,-0.22864626,0.08080431
129,1436293826570,10.014946,-0.24779987,0.095768064
130,1436293826591,9.94312,-0.29568392,0.09995792
131,1436293826609,9.90601,-0.3238158,0.16101007
132,1436293826631,9.879673,-0.29807812,0.18315643
133,1436293826649,9.835381,-0.18974048,0.15741876
134,1436293826670,9.883863,-0.16699557,0.16879122
135,1436293826737,10.002377,-0.24540567,0.19273324
136,1436293826738,10.000581,-0.31304187,0.25139117
137,1436293826739,9.864111,-0.32621,0.25079262
138,1436293826758,9.837176,-0.30107087,0.17657238
139,1436293826769,9.980828,-0.23463176,0.17956513
140,1436293826790,10.043676,-0.21428105,0.18195933
141,1436293826814,9.930551,-0.25139117,0.20470424
142,1436293826829,9.879673,-0.29508537,0.19572599
143,1436293826851,9.923966,-0.2669535,0.22565351
144,1436293826870,9.909002,-0.22325931,0.22565351
145,1436293826891,9.935339,-0.23582886,0.2160767
146,1436293826913,9.966463,-0.24540567,0.22685061
147,1436293826931,9.950901,-0.35553896,0.25079262
148,1436293826950,9.923966,-0.3728969,0.26994625
149,1436293826970,9.910798,-0.3238158,0.20829555
150,1436293826991,9.89763,-0.25378537,0.16400282
151,1436293827042,9.922769,-0.2681506,0.24301147
152,1436293827043,9.972448,-0.3172317,0.24600422
153,1436293827081,9.916783,-0.29867667,0.2100912
154,1436293827082,9.953295,-0.21308395,0.17717093
155,1436293827137,10.005967,-0.23642741,0.2753332
156,1436293827138,10.007165,-0.39983168,0.31364042
157,1436293827139,9.952098,-0.51834464,0.3633201
158,1436293827149,9.868899,-0.39803603,0.31423897
159,1436293827190,9.8515415,-0.29987377,0.22146365
160,1436293827191,9.946711,-0.320823,0.17836803
161,1436293827210,9.991004,-0.3669114,0.1604115
162,1436293827230,9.975441,-0.3752911,0.25617957
163,1436293827249,9.928755,-0.30286652,0.2645593
164,1436293827269,9.877279,-0.23942018,0.24301147
165,1436293827289,9.911396,-0.24001873,0.21547815
166,1436293827309,9.990405,-0.25438392,0.2753332
167,1436293827329,9.991004,-0.29448682,0.3429694
168,1436293827349,9.937733,-0.35194764,0.3333926
169,1436293827369,9.916783,-0.3274071,0.2885013
170,1436293827389,9.870695,-0.3405752,0.34476504
171,1436293827409,9.933543,-0.2861071,0.3824737
172,1436293827429,10.02572,-0.30107087,0.35913026
173,1436293827449,9.954493,-0.34117374,0.31423897
174,1436293827469,9.83957,-0.35913026,0.32202014
175,1436293827490,9.87668,-0.33638534,0.34476504
176,1436293827510,9.988011,-0.30885202,0.3824737
177,1436293827531,10.02153,-0.24540567,0.40821138
178,1436293827551,9.925761,-0.29688102,0.40342298
179,1436293827572,9.923966,-0.34835634,0.36631286
180,1436293827593,9.945514,-0.38845924,0.3728969
181,1436293827611,9.980229,-0.34715924,0.45848963
182,1436293827631,9.956287,-0.3298013,0.55605334
183,1436293827651,9.838373,-0.362123,0.44891283
184,1436293827671,9.833585,-0.3333926,0.32142156
185,1436293827690,9.991602,-0.26994625,0.36391866
186,1436293827714,10.019734,-0.28670564,0.47165772
187,1436293827767,9.940127,-0.39145198,0.5021838
188,1436293827768,9.84795,-0.41958386,0.47524905
189,1436293827773,9.891046,-0.35553896,0.40462008
190,1436293827790,9.9951935,-0.27114335,0.47465047
191,1436293827812,10.019734,-0.30526072,0.52732295
192,1436293827831,9.989208,-0.3513491,0.56802434
193,1436293827852,9.865907,-0.41240123,0.5422867
194,1436293827871,9.827001,-0.3681085,0.5117606
195,1436293827891,9.879673,-0.27832595,0.5351041
196,1436293827913,9.974843,-0.2896984,0.5410896
197,1436293827936,9.928755,-0.35314476,0.5434838
198,1436293827952,9.860519,-0.3597288,0.5351041
199,1436293827971,9.894637,-0.2873042,0.55844754
200,1436293827993,9.939528,-0.26515785,0.60214174
201,1436293828013,9.8916445,-0.30526072,0.6488287
202,1436293828033,9.822212,-0.35793316,0.6931214
203,1436293828115,9.828796,-0.3309984,0.66618663
204,1436293828116,9.845556,-0.25977087,0.65182143
205,1436293828117,9.865308,-0.26396075,0.635062
206,1436293828118,9.92636,-0.3274071,0.5943606
207,1436293828130,9.929353,-0.3597288,0.516549
208,1436293828150,9.953894,-0.38486794,0.45370123
209,1436293828170,10.049063,-0.3417723,0.5470751
210,1436293828190,10.002377,-0.31124622,0.5470751
211,1436293828210,9.834782,-0.3609259,0.4357447
212,1436293828230,9.859921,-0.41359833,0.41000703
213,1436293828254,9.991602,-0.40222588,0.37469256
214,1436293828272,10.0341,-0.3812766,0.27114335
215,1436293828292,10.039486,-0.38067806,0.38367084
216,1436293828314,9.965266,-0.43514615,0.47345337
217,1436293828334,9.87668,-0.4818331,0.46447513
218,1436293828352,9.840169,-0.38067806,0.45070848
219,1436293828373,9.849746,-0.3417723,0.34237084
220,1436293828391,9.948506,-0.3842694,0.33758244
221,1436293828423,10.0748005,-0.47465047,0.37469256
222,1436293828430,10.090961,-0.45250413,0.47165772
223,1436293828450,10.020332,-0.40162733,0.46746787
224,1436293828472,9.838373,-0.3561375,0.3645172
225,1436293828490,9.841965,-0.3854665,0.46208093
226,1436293828510,9.921572,-0.4213795,0.46746787
227,1436293828530,9.917382,-0.42078096,0.41958386
228,1436293828550,9.88925,-0.34715924,0.34117374
229,1436293828570,9.927557,-0.29628247,0.33399114
230,1436293828595,9.980828,-0.35254622,0.28431144
231,1436293828611,9.908403,-0.43873745,0.2765303
232,1436293828631,9.841366,-0.44951138,0.30107087
233,1436293828651,9.873089,-0.39683893,0.35673606
234,1436293828672,9.982025,-0.33399114,0.38606504
235,1436293828691,9.9790325,-0.37229836,0.30107087
236,1436293828712,9.912594,-0.39743748,0.25917232
237,1436293828734,9.930551,-0.3716998,0.31663316
238,1436293828752,9.986216,-0.3345897,0.3842694
239,1436293828776,9.956886,-0.3417723,0.29149407
240,1436293828796,9.789292,-0.39923313,0.32561144
241,1436293828814,9.854534,-0.46806642,0.39983168
242,1436293828834,9.982624,-0.4165911,0.4141969
243,1436293828853,9.964667,-0.3286042,0.28431144
244,1436293828873,9.922171,-0.30645782,0.29328972
245,1436293828894,9.964069,-0.39145198,0.39205053
246,1436293828913,9.900622,-0.45789108,0.320823
247,1436293828935,9.782109,-0.39683893,0.30286652
248,1436293828954,9.822811,-0.3573346,0.22026655
249,1436293828974,10.029311,-0.3657143,0.107739076
250,1436293828993,10.152014,-0.3788824,0.23283611
251,1436293829052,10.007165,-0.43754035,0.3878607
252,1436293829053,9.902418,-0.44352585,0.42437226
253,1436293829061,9.901221,-0.39264908,0.41299978
254,1436293829080,9.86471,-0.29867667,0.40581718
255,1436293829092,9.861717,-0.2693477,0.43514615
256,1436293829115,9.866506,-0.3417723,0.320823
257,1436293829132,9.883863,-0.4794389,0.31543607
258,1436293829151,9.9928,-0.48003745,0.36990416
259,1436293829171,9.991602,-0.42796355,0.39803603
260,1436293829192,9.8754835,-0.41180268,0.31004912
261,1436293829212,9.845556,-0.3866636,0.31364042
262,1436293829232,9.96766,-0.35254622,0.3333926
263,1436293829253,10.037092,-0.3681085,0.3716998
264,1436293829273,9.936536,-0.4165911,0.34356794
265,1436293829295,9.870695,-0.4213795,0.32441434
266,1436293829315,9.987412,-0.41120413,0.24121583
267,1436293829335,10.084976,-0.36272156,0.24660277
268,1436293829355,10.032304,-0.3573346,0.35673606
269,1436293829374,9.782109,-0.37469256,0.44592008
270,1436293829393,9.750985,-0.46327803,0.46866497
271,1436293829414,9.996989,-0.43155485,0.57640404
272,1436293829434,10.024523,-0.32680854,0.3465607
273,1436293829453,9.952098,-0.21787235,0.2220622
274,1436293829473,9.915586,-0.29388827,0.26036942
275,1436293829497,9.895236,-0.4830302,0.36032736
276,1436293829517,9.850943,-0.52852005,0.44951138
277,1436293829533,9.829993,-0.3788824,0.4345476
278,1436293829555,9.970653,-0.24600422,0.4141969
279,1436293829573,10.048465,-0.29568392,0.42796355
280,1436293829594,9.946113,-0.41958386,0.35194764
281,1436293829614,9.829395,-0.45370123,0.320823
282,1436293829634,9.909002,-0.45729253,0.31064767
283,1436293829695,10.032902,-0.38187516,0.3609259
284,1436293829696,9.999982,-0.34237084,0.43514615
285,1436293829706,9.857527,-0.3878607,0.49440265
286,1436293829712,9.845556,-0.4782418,0.34237084
287,1436293829732,9.9712515,-0.49320555,0.3597288
288,1436293829752,9.969456,-0.42916065,0.3669114
289,1436293829772,9.923966,-0.3309984,0.2885013
290,1436293829793,9.8754835,-0.3345897,0.23882163
291,1436293829816,9.946711,-0.40701428,0.31064767
292,1436293829834,10.007763,-0.37349546,0.36032736
293,1436293829854,9.928755,-0.29149407,0.36152446
294,1436293829876,9.856929,-0.30526072,0.36152446
295,1436293829897,9.935937,-0.4369418,0.31603462
296,1436293829916,10.070012,-0.4914099,0.33518824
297,1436293829934,9.909601,-0.42317516,0.30166942
298,1436293829954,9.715671,-0.3573346,0.2861071
299,1436293829975,9.733028,-0.36272156,0.27353755
300,1436293829996,9.972448,-0.41359833,0.39085343
301,1436293830014,10.074203,-0.36032736,0.37828386
302,1436293830033,9.97604,-0.28790274,0.23283611
303,1436293830055,9.929952,-0.27593175,0.17836803
304,1436293830074,9.873089,-0.39145198,0.25917232
305,1436293830096,9.935339,-0.51475334,0.3286042
306,1436293830116,9.981427,-0.4417302,0.38067806
307,1436293830138,9.931747,-0.34356794,0.40462008
308,1436293830161,9.856929,-0.36032736,0.4249708
309,1436293830176,9.870096,-0.45310268,0.3333926
310,1436293830193,10.018537,-0.45729253,0.31543607
311,1436293830213,9.974244,-0.4285621,0.320823
312,1436293830234,9.750985,-0.4309563,0.3184288
313,1436293830253,9.855133,-0.5482722,0.4938041
314,1436293830284,10.020332,-0.6991069,0.48362875
315,1436293830354,10.189124,-0.7781156,0.23942018
316,1436293830355,9.968858,-0.25438392,0.1388637
317,1436293830358,9.663596,0.2705448,0.35793316
318,1436293830359,9.624092,-0.06823475,0.4818331
319,1436293830374,9.954493,-0.6721721,0.26755205
320,1436293830394,10.355521,-0.4938041,0.12270284
321,1436293830412,10.294469,0.13347675,0.12749124
322,1436293830434,9.861118,0.2621651,0.2136825
323,1436293830454,9.566033,-0.3286042,0.26036942
324,1436293830475,9.734824,-0.6985083,0.24241292
325,1436293830496,10.110714,-0.415394,0.29747957
326,1436293830516,10.223241,0.04249708,0.19692309
327,1436293830540,10.037092,0.12689269,0.12749124
328,1436293830557,9.804854,-0.12988544,0.18674773
329,1436293830575,9.751583,-0.5177461,0.33039984
330,1436293830597,9.824008,-0.62967503,0.36391866
331,1436293830632,10.00477,-0.6194997,0.34835634
332,1436293830634,9.967062,-0.4285621,0.30047232
333,1436293830654,9.807249,-0.33159694,0.29867667
334,1436293830684,9.882068,-0.3441665,0.36391866
335,1436293830693,10.084976,-0.5033809,0.46986207
336,1436293830713,10.0664215,-0.46387658,0.42796355
337,1436293830734,9.918579,-0.30466217,0.31124622
338,1436293830753,9.927557,-0.25917232,0.18016368
339,1436293830774,9.961076,-0.29269117,0.130484
340,1436293830797,9.9712515,-0.362123,0.3645172
341,1436293830817,9.991004,-0.46866497,0.58119243
342,1436293830836,9.8994255,-0.5255273,0.59735334
343,1436293830856,9.885659,-0.4890157,0.4938041
344,1436293830876,9.829395,-0.35673606,0.5386954
345,1436293830896,9.749189,-0.30765492,0.56802434
346,1436293830916,9.801263,-0.1945289,0.46567222
347,1436293830942,10.028712,-0.20051439,0.108337626
348,1436293830998,10.131663,-0.12868834,0.13467385
349,1436293830999,10.033501,0.06584055,0.40761283
350,1436293831000,9.916184,-0.1412579,0.66379243
351,1436293831019,9.750386,-0.4417302,0.66259533
352,1436293831038,9.704897,-0.4357447,0.6368576
353,1436293831054,9.924564,-0.38726214,0.7733272
354,1436293831074,10.313622,-0.5734113,0.6476316
355,1436293831097,10.160992,-0.6775591,0.5231331
356,1436293831114,9.61272,-0.4890157,0.6847417
357,1436293831133,9.504382,-0.26994625,0.676362
358,1436293831157,10.189722,-0.17298107,0.40282443
359,1436293831177,10.214263,-0.39863458,0.40521863
360,1436293831194,10.244789,-0.4333505,0.36750996
361,1436293831214,9.930551,-0.43873745,0.43634325
362,1436293831234,9.475652,-0.36152446,0.973243
363,1436293831254,9.555259,-0.33997664,0.700304
364,1436293831274,9.848549,-0.18076223,0.29568392
365,1436293831296,10.005967,-0.08678981,0.39444473
366,1436293831317,9.999383,-0.11611878,0.6967127
367,1436293831336,9.8683,-0.2741361,0.6362591
368,1436293831357,9.753379,-0.29927522,0.44951138
369,1436293831376,9.88925,-0.2136825,0.49200845
370,1436293831395,10.101735,-0.25498247,0.5793968
371,1436293831417,10.016143,-0.42197806,0.64942724
372,1436293831437,9.725247,-0.44232875,0.8367735
373,1436293831456,9.698313,-0.35434186,0.670975
374,1436293831479,9.888652,-0.18614918,0.49559975
375,1436293831506,9.966463,-0.1412579,0.55006784
376,1436293831514,10.027515,-0.16998832,0.6410475
377,1436293831534,9.858724,-0.39324763,0.6356605
378,1436293831554,9.777321,-0.4914099,0.60333884
379,1436293831576,9.858724,-0.42676646,0.7553706
380,1436293831598,9.909002,-0.24420857,0.6931214
381,1436293831629,9.912594,-0.08319851,0.56084174
382,1436293831636,9.9928,-0.1604115,0.47165772
383,1436293831654,9.983821,-0.39743748,0.5943606
384,1436293831674,9.922769,-0.43394905,0.7015011
385,1436293831694,9.812635,-0.30885202,0.52852005
386,1436293831714,9.818622,-0.19033903,0.41299978
387,1436293831734,9.91798,-0.18255788,0.46088383
388,1436293831754,10.126276,-0.40880993,0.4950012
389,1436293831774,10.183139,-0.50158525,0.533907
390,1436293831797,10.019135,-0.29628247,0.5422867
391,1436293831816,9.913192,-0.15861586,0.5243302
392,1436293831835,9.709086,-0.09756372,0.52073884
393,1436293831857,9.784504,-0.22266077,0.5859809
394,1436293831877,9.970653,-0.2172738,0.5919664
395,1436293831897,10.019135,-0.12808979,0.5105635
396,1436293831916,9.936536,-0.13706805,0.39324763
397,1436293831936,9.918579,-0.28790274,0.41120413
398,1436293831956,9.927557,-0.40940848,0.4950012
399,1436293831977,9.889849,-0.29269117,0.5374983
400,1436293831995,9.975441,0.008379706,0.5446809
401,1436293832017,10.065224,0.17477672,0.39025488
402,1436293832036,9.982624,0.095169514,0.36152446
403,1436293832055,9.848549,-0.11372458,0.44352585
404,1436293832075,9.817424,-0.38307226,0.33758244
405,1436293832096,9.8916445,-0.5554548,0.22325931
