id,attr_time,attr_x,attr_y,attr_z
1,1436969335819,-9.47708,-2.54807,-1.25453
2,1436969335839,-9.49661,-2.49893,-1.2782
3,1436969335859,-9.49898,-2.47755,-1.25294
4,1436969335878,-9.47273,-2.48686,-1.21065
5,1436969335898,-9.46585,-2.511,-1.24281
6,1436969335918,-9.46925,-2.4716,-1.20367
7,1436969335938,-9.42897,-2.47292,-1.29041
8,1436969335958,-9.44267,-2.48849,-1.2775
9,1436969335977,-9.46771,-2.50002,-1.33475
10,1436969335997,-9.48372,-2.50739,-1.37378
11,1436969336016,-9.47307,-2.49912,-1.34644
12,1436969336037,-9.42839,-2.50232,-1.25763
13,1436969336056,-9.41681,-2.49127,-1.32843
14,1436969336074,-9.51916,-2.48267,-1.24298
15,1436969336096,-9.49501,-2.47427,-1.27283
16,1436969336135,-9.44829,-2.50383,-1.27179
17,1436969336136,-9.52237,-2.48956,-1.24437
18,1436969336175,-9.49252,-2.49493,-1.29225
19,1436969336194,-9.48642,-2.47076,-1.29688
20,1436969336215,-9.46616,-2.5188,-1.27692
21,1436969336234,-9.51668,-2.55327,-1.29326
22,1436969336254,-9.48988,-2.44881,-1.27333
23,1436969336274,-9.45245,-2.45287,-1.27626
24,1436969336292,-9.46358,-2.51776,-1.26807
25,1436969336313,-9.46176,-2.5244,-1.26344
26,1436969336333,-9.46053,-2.53058,-1.24655
27,1436969336352,-9.48296,-2.53355,-1.23199
28,1436969336373,-9.47153,-2.54646,-1.22003
29,1436969336391,-9.43495,-2.59726,-1.21387
30,1436969336412,-9.41327,-2.60043,-1.28706
31,1436969336432,-9.42993,-2.57161,-1.25627
32,1436969336451,-9.47122,-2.53871,-1.2762
33,1436969336471,-9.50085,-2.5499,-1.30167
34,1436969336491,-9.50714,-2.56779,-1.26907
35,1436969336511,-9.45587,-2.56956,-1.19719
36,1436969336531,-9.36938,-2.50829,-1.18394
37,1436969336551,-9.50191,-2.50301,-1.23618
38,1436969336569,-9.51222,-2.53023,-1.19836
39,1436969336590,-9.4973,-2.51189,-1.21992
40,1436969336609,-9.45564,-2.52168,-1.24908
41,1436969336630,-9.43947,-2.50577,-1.21715
42,1436969336649,-9.50085,-2.48991,-1.31429
43,1436969336669,-9.4835,-2.52518,-1.28685
44,1436969336688,-9.45799,-2.54814,-1.26158
45,1436969336709,-9.43593,-2.50545,-1.20843
46,1436969336728,-9.40538,-2.47472,-1.24651
47,1436969336748,-9.47833,-2.47903,-1.23918
48,1436969336768,-9.468,-2.51012,-1.27121
49,1436969336787,-9.49403,-2.50578,-1.24393
50,1436969336808,-9.4669,-2.53658,-1.23875
51,1436969336827,-9.44107,-2.5257,-1.20169
52,1436969336847,-9.4456,-2.52193,-1.18347
53,1436969336867,-9.46701,-2.52315,-1.23895
54,1436969336885,-9.51498,-2.52931,-1.25394
55,1436969336906,-9.48875,-2.55757,-1.27425
56,1436969336925,-9.46501,-2.5415,-1.28766
57,1436969336946,-9.48032,-2.5088,-1.23366
58,1436969336966,-9.4928,-2.50082,-1.20142
59,1436969336985,-9.41081,-2.53096,-1.18596
60,1436969337005,-9.43855,-2.59599,-1.22292
61,1436969337024,-9.46085,-2.57246,-1.22908
62,1436969337045,-9.41177,-2.56606,-1.26375
63,1436969337064,-9.43442,-2.5806,-1.30568
64,1436969337084,-9.48067,-2.59991,-1.2655
65,1436969337103,-9.5292,-2.6031,-1.18282
66,1436969337124,-9.52142,-2.6069,-1.17859
67,1436969337143,-9.48321,-2.59451,-1.14061
68,1436969337163,-9.52766,-2.55212,-1.14919
69,1436969337183,-9.41907,-2.58987,-1.20863
70,1436969337201,-9.49344,-2.59955,-1.31795
71,1436969337241,-9.41826,-2.67923,-1.30212
72,1436969337262,-9.30283,-2.71419,-1.37387
73,1436969337282,-9.29004,-2.83903,-1.32788
74,1436969337302,-9.27724,-3.02161,-1.29002
75,1436969337321,-9.29022,-3.14497,-1.1554
76,1436969337341,-9.34715,-3.1992,-1.05026
77,1436969337360,-9.31361,-3.69984,-1.1151
78,1436969337380,-9.12921,-3.89018,-1.23956
79,1436969337401,-9.026,-3.9977,-1.36624
80,1436969337419,-9.00655,-3.98291,-1.52185
81,1436969337440,-8.99161,-3.8226,-1.54417
82,1436969337460,-8.90399,-3.76187,-1.59782
83,1436969337480,-8.74196,-3.64516,-1.67171
84,1436969337499,-8.64151,-3.35893,-1.66721
85,1436969337517,-8.64477,-3.03545,-1.56606
86,1436969337539,-8.6879,-2.78099,-1.40028
87,1436969337557,-8.66917,-2.64815,-1.54192
88,1436969337579,-8.85594,-2.85074,-1.64928
89,1436969337598,-9.23109,-2.5253,-1.68166
90,1436969337617,-9.88916,-2.41121,-1.71506
91,1436969337638,-10.9643,-2.71277,-1.76344
92,1436969337654,-11.694,-2.53856,-1.00063
93,1436969337676,-11.566,-2.10161,-0.249573
94,1436969337695,-12.6174,-2.46806,2.32137
95,1436969337716,-9.47966,-3.60318,1.3526
96,1436969337736,-9.98877,-3.33369,0.293762
97,1436969337756,-9.12422,-3.76688,0.176315
98,1436969337775,-8.52181,-4.16434,-0.281448
99,1436969337796,-7.97852,-4.13333,-1.44057
100,1436969337814,-7.25063,-3.80713,-1.82903
101,1436969337834,-6.92523,-2.963,-1.76263
102,1436969337855,-7.07086,-2.69934,-1.3694
103,1436969337875,-7.89685,-2.62447,-0.376556
104,1436969337895,-9.24908,-2.63206,0.0105438
105,1436969337914,-10.3083,-3.12193,-1.39626
106,1436969337934,-10.8096,-2.78339,-1.14653
107,1436969337954,-11.7434,-3.17891,-1.36734
108,1436969337974,-11.3851,-3.46301,-1.62659
109,1436969337994,-10.6033,-3.41165,-1.78662
110,1436969338011,-9.16795,-3.4012,-1.55971
111,1436969338032,-8.77629,-3.03899,-1.27525
112,1436969338052,-8.048,-2.90964,-1.19118
113,1436969338073,-7.88316,-3.00104,-1.37726
114,1436969338092,-8.14256,-2.98094,-1.43445
115,1436969338112,-7.83539,-3.05099,-1.88647
116,1436969338131,-8.17607,-3.11166,-1.60806
117,1436969338152,-8.44145,-3.14777,-1.54401
118,1436969338172,-8.37831,-3.43738,-1.49309
119,1436969338191,-7.9635,-3.80893,-1.45007
120,1436969338210,-7.55148,-4.00726,-1.70091
121,1436969338250,-7.4727,-3.63052,-1.65532
122,1436969338251,-6.71982,-3.81718,-1.74886
123,1436969338270,-10.084,-3.83284,-1.19879
124,1436969338310,-11.4692,-3.61656,-1.62799
125,1436969338327,-11.6779,-3.17131,-1.87959
126,1436969338349,-13.4522,-2.81993,-1.92372
127,1436969338367,-12.5372,-2.79149,-1.96841
128,1436969338388,-10.679,-2.89728,-2.17126
129,1436969338409,-10.525,-2.54613,-2.1933
130,1436969338428,-10.1321,-2.72348,-2.05006
131,1436969338448,-8.88573,-2.79709,-1.6149
132,1436969338468,-7.59975,-2.78482,-1.3026
133,1436969338487,-7.28055,-3.02202,-1.20753
134,1436969338507,-7.47614,-3.19333,-1.2171
135,1436969338527,-7.66756,-3.22728,-1.18944
136,1436969338546,-8.14621,-3.19669,-1.28574
137,1436969338566,-8.47317,-3.18645,-1.86751
138,1436969338586,-8.33687,-3.10994,-2.24138
139,1436969338606,-9.7541,-2.98376,-1.80815
140,1436969338626,-10.2386,-2.86873,-2.03865
141,1436969338644,-10.0722,-2.59157,-2.74573
142,1436969338666,-9.76769,-2.42784,-3.13104
143,1436969338685,-9.24934,-3.26418,-2.95473
144,1436969338704,-8.90993,-4.11768,-2.64734
145,1436969338725,-8.63374,-4.4081,-2.71489
146,1436969338745,-8.41644,-4.3,-2.89946
147,1436969338764,-8.42236,-3.80156,-2.96051
148,1436969338784,-8.49512,-3.071,-3.05888
149,1436969338804,-8.6749,-2.69008,-3.07295
150,1436969338822,-8.51209,-2.60291,-2.75108
151,1436969338843,-8.64195,-2.75629,-2.85435
152,1436969338862,-9.0506,-2.90215,-2.9005
153,1436969338882,-9.09595,-2.95438,-2.87663
154,1436969338903,-9.30663,-2.97632,-2.8091
155,1436969338923,-9.51913,-2.73906,-2.66612
156,1436969338942,-9.49342,-2.36822,-2.60863
157,1436969338961,-9.41319,-1.88029,-2.58797
158,1436969338981,-9.40717,-1.79111,-2.58159
159,1436969339001,-9.49635,-1.83623,-2.50031
160,1436969339021,-9.63052,-1.97974,-2.39429
161,1436969339041,-9.49684,-2.28235,-2.38965
162,1436969339061,-9.35544,-2.40012,-1.89041
163,1436969339080,-9.92619,-2.70294,-0.304123
164,1436969339101,-10.4906,-4.31363,0.396103
165,1436969339120,-10.856,-3.94521,-0.190887
166,1436969339139,-10.6004,-2.90172,-1.57533
167,1436969339160,-9.38937,-3.04326,-2.4792
168,1436969339178,-8.80273,-3.27156,-2.86115
169,1436969339199,-8.90988,-3.00066,-2.81044
170,1436969339219,-9.06238,-3.78912,-2.71352
171,1436969339239,-9.34462,-3.77287,-2.76228
172,1436969339259,-9.50717,-3.0976,-3.04846
173,1436969339278,-9.43344,-2.61119,-3.32053
174,1436969339298,-9.43543,-2.44493,-3.31017
175,1436969339318,-9.25891,-2.379,-2.87987
176,1436969339338,-9.43288,-2.39291,-2.4677
177,1436969339377,-9.55019,-2.47787,-1.71309
178,1436969339397,-9.29791,-2.66965,-1.27061
179,1436969339416,-9.40343,-2.63133,-1.28647
180,1436969339437,-9.52666,-2.35294,-1.80084
181,1436969339455,-9.51509,-2.09003,-1.56145
182,1436969339637,-9.54224,-2.29256,-1.68787
183,1436969339638,-9.52029,-2.51602,-1.7061
184,1436969339639,-9.53174,-2.496,-1.98187
185,1436969339640,-9.37671,-2.49046,-2.25676
186,1436969339641,-9.29428,-2.35762,-2.3849
187,1436969339642,-9.14183,-2.32535,-2.37497
188,1436969339643,-9.05718,-2.24678,-2.23808
189,1436969339644,-8.94745,-2.05591,-1.96507
190,1436969339645,-9.09235,-1.65593,-1.80865
191,1436969339654,-9.13347,-1.34801,-1.70589
192,1436969339673,-9.20035,-1.26961,-1.55521
193,1436969339693,-9.44362,-1.19937,-1.32303
194,1436969339713,-9.35789,-1.43944,-1.21051
195,1436969339733,-9.3331,-1.80338,-1.24368
196,1436969339753,-9.35146,-2.11475,-1.59793
197,1436969339771,-9.49249,-2.40111,-1.84238
198,1436969339792,-9.74837,-2.54008,-1.94287
199,1436969339811,-9.82721,-2.56033,-2.02103
200,1436969339832,-10.1306,-2.30505,-2.21953
201,1436969339852,-10.1828,-2.03601,-2.00702
202,1436969339872,-9.77121,-1.83623,-1.47476
203,1436969339891,-9.60613,-1.72055,-1.075
204,1436969339910,-9.13754,-1.98552,-1.15811
205,1436969339931,-9.0069,-2.08804,-1.08119
206,1436969339950,-9.01711,-2.15929,-1.36142
207,1436969339970,-9.10725,-2.27206,-1.55847
208,1436969339989,-9.34311,-2.33041,-1.71617
209,1436969340033,-9.52766,-2.35724,-1.6731
210,1436969340034,-9.29275,-2.42384,-1.66203
211,1436969340046,-9.25178,-2.59096,-1.65829
212,1436969340073,-9.37411,-2.66277,-1.61082
213,1436969340087,-9.39577,-2.58679,-1.534
214,1436969340105,-9.38223,-2.3624,-1.43492
215,1436969340125,-9.37193,-2.14967,-1.36879
216,1436969340145,-9.42361,-2.14598,-1.35268
217,1436969340167,-9.44515,-2.16164,-1.54381
218,1436969340189,-9.62251,-2.09151,-1.67233
219,1436969340206,-9.68842,-2.01125,-1.76418
220,1436969340224,-10.0445,-1.8546,-1.85507
221,1436969340246,-9.7196,-1.9229,-1.50403
222,1436969340264,-9.42992,-2.17119,-1.45558
223,1436969340286,-9.1702,-2.16957,-1.55887
224,1436969340305,-9.11008,-2.1662,-1.72958
225,1436969340325,-9.54205,-2.04228,-2.14537
226,1436969340345,-9.76068,-2.3533,-2.00247
227,1436969340385,-9.30101,-2.33229,-1.82527
228,1436969340386,-9.08699,-1.86044,-1.95963
229,1436969340425,-9.34253,-1.88504,-1.75761
230,1436969340444,-9.32671,-1.68298,-1.74797
231,1436969340464,-9.07742,-1.52359,-1.42024
232,1436969340484,-9.17931,-1.43561,-1.47504
233,1436969340503,-9.04436,-1.52451,-1.48303
234,1436969340524,-9.61305,-1.32835,-2.17712
235,1436969340543,-10.3008,-1.07016,-2.16472
236,1436969340563,-10.1822,-1.21532,-2.14532
237,1436969340581,-9.83589,-1.41101,-1.96521
238,1436969340603,-9.65071,-1.73399,-1.78444
239,1436969340622,-9.47996,-2.02983,-1.88443
240,1436969340642,-9.38917,-2.19608,-1.97598
241,1436969340662,-9.28438,-2.26027,-1.98845
242,1436969340681,-9.20158,-2.39705,-1.98682
243,1436969340701,-8.69258,-2.52757,-2.01781
244,1436969340721,-9.52531,-2.46472,-2.01268
245,1436969340741,-9.7845,-2.21428,-2.0033
246,1436969340761,-9.65407,-1.97533,-1.94385
247,1436969340780,-9.81209,-1.89381,-2.06216
248,1436969340800,-9.78894,-1.75174,-1.87805
249,1436969340820,-9.60544,-1.75304,-1.56697
250,1436969340840,-9.69446,-1.9415,-1.53172
251,1436969340860,-9.87904,-2.17738,-1.6626
252,1436969340879,-9.5352,-2.54962,-1.67834
253,1436969340897,-9.46361,-2.82832,-1.95107
254,1436969340919,-9.22737,-2.9823,-2.18988
255,1436969340938,-9.10803,-3.04448,-2.27559
256,1436969340959,-9.1198,-3.00288,-2.27179
257,1436969340978,-9.21036,-2.74629,-2.14804
258,1436969340998,-9.19466,-2.46643,-2.15982
259,1436969341018,-9.20287,-2.30789,-2.13475
260,1436969341037,-9.39383,-2.16394,-2.07144
261,1436969341058,-9.52093,-2.09326,-1.80571
262,1436969341076,-9.67062,-1.81415,-1.61855
263,1436969341097,-9.63345,-1.72426,-1.69446
264,1436969341116,-9.41109,-1.90944,-1.94308
265,1436969341136,-9.30341,-2.26305,-2.09511
266,1436969341156,-9.15784,-2.48816,-2.03058
267,1436969341175,-9.07167,-2.67786,-2.05336
268,1436969341196,-9.35513,-2.71088,-2.1687
269,1436969341214,-9.50758,-2.48108,-2.08492
270,1436969341236,-9.2778,-2.46471,-2.04276
271,1436969341254,-9.33107,-2.48267,-2.12054
272,1436969341274,-9.39882,-2.2894,-2.10385
273,1436969341295,-9.41611,-2.168,-2.08003
274,1436969341314,-9.4521,-2.15923,-1.96176
275,1436969341334,-9.13593,-2.2101,-1.88599
276,1436969341353,-8.94484,-2.27721,-1.91182
277,1436969341373,-9.13512,-2.30083,-1.95572
278,1436969341392,-9.57234,-2.23752,-1.94954
279,1436969341411,-9.48482,-2.33768,-2.0607
280,1436969341451,-9.39432,-2.36688,-2.12851
281,1436969341452,-9.24715,-2.36656,-2.10861
282,1436969341491,-9.36313,-2.34384,-1.97279
283,1436969341512,-9.44215,-2.47299,-2.048
284,1436969341530,-9.04828,-2.6076,-2.03818
285,1436969341551,-9.26955,-2.8378,-2.13257
286,1436969341570,-9.35255,-2.91205,-2.18683
287,1436969341591,-9.40843,-2.75537,-2.43344
288,1436969341610,-9.54886,-2.53252,-2.55692
289,1436969341631,-9.5865,-2.28532,-2.39171
290,1436969341650,-9.3961,-2.16455,-2.1111
291,1436969341670,-9.28999,-2.22334,-2.15079
292,1436969341689,-9.25821,-2.29784,-2.10765
293,1436969341708,-9.27959,-2.28619,-2.20497
294,1436969341730,-9.22708,-2.38483,-2.23233
295,1436969341746,-9.24362,-2.55017,-2.22215
296,1436969341769,-9.19148,-2.72243,-2.33418
297,1436969341789,-9.05675,-2.82123,-2.39418
298,1436969341808,-9.03923,-2.70052,-2.51527
299,1436969341828,-8.93337,-2.772,-2.35449
300,1436969341848,-8.96503,-2.70441,-2.20157
301,1436969341869,-9.14902,-2.80385,-2.07924
302,1436969341887,-9.19023,-3.02289,-2.12282
303,1436969341908,-9.24643,-2.96249,-2.30688
304,1436969341926,-9.02054,-3.05495,-2.38947
305,1436969341946,-8.96455,-2.96143,-2.73624
306,1436969341967,-9.10446,-2.70493,-2.67394
307,1436969341987,-9.2524,-2.66687,-2.56349
308,1436969342006,-9.32433,-2.65472,-2.66901
309,1436969342024,-9.32187,-2.4559,-2.5952
310,1436969342045,-9.37552,-2.42194,-2.54562
311,1436969342064,-9.25168,-2.52768,-2.5255
312,1436969342085,-9.14499,-2.67294,-2.52452
313,1436969342105,-9.17653,-2.65263,-2.55539
314,1436969342124,-9.18343,-2.61076,-2.56775
315,1436969342144,-9.16898,-2.59396,-2.53258
316,1436969342164,-9.12723,-2.61938,-2.54765
317,1436969342184,-9.10745,-2.61778,-2.51712
318,1436969342203,-9.11678,-2.65346,-2.50244
319,1436969342224,-9.08929,-2.64923,-2.51285
320,1436969342242,-9.20059,-2.67068,-2.54892
321,1436969342263,-9.23503,-2.65331,-2.593
322,1436969342283,-9.1787,-2.4705,-2.61246
323,1436969342303,-9.23332,-2.55888,-2.65121
324,1436969342322,-9.2249,-2.54665,-2.71162
325,1436969342340,-9.16739,-2.56381,-2.67665
326,1436969342361,-9.16753,-2.52556,-2.67915
327,1436969342381,-9.10715,-2.51872,-2.59163
328,1436969342401,-9.12572,-2.47981,-2.62498
329,1436969342421,-9.36832,-2.47229,-2.58397
330,1436969342440,-9.57983,-2.46187,-2.54515
331,1436969342461,-9.75786,-2.49869,-2.53766
332,1436969342481,-10.0012,-2.54016,-2.66933
333,1436969342500,-9.89098,-2.47128,-2.68097
334,1436969342518,-9.7615,-2.32024,-2.56845
335,1436969342558,-9.39002,-2.24414,-2.59306
336,1436969342579,-9.27245,-2.08768,-2.39235
337,1436969342599,-9.22931,-1.78659,-1.98581
338,1436969342619,-9.31262,-1.05954,-1.13161
339,1436969342638,-9.713,-0.994614,-1.2881
340,1436969342658,-9.94014,-1.23849,-1.44545
341,1436969342678,-10.2675,-1.51291,-1.60245
342,1436969342697,-9.72119,-2.16481,-1.92181
343,1436969342718,-9.45223,-2.8261,-2.27016
344,1436969342738,-9.71756,-3.00633,-2.33859
345,1436969342757,-9.62692,-2.79732,-2.35481
346,1436969342776,-9.40224,-2.61378,-2.61789
347,1436969342797,-9.22929,-2.57979,-2.63695
348,1436969342817,-8.74245,-2.53532,-2.34619
349,1436969342835,-8.58522,-2.50555,-2.1255
350,1436969342856,-8.51025,-2.44778,-1.84392
351,1436969342874,-8.8418,-2.48874,-1.72418
352,1436969342896,-9.26083,-2.4816,-1.59187
353,1436969342915,-9.63057,-2.58504,-1.55186
354,1436969342935,-9.78565,-2.52476,-1.51688
355,1436969342955,-9.87744,-2.39264,-1.55603
356,1436969342974,-10.201,-2.3441,-1.70915
357,1436969342995,-10.1766,-2.36916,-1.70416
358,1436969343014,-9.93124,-2.25346,-1.94591
359,1436969343033,-9.69089,-2.45106,-2.0746
360,1436969343053,-8.94937,-2.3933,-1.82788
361,1436969343073,-8.88928,-2.13856,-1.86131
362,1436969343093,-9.15321,-2.06848,-1.82423
363,1436969343113,-8.89465,-2.08133,-1.93427
364,1436969343132,-8.92368,-1.83196,-1.79622
365,1436969343152,-9.02104,-1.12952,-0.951462
366,1436969343172,-9.33958,-0.678818,-0.918427
367,1436969343191,-9.59582,-1.14304,-1.07547
368,1436969343212,-9.64023,-1.33255,-1.26299
369,1436969343231,-9.81148,-1.70108,-1.43015
370,1436969343252,-9.62054,-2.14616,-1.52031
371,1436969343271,-9.55989,-2.18596,-1.48792
372,1436969343291,-9.62355,-2.20694,-1.46178
373,1436969343311,-9.71956,-1.97491,-1.35706
374,1436969343330,-9.67973,-1.82111,-1.23959
375,1436969343350,-9.7133,-1.7598,-1.21158
376,1436969343368,-9.54137,-1.72115,-1.18674
377,1436969343390,-9.6564,-1.65161,-1.20981
378,1436969343410,-9.48409,-1.6859,-1.24692
379,1436969343430,-9.46198,-1.71695,-1.3143
380,1436969343449,-9.52826,-1.73138,-1.3589
381,1436969343467,-9.49478,-1.71635,-1.27386
382,1436969343489,-9.50421,-1.7112,-1.17007
383,1436969343508,-9.4827,-1.73538,-1.15274
384,1436969343528,-9.6281,-1.75742,-1.13484
385,1436969343548,-9.63866,-1.77698,-1.13664
386,1436969343567,-9.61067,-1.78218,-1.12413
387,1436969343588,-9.62203,-1.7168,-1.16344
388,1436969343627,-9.66305,-1.62979,-1.17036
389,1436969343645,-9.67071,-1.50977,-1.20761
390,1436969343666,-9.66981,-1.43581,-1.22136
391,1436969343685,-9.72484,-1.39011,-1.25636
392,1436969343705,-9.63753,-1.37103,-1.18716
393,1436969343726,-9.67523,-1.42511,-1.26558
394,1436969343746,-9.62718,-1.46582,-1.24854
395,1436969343765,-9.6086,-1.50745,-1.20486
396,1436969343784,-9.5899,-1.55988,-1.18559
397,1436969343804,-9.60887,-1.58551,-1.22391
398,1436969343824,-9.5941,-1.64186,-1.16328
399,1436969343845,-9.56433,-1.65477,-1.0844
400,1436969343864,-9.56982,-1.69716,-1.09193
401,1436969343884,-9.5511,-1.73784,-1.08453
402,1436969343903,-9.62077,-1.74622,-1.08287
403,1436969343924,-9.67578,-1.63147,-1.00516
404,1436969343943,-9.55688,-1.52263,-1.21654
405,1436969343961,-9.66466,-1.53073,-1.31401
406,1436969343983,-9.69835,-1.58687,-1.33409
407,1436969344001,-9.75311,-1.6198,-1.36089
408,1436969344023,-9.63385,-1.71783,-1.40015
409,1436969344041,-9.53345,-1.86549,-1.32085
410,1436969344062,-9.52705,-1.8824,-1.33896
411,1436969344082,-9.53737,-1.90904,-1.37076
412,1436969344101,-9.52377,-1.85817,-1.40224
413,1436969344121,-9.58501,-1.84558,-1.40543
414,1436969344141,-9.57787,-1.75366,-1.37772
415,1436969344161,-9.41707,-1.73984,-1.31924
416,1436969344181,-9.85614,-1.7563,-1.38193
417,1436969344200,-9.52048,-1.90652,-1.35425
418,1436969344220,-9.60747,-1.93166,-1.28413
419,1436969344240,-9.61642,-1.96532,-1.27177
420,1436969344260,-9.50424,-1.99341,-1.23924
421,1436969344278,-9.62369,-1.96663,-1.37094
422,1436969344299,-9.64041,-1.93893,-1.36913
423,1436969344318,-9.69484,-1.87175,-1.40927
424,1436969344339,-9.80954,-1.93031,-1.37646
425,1436969344358,-9.84991,-1.96123,-1.3237
426,1436969344378,-9.8421,-1.84694,-1.2336
427,1436969344398,-9.82948,-1.8385,-1.20338
428,1436969344418,-9.38011,-1.86996,-1.16432
429,1436969344438,-9.22444,-1.84258,-1.20692
430,1436969344457,-9.35834,-1.80132,-1.24466
431,1436969344477,-9.34219,-1.828,-1.29315
432,1436969344495,-9.46718,-1.75914,-1.27901
433,1436969344517,-9.48199,-1.7556,-1.26457
434,1436969344536,-9.51161,-1.73801,-1.27209
435,1436969344555,-9.55308,-1.8185,-1.3185
436,1436969344576,-9.61671,-1.9364,-1.31277
437,1436969344593,-9.65109,-1.98636,-1.30037
438,1436969344616,-9.70981,-1.97885,-1.34697
439,1436969344655,-9.60985,-1.90834,-1.29941
440,1436969344656,-9.59018,-1.8774,-1.23259
441,1436969344694,-9.63223,-1.795,-1.30775
442,1436969344714,-9.57431,-1.80914,-1.34612
443,1436969344734,-9.53712,-1.82547,-1.39835
444,1436969344754,-9.55943,-1.91013,-1.39494
445,1436969344773,-9.51948,-2.0235,-1.40868
446,1436969344794,-9.48949,-2.06723,-1.42815
447,1436969344812,-9.45375,-2.10374,-1.37917
448,1436969344833,-9.50609,-2.11311,-1.35844
449,1436969344853,-9.5665,-2.11533,-1.3745
