id,attr_time,attr_x,attr_y,attr_z
1,1436969335816,10.598533,0.40222588,3.6326025
2,1436969335834,11.541848,0.9696517,3.5422213
3,1436969335854,11.730989,1.1486182,3.5835214
4,1436969335899,11.086351,1.1719618,3.8935704
5,1436969335900,10.320805,0.7380127,4.144962
6,1436969335917,10.307038,0.53570265,4.086902
7,1436969335933,10.18254,0.23343466,3.5350387
8,1436969335953,9.712079,-0.4165911,2.7670987
9,1436969335973,9.121908,-0.7990648,2.1583729
10,1436969335995,8.755595,-0.7284359,2.0392613
11,1436969336023,8.521563,-0.3788824,1.9692309
12,1436969336037,8.167819,-0.074220255,2.1033063
13,1436969336055,8.598776,-0.12330139,2.3582888
14,1436969336075,9.671378,-0.3309984,2.6384103
15,1436969336095,10.793061,-0.41180268,2.4462755
16,1436969336116,11.344326,-0.0724246,2.255338
17,1436969336135,10.980408,0.3393781,2.3145945
18,1436969336156,10.733805,0.362123,2.3953989
19,1436969336178,10.356718,0.35314476,2.3529017
20,1436969336198,10.242993,0.6757634,2.259528
21,1436969336215,9.727043,1.1563994,2.2260091
22,1436969336235,8.479065,1.3066356,2.1266496
23,1436969336257,7.304111,0.81283146,1.7860745
24,1436969336274,7.2460513,0.10534488,1.6112977
25,1436969336297,8.36175,-0.06284779,1.6011224
26,1436969336319,9.812635,0.40701428,1.6813282
27,1436969336336,10.484808,1.0510546,1.4323312
28,1436969336360,9.989208,1.4449008,1.1815386
29,1436969336384,8.579023,1.4221559,1.0893618
30,1436969336396,6.879739,1.1659763,1.3497312
31,1436969336416,5.7903767,0.89662856,2.2451627
32,1436969336435,6.4002995,0.12749124,3.6182373
33,1436969336454,9.147646,-1.5209166,4.685453
34,1436969336474,11.007342,-2.3786395,4.780622
35,1436969336495,14.698603,-3.3183637,4.1599255
36,1436969336522,15.990274,-2.5019407,2.019509
37,1436969336536,13.290214,-0.36631286,1.4850036
38,1436969336555,9.747394,0.8726865,2.7365725
39,1436969336581,8.333019,0.7326257,3.3991678
40,1436969336644,8.408437,-0.10115502,3.3626564
41,1436969336645,8.782531,-0.18375498,3.0591912
42,1436969336646,8.769362,0.39384618,2.6252422
43,1436969336665,8.655039,0.84096336,2.349909
44,1436969336674,8.831612,0.9223662,2.396596
45,1436969336701,9.543886,0.7314286,2.4959552
46,1436969336715,9.934141,0.48841715,2.271499
47,1436969336736,9.547478,0.18315643,2.1601684
48,1436969336755,9.105747,0.02873042,2.3636756
49,1436969336776,9.113529,0.038905777,2.5378537
50,1436969336797,9.470863,0.092176765,2.8365304
51,1436969336816,10.1699705,-0.065242,3.027468
52,1436969336836,10.484209,-0.2873042,2.9358897
53,1436969336856,10.305841,-0.19692309,2.7431567
54,1436969336876,9.946113,0.08499416,2.9340942
55,1436969336898,9.582792,0.2669535,3.063381
56,1436969336916,9.390657,0.09995792,3.1214404
57,1436969336936,9.39365,-0.075417355,3.0137014
58,1436969336955,9.510367,0.046088383,2.8963854
59,1436969336976,9.496601,0.25977087,2.8089972
60,1436969336998,9.3026705,0.50397944,2.8006175
61,1436969337016,8.983644,0.7266402,2.8814218
62,1436969337035,8.933365,0.7290344,3.0747535
63,1436969337055,9.144054,0.6775591,3.1908724
64,1436969337076,9.388862,0.4770447,3.0825348
65,1436969337098,9.437345,0.36990416,3.0496144
66,1436969337116,9.53012,0.3824737,2.9376855
67,1436969337138,9.449316,0.40342298,2.9771898
68,1436969337156,9.181165,0.38067806,2.9622262
69,1436969337176,8.942942,0.47884035,2.9011738
70,1436969337197,9.042301,0.5327099,2.9909565
71,1436969337216,9.392453,0.54168814,3.0609868
72,1436969337239,9.5385,0.47524905,3.008913
73,1436969337255,9.337387,0.41120413,3.0113072
74,1436969337277,9.164406,0.4297592,3.0490158
75,1436969337303,9.231443,0.44771573,3.0520086
76,1436969337373,9.413403,0.62728083,2.9724014
77,1436969337379,9.49301,0.8595184,2.8975825
78,1436969337380,9.270349,0.82001406,2.8473043
79,1436969337381,8.814852,0.5781997,2.5959132
80,1436969337403,8.677784,0.42078096,2.5013423
81,1436969337444,8.957906,0.39743748,2.6126726
82,1436969337445,9.61272,0.64823014,2.947861
83,1436969337457,9.901819,0.789488,2.9005754
84,1436969337497,9.755175,0.62368953,2.5474305
85,1436969337498,9.365519,0.14604631,2.404377
86,1436969337515,9.352949,0.06344634,2.6162639
87,1436969337539,9.812037,0.3728969,2.7012582
88,1436969337567,9.94312,0.61171854,2.409764
89,1436969337576,9.694122,0.7200562,2.1894975
90,1436969337596,9.23264,0.5351041,2.100912
91,1436969337616,9.264363,0.24779987,2.0266917
92,1436969337639,9.830592,0.14724341,1.9967642
93,1436969337655,10.127473,0.18435353,2.2780828
94,1436969337676,9.800665,0.19871874,2.56419
95,1436969337697,9.412206,0.19033903,2.5462334
96,1436969337717,9.263765,0.047884032,2.540248
97,1436969337739,9.187749,0.021547815,2.5797524
98,1436969337757,9.625289,0.08020575,2.5941176
99,1436969337776,9.880871,0.092775315,2.367267
100,1436969337797,9.594165,0.13227965,2.180519
101,1436969337819,9.284116,0.12689269,2.2439656
102,1436969337836,9.354146,0.16639702,2.3211784
103,1436969337856,9.715671,0.23642741,2.2421699
104,1436969337877,9.961076,0.2208651,2.2583308
105,1436969337898,9.872491,0.0724246,2.3636756
106,1436969337919,9.6528225,-0.2908955,2.2182279
107,1436969337940,9.490616,-0.6368576,1.941099
108,1436969337956,9.527725,-0.57879823,2.0386627
109,1436969337978,10.111312,-0.19812019,2.03567
110,1436969337996,10.542269,-0.12090719,1.9764135
111,1436969338017,10.594941,-0.2873042,1.9620483
112,1436969338038,10.378265,-0.7218518,1.8722657
113,1436969338059,9.880272,-0.7134721,1.9339164
114,1436969338127,9.518148,-0.34955344,2.0614076
115,1436969338128,9.536704,-0.0724246,2.1260512
116,1436969338129,9.592369,-0.093972415,1.8680758
117,1436969338136,9.731832,-0.41359833,1.7226281
118,1436969338163,9.807847,-0.5363012,1.7112557
119,1436969338177,9.427169,-0.1400608,1.7040731
120,1436969338210,9.254189,0.18315643,1.934515
121,1436969338217,9.749788,-0.049679685,2.059612
122,1436969338238,9.993997,-0.39264908,2.010531
123,1436969338264,9.850943,-0.35434186,1.9339164
124,1436969338278,9.637859,-0.18255788,2.005144
125,1436969338297,9.560047,-0.15622166,2.0093338
126,1436969338316,9.601946,-0.2160767,1.8016368
127,1436969338337,9.644443,-0.42078096,1.7328035
128,1436969338359,9.60853,-0.37229836,1.7351977
129,1436969338379,9.572617,-0.10115502,1.6238673
130,1436969338396,9.768343,-0.3250129,1.6370354
131,1436969338418,9.886856,-0.748188,1.9099745
132,1436969338441,10.101735,-0.7344214,2.0440497
133,1436969338458,10.271724,-0.31543607,1.9710265
134,1436969338476,10.00896,-0.22266077,1.9686323
135,1436969338500,9.198523,-0.25019407,1.881244
136,1436969338520,8.765771,0.08678981,1.4191631
137,1436969338538,9.389461,0.36750996,1.5131354
138,1436969338562,10.797251,-0.11192893,2.143409
139,1436969338576,10.66557,-0.56563014,1.9865888
140,1436969338598,9.541492,-0.2669535,1.5801731
141,1436969338616,9.066842,0.24001873,1.6681601
142,1436969338636,9.140464,0.40043023,1.8100165
143,1436969338656,9.657611,0.3333926,2.0949266
144,1436969338684,9.8683,-0.03172317,2.171541
145,1436969338698,9.522937,-0.4914099,1.797447
146,1436969338718,9.257181,-0.3716998,1.1079168
147,1436969338737,9.816826,0.42796355,1.7190368
148,1436969338761,10.70687,0.24660277,2.0530279
149,1436969338830,10.291476,-0.48003745,1.8447324
150,1436969338831,9.713875,-0.33638534,1.8956091
151,1436969338832,9.685743,0.05925649,2.2152352
152,1436969338842,9.957485,0.15143326,2.3481133
153,1436969338857,9.944916,0.035913024,2.3415294
154,1436969338877,9.573814,-0.2208651,2.2469583
155,1436969338911,9.252991,-0.25438392,2.2661119
156,1436969338917,9.238626,-0.05805939,2.6168625
157,1436969338938,9.401431,0.09995792,2.6192567
158,1436969338958,9.730036,0.2765303,2.3870192
159,1436969338978,9.782109,0.3345897,1.9111716
160,1436969338999,9.572019,0.3345897,1.9255368
161,1436969339017,9.304466,0.38845924,2.111686
162,1436969339040,9.324817,0.36870706,2.3080103
163,1436969339059,9.504981,0.23403321,2.3624785
164,1436969339080,9.677363,0.03232172,2.3295584
165,1436969339099,9.590573,-0.035314474,2.0482395
166,1436969339119,9.59177,0.11372458,1.8728642
167,1436969339168,9.77373,0.1328782,2.0847511
168,1436969339169,9.299079,0.36391866,1.8004397
169,1436969339180,8.471284,0.6548142,1.3844471
170,1436969339198,9.172785,0.054468088,2.4408886
171,1436969339217,10.689512,-0.3250129,2.8526914
172,1436969339239,11.43351,-0.142455,1.6633717
173,1436969339259,11.376648,-0.0005985504,1.4215573
174,1436969339278,10.819996,0.27952304,2.2427685
175,1436969339297,10.09575,0.47225627,2.5851393
176,1436969339322,8.878299,0.27593175,1.8088194
177,1436969339343,8.180987,-0.61650693,1.5921441
178,1436969339362,8.832211,-0.36750996,1.7070658
179,1436969339378,9.847352,0.54288524,1.9458874
180,1436969339397,10.780492,0.6871359,2.3678656
181,1436969339419,10.433332,0.49799395,2.3702598
182,1436969339446,9.638457,0.29508537,2.0608091
183,1436969339460,9.288904,0.08319851,2.343325
184,1436969339546,9.434352,0.0047884034,2.7162218
185,1436969339547,9.903615,0.038307227,2.8700492
186,1436969339548,9.586384,0.23822308,2.0081367
187,1436969339549,8.53892,0.7260417,0.8331822
188,1436969339559,8.608951,0.78050977,1.7513585
189,1436969339619,9.81922,0.32800564,2.4510639
190,1436969339620,10.307637,0.110731825,2.706645
191,1436969339621,9.597756,0.28670564,2.1799207
192,1436969339651,9.270947,0.20410569,2.3403323
193,1436969339658,9.430161,0.054468088,2.7814639
194,1436969339682,9.859323,0.12629414,2.7114334
195,1436969339724,10.226832,0.2160767,2.2619221
196,1436969339725,10.13705,0.43394905,1.9249382
197,1436969339753,9.68275,0.59495914,1.922544
198,1436969339805,8.859145,0.43514615,2.0308816
199,1436969339806,8.862736,0.077811554,2.203264
200,1436969339807,9.854534,0.007182605,2.2224178
201,1436969339817,10.597934,0.5674258,2.3385365
202,1436969339837,10.396821,0.8822633,2.4372973
203,1436969339857,9.509769,0.6003461,2.5492263
204,1436969339877,9.184157,0.45609543,2.582745
205,1436969339899,9.052477,0.21188685,2.5833437
206,1436969339917,9.442133,0.28431144,2.409764
207,1436969339941,9.677363,0.6691794,2.236783
208,1436969339961,9.743204,0.9959879,2.1332338
209,1436969339981,9.697116,1.0241197,1.9919758
210,1436969339997,9.387665,0.90261406,2.0679917
211,1436969340018,9.215881,0.7086837,2.2104468
212,1436969340043,9.26197,0.56443304,2.331354
213,1436969340062,9.443929,0.670975,2.3852234
214,1436969340082,9.566631,0.9648633,2.4851813
215,1436969340100,9.6049385,0.997185,2.484583
216,1436969340118,9.572019,0.90859956,2.5067291
217,1436969340138,9.466674,0.79008657,2.5893292
218,1436969340158,9.539098,0.65182143,2.6240451
219,1436969340182,9.559449,0.65301853,2.556409
220,1436969340202,9.524135,0.84934306,2.4420857
221,1436969340219,9.554062,1.1504139,2.381632
222,1436969340241,9.486425,1.1097125,2.2870612
223,1436969340260,9.504382,0.9564836,2.168548
224,1436969340331,9.566033,1.1049241,2.2385786
225,1436969340332,9.46847,1.0684125,2.1894975
226,1436969340333,9.508572,0.91817635,2.2242134
227,1436969340342,9.563639,0.98102415,2.373851
228,1436969340361,9.436746,1.1270704,2.4624364
229,1436969340381,9.227253,1.3000516,2.4307132
230,1436969340398,9.464878,1.4131776,2.4019828
231,1436969340418,9.634268,1.3844471,2.267309
232,1436969340440,9.417592,1.2623428,2.0871453
233,1436969340458,9.315839,1.2413936,2.136825
234,1436969340480,9.475652,1.1623849,2.3493104
235,1436969340499,9.567828,1.1611878,2.4073699
236,1436969340518,9.578603,1.158195,2.3373394
237,1436969340542,9.498397,1.1438298,2.3870192
238,1436969340561,9.474455,1.1318588,2.5683799
239,1436969340581,9.43914,1.1605892,2.5725696
240,1436969340604,9.420585,1.0839748,2.4355016
241,1436969340621,9.424176,1.0402806,2.3546975
242,1436969340640,9.511565,0.97862995,2.373851
243,1436969340659,9.706094,0.8595184,2.2134395
244,1436969340681,9.727043,0.7733272,1.8656816
245,1436969340704,9.437345,0.7170634,1.543063
246,1436969340719,9.328408,0.93014735,1.6765398
247,1436969340741,9.386468,1.2964603,1.8195933
248,1436969340762,9.60015,1.1336545,1.7998412
249,1436969340781,9.870695,0.6398504,2.106299
250,1436969340802,9.940725,0.5518635,2.2661119
251,1436969340822,9.86471,0.55485624,2.456451
252,1436969340842,9.655217,0.3609259,2.4642322
253,1436969340861,9.476849,0.23702596,2.416348
254,1436969340882,9.329605,0.42197806,2.4827871
255,1436969340902,9.361927,0.6793547,2.5558102
256,1436969340922,9.74859,0.82121116,2.2918496
257,1436969340939,10.175357,0.7320272,1.6705543
258,1436969340960,10.248381,0.45908818,1.3605051
259,1436969340987,10.01315,0.3196259,1.4694413
260,1436969341048,9.824607,0.15861586,1.7818847
261,1436969341049,9.706094,-0.092176765,2.0859482
262,1436969341061,9.712678,-0.41299978,2.3648727
263,1436969341062,9.800066,-0.44113165,2.4277205
264,1436969341081,9.827001,-0.26635495,2.4139538
265,1436969341099,9.566033,-0.10594343,2.28347
266,1436969341122,9.543288,-0.05925649,2.183512
267,1436969341139,9.924564,0.095768064,2.1739352
268,1436969341159,10.274118,0.2172738,2.0560207
269,1436969341182,10.161591,0.25498247,2.1152773
270,1436969341200,9.810242,0.31783026,2.3744495
271,1436969341225,9.393052,0.29628247,2.457648
272,1436969341240,9.2308445,0.077811554,2.5366566
273,1436969341260,9.320627,-0.23343466,2.585738
274,1436969341282,9.439739,-0.39264908,2.5677812
275,1436969341302,9.44752,-0.34835634,2.4917655
276,1436969341319,9.377489,-0.23044191,2.4133554
277,1436969341371,9.399037,-0.10055647,2.4313118
278,1436969341372,9.528923,-0.033518825,2.3834279
279,1436969341394,9.654019,-0.030526072,2.5240872
280,1436969341400,9.671378,-0.044292733,2.5552118
281,1436969341422,9.645041,-0.107140526,2.5462334
282,1436969341442,9.6049385,-0.2837129,2.56419
283,1436969341460,9.545682,-0.3693056,2.633622
284,1436969341483,9.579201,-0.415394,2.7030537
285,1436969341504,9.707291,-0.55605334,2.6521769
286,1436969341524,9.749189,-0.5650316,2.5276785
287,1436969341545,9.570223,-0.52852005,2.4516625
288,1436969341562,9.428367,-0.41479546,2.5540147
289,1436969341580,9.473258,-0.36152446,2.5887306
290,1436969341600,9.467871,-0.33518824,2.5222914
291,1436969341621,9.516354,-0.22146365,2.3427265
292,1436969341645,9.524733,-0.24181437,2.3259668
293,1436969341666,9.603742,-0.2100912,2.44029
294,1436969341685,9.607333,-0.20171149,2.5270798
295,1436969341701,9.615712,-0.19812019,2.529474
296,1436969341722,9.667188,-0.24480712,2.4199393
297,1436969341783,9.630676,-0.24540567,2.4313118
298,1436969341784,9.519944,-0.34476504,2.4636335
299,1436969341785,9.512762,-0.47225627,2.4708161
300,1436969341802,9.524733,-0.45669398,2.4480712
301,1436969341820,9.492412,-0.40402153,2.468422
302,1436969341840,9.561843,-0.47884035,2.5037365
303,1436969341859,9.609129,-0.53091425,2.5067291
304,1436969341879,9.57561,-0.42676646,2.4504654
305,1436969341900,9.501988,-0.39025488,2.4624364
306,1436969341919,9.546879,-0.41060558,2.505532
307,1436969341942,9.533711,-0.39743748,2.4516625
308,1436969341967,9.588778,-0.40402153,2.4498668
309,1436969341983,9.613318,-0.3537433,2.420538
310,1436969342001,9.536105,-0.3238158,2.4139538
311,1436969342023,9.444528,-0.30226797,2.4384944
312,1436969342043,9.394848,-0.26755205,2.456451
313,1436969342063,9.401431,-0.29149407,2.4887726
314,1436969342083,9.530719,-0.39863458,2.492364
315,1436969342103,9.511565,-0.51235914,2.409764
316,1436969342122,9.363124,-0.56203884,2.4672248
317,1436969342143,9.347562,-0.39384618,2.5169046
318,1436969342163,9.388862,-0.36152446,2.6880898
319,1436969342183,9.5798,-0.44592008,2.7114334
320,1436969342201,9.721656,-0.56982,2.4899697
321,1436969342223,9.739014,-0.44831428,2.4139538
322,1436969342240,9.659407,-0.41718966,2.4498668
323,1436969342260,9.5492735,-0.4818331,2.4193408
324,1436969342280,9.533113,-0.5758055,2.3870192
325,1436969342307,9.661202,-0.6039374,2.4157495
326,1436969342326,9.832987,-0.55126494,2.497751
327,1436969342346,9.878476,-0.40880993,2.5300727
328,1436969342363,9.759365,-0.3693056,2.521693
329,1436969342381,9.570223,-0.3274071,2.5755625
330,1436969342400,9.518148,-0.3776853,2.5516205
331,1436969342421,9.495404,-0.40641573,2.5210943
332,1436969342442,9.505579,-0.46447513,2.6084828
333,1436969342461,9.570223,-0.50637364,2.6449943
334,1436969342516,9.606734,-0.4782418,2.60549
335,1436969342521,9.5732155,-0.40162733,2.5971103
336,1436969342532,9.470863,-0.3854665,2.7401638
337,1436969342543,9.357139,-0.37110126,2.8963854
338,1436969342571,9.452309,-0.30466217,3.0059202
339,1436969342582,9.540894,-0.3681085,2.7162218
340,1436969342608,9.69532,-0.4201824,2.4905684
341,1436969342623,9.73662,-0.30286652,2.267309
342,1436969342642,9.668385,-0.3764882,2.1332338
343,1436969342661,9.67018,-0.48123455,2.144606
344,1436969342681,9.673772,-0.6302736,2.2122424
345,1436969342702,9.652225,-0.5770026,2.2894554
346,1436969342724,9.619304,-0.44532153,2.428319
347,1436969342744,9.615114,-0.30825347,2.480393
348,1436969342764,9.594165,-0.22924481,2.4774003
349,1436969342784,9.564836,-0.25857377,2.4827871
350,1436969342804,9.552865,-0.350152,2.5486276
351,1436969342821,9.57142,-0.38965634,2.586935
352,1436969342844,9.4774475,-0.37469256,2.5905263
353,1436969342864,9.4972,-0.39025488,2.7515364
354,1436969342884,9.567828,-0.4758476,2.6731262
355,1436969342904,9.584588,-0.46507367,2.5761611
356,1436969342922,9.573814,-0.39983168,2.542642
357,1436969342941,9.570223,-0.40521863,2.541445
358,1436969342964,9.496601,-0.3812766,2.5887306
359,1436969342983,9.45171,-0.33399114,2.6252422
360,1436969343004,9.412804,-0.31902736,2.6856956
361,1436969343024,9.509171,-0.36032736,2.6719291
362,1436969343044,9.561843,-0.31902736,2.6072857
363,1436969343064,9.576807,-0.27114335,2.6449943
364,1436969343084,9.504382,-0.27114335,2.6491842
365,1436969343104,9.3738985,-0.33399114,2.5911248
366,1436969343124,9.396045,-0.30825347,2.779668
367,1436969343144,9.388264,-0.19153613,2.8353333
368,1436969343164,9.411008,-0.23523031,2.8335378
369,1436969343184,9.589376,-0.35913026,2.7551277
370,1436969343208,9.610326,-0.3549404,2.6761189
371,1436969343269,9.488221,-0.34356794,2.7090392
372,1436969343270,9.412206,-0.3369839,2.777274
373,1436969343271,9.40203,-0.3417723,2.7670987
374,1436969343282,9.436746,-0.33159694,2.755726
375,1436969343302,9.506777,-0.29029694,2.8311436
376,1436969343321,9.515156,-0.32561144,2.8323407
377,1436969343341,9.512163,-0.3345897,2.8909986
378,1436969343361,9.4217825,-0.2693477,2.813187
379,1436969343387,9.3978405,-0.20231004,2.6701334
380,1436969343402,9.472659,-0.14903906,2.7778726
381,1436969343423,9.497798,-0.15622166,2.9245174
382,1436969343443,9.530719,-0.23343466,2.9364884
383,1436969343465,9.492412,-0.37469256,2.8149827
384,1436969343484,9.516952,-0.4285621,2.735974
385,1436969343504,9.544485,-0.35793316,2.7234044
386,1436969343524,9.507375,-0.3585317,2.6928782
387,1436969343543,9.503185,-0.33638534,2.7389667
388,1436969343565,9.489418,-0.2693477,2.7449522
389,1436969343584,9.488221,-0.2160767,2.7252002
390,1436969343604,9.431359,-0.18195933,2.7353754
391,1436969343624,9.434352,-0.18255788,2.77069
392,1436969343641,9.467871,-0.18495208,2.7144263
393,1436969343662,9.457097,-0.21547815,2.6731262
394,1436969343683,9.498995,-0.25677812,2.8927941
395,1436969343705,9.522339,-0.20051439,2.882619
396,1436969343722,9.454702,-0.2777274,2.8209682
397,1436969343742,9.548077,-0.4285621,2.7982233
398,1436969343763,9.549872,-0.3693056,2.8257565
399,1436969343786,9.54209,-0.2669535,2.8766334
400,1436969343806,9.493608,-0.25917232,2.8874073
401,1436969343827,9.435549,-0.29867667,2.8502972
402,1436969343844,9.452309,-0.25438392,2.819771
403,1436969343863,9.458294,-0.2777274,2.806603
404,1436969343883,9.461287,-0.31783026,2.8502972
405,1436969343904,9.451111,-0.3184288,2.847903
406,1436969343923,9.367912,-0.23942018,2.8383262
407,1436969343942,9.359533,-0.25019407,2.861071
408,1436969343996,9.4217825,-0.29149407,2.8550856
409,1436969343999,9.448717,-0.30645782,2.7814639
410,1436969344003,9.506777,-0.2825158,2.8095956
411,1436969344021,9.504981,-0.2813187,2.7964275
412,1436969344043,9.499594,-0.30047232,2.873042
413,1436969344063,9.526528,-0.3226187,2.920926
414,1436969344082,9.512762,-0.3549404,2.9047651
415,1436969344103,9.45171,-0.3788824,2.9299042
416,1436969344124,9.445126,-0.36631286,2.932897
417,1436969344143,9.436148,-0.3405752,2.9454668
418,1436969344162,9.428367,-0.30765492,2.9466639
