id,attr_time,attr_x,attr_y,attr_z
1,1438343226008,9.713875,1.0229226,1.7872716
2,1438343226027,9.721058,1.0354922,1.7741034
3,1438343226044,9.723452,1.0013748,1.7567455
4,1438343226065,9.753978,1.0115502,1.7687165
5,1438343226085,9.731832,1.0145429,1.7735049
6,1438343226107,9.693524,1.0139444,1.7531542
7,1438343226127,9.711481,1.0001777,1.785476
8,1438343226147,9.723452,0.98461545,1.7788919
9,1438343226166,9.738416,1.0019734,1.7669208
10,1438343226187,9.712079,1.0097545,1.7645266
11,1438343226207,9.719262,1.021127,1.7615339
12,1438343226227,9.7240505,1.0324994,1.7764976
13,1438343226247,9.696517,1.0420763,1.7645266
14,1438343226266,9.715072,1.0199299,1.7753005
15,1438343226285,9.717466,1.0079589,1.7902644
16,1438343226307,9.740809,1.0187328,1.763928
17,1438343226324,9.762358,1.0163386,1.751957
18,1438343226344,9.70789,1.0420763,1.7675194
19,1438343226364,9.6923275,1.009156,1.8076223
20,1438343226389,9.674969,1.0151415,1.8148049
21,1438343226410,9.701904,1.033098,1.7435774
22,1438343226436,9.763555,1.0462662,1.7423803
23,1438343226446,9.7863,1.0342951,1.7705121
24,1438343226465,9.68694,1.0145429,1.7597382
25,1438343226492,9.639654,0.9888053,1.751957
26,1438343226508,9.725247,1.0085574,1.8004397
27,1438343226526,9.760562,1.0648212,1.7160441
28,1438343226608,9.755175,1.0720038,1.6950948
29,1438343226609,9.808446,1.0666169,1.7705121
30,1438343226610,9.804854,1.0199299,1.8207904
31,1438343226611,9.706693,1.0151415,1.8088194
32,1438343226625,9.645041,1.0019734,1.7794905
33,1438343226648,9.637859,1.0109516,1.7699136
34,1438343226664,9.688137,0.98940384,1.7483658
35,1438343226685,9.741408,1.0061632,1.6915035
36,1438343226706,9.791686,1.043872,1.697489
37,1438343226726,9.752182,1.0666169,1.7130513
38,1438343226745,9.718663,1.0468647,1.7513585
39,1438343226765,9.7084875,0.98940384,1.7723078
40,1438343226787,9.727043,1.0007763,1.7896658
41,1438343226805,9.746197,1.0594343,1.7537527
42,1438343226827,9.864111,1.0935516,1.7591397
43,1438343226847,9.883863,1.0995371,1.7681179
44,1438343226867,9.883265,1.134253,1.7357962
45,1438343226886,9.777321,1.0911574,1.7130513
46,1438343226907,9.589975,1.0253168,1.6950948
47,1438343226928,9.545682,0.997185,1.6400281
48,1438343226947,9.569624,1.0055647,1.5628152
49,1438343226967,9.662998,1.0073603,1.5705963
50,1438343226987,9.774927,0.98222125,1.5831659
51,1438343227005,9.886257,0.94092125,1.5939398
52,1438343227028,9.881469,0.94570965,1.6118963
53,1438343227045,9.828796,0.9540894,1.6514006
54,1438343227065,9.8437605,1.0109516,1.7196354
55,1438343227086,9.842564,1.0067618,1.780089
56,1438343227109,9.801862,0.9935937,1.7567455
57,1438343227144,9.768942,1.0265139,1.7537527
58,1438343227151,9.79827,1.002572,1.7729063
59,1438343227164,9.813833,0.94211835,1.8016368
60,1438343227185,9.745598,0.9331401,1.8273745
61,1438343227205,9.727641,0.95588505,1.8501194
62,1438343227225,9.668983,1.0067618,1.7950528
63,1438343227246,9.661202,1.0229226,1.7770962
64,1438343227265,9.718663,1.0319009,1.8028339
65,1438343227326,9.82341,1.0241197,1.8794483
66,1438343227327,9.873688,1.0498575,1.9183542
67,1438343227328,9.887454,1.0702082,1.927931
68,1438343227346,9.904813,1.1109096,1.929128
69,1438343227365,9.915586,1.1085154,1.9045875
70,1438343227386,9.759963,1.0462662,1.9201498
71,1438343227405,9.57561,0.931943,1.9153614
72,1438343227426,9.513959,0.81043726,1.8806454
73,1438343227446,9.561843,0.7326257,1.8650831
74,1438343227468,9.793482,0.6015432,1.7896658
75,1438343227493,10.08737,0.63087213,1.7076644
76,1438343227509,10.147824,0.7433996,1.5825673
77,1438343227529,9.946113,0.8690952,1.4550761
78,1438343227545,9.698911,0.94690675,1.436521
79,1438343227567,9.545682,0.9427169,1.5646108
80,1438343227588,9.512163,1.0001777,1.6591818
81,1438343227607,9.489418,1.0714053,1.6585833
82,1438343227628,9.351752,1.039682,1.6944963
83,1438343227648,9.194333,1.0019734,1.6723499
84,1438343227668,9.143456,0.99060094,1.5634137
85,1438343227686,9.227852,0.8798691,1.5388732
86,1438343227707,9.52174,0.6679823,1.6358383
87,1438343227725,9.754577,0.45789108,1.7417817
88,1438343227747,9.780912,0.36391866,1.7441759
89,1438343227768,9.713276,0.4830302,1.5921441
90,1438343227788,9.625888,0.8098387,1.5197195
91,1438343227807,9.520543,0.95109665,1.4993688
92,1438343227828,9.605537,0.85293436,1.6418238
93,1438343227846,9.955689,0.56982,1.8537107
94,1438343227866,9.96766,0.4902128,1.7316064
95,1438343227886,9.637859,0.777517,1.3964181
96,1438343227907,9.428367,1.13964,1.2862848
97,1438343227929,9.555858,1.4478935,1.5592239
98,1438343227946,10.274118,1.2683283,1.7794905
99,1438343227966,10.497976,0.7092823,1.9859903
100,1438343227989,9.943718,0.5805939,1.8938135
101,1438343228018,9.454702,0.8912416,1.7100586
102,1438343228033,9.2787285,1.1965023,1.702876
103,1438343228046,9.260772,1.3006501,1.7866731
104,1438343228067,9.527725,1.4000094,1.9045875
105,1438343228087,9.914988,1.3784616,1.8309658
106,1438343228106,10.147824,1.2372037,1.775899
107,1438343228127,10.1065235,1.0378864,1.8393455
108,1438343228148,9.945514,1.0235212,1.9632454
109,1438343228170,9.838373,1.110311,2.0841527
110,1438343228187,9.785102,1.2132617,2.1458032
111,1438343228208,9.778519,1.3006501,2.1691468
112,1438343228227,9.809045,1.3150153,2.1859062
113,1438343228247,9.722853,1.2940661,2.1057005
114,1438343228269,9.610326,1.2156559,2.0482395
115,1438343228287,9.545084,1.1288661,2.0135236
116,1438343228309,9.565434,1.0923545,1.9578584
117,1438343228326,9.577405,1.0881647,1.9548657
118,1438343228347,9.577405,1.086369,1.9201498
119,1438343228369,9.569026,1.0875661,1.8680758
120,1438343228387,9.60853,1.0307038,1.8411411
121,1438343228414,9.693524,0.99778354,1.8112136
122,1438343228430,9.758766,0.9696517,1.7770962
123,1438343228447,9.779117,0.94690675,1.797447
124,1438343228469,9.779117,0.96067345,1.8423382
125,1438343228488,9.740809,1.0049661,1.8381484
126,1438343228510,9.693524,1.0708067,1.83336
127,1438343228529,9.710882,1.1007342,1.8154035
128,1438343228553,9.753978,1.1067197,1.7890673
129,1438343228575,9.797073,1.086369,1.7753005
130,1438343228588,9.760562,1.0456676,1.7465701
131,1438343228631,9.758167,1.002572,1.7322049
132,1438343228632,9.75697,0.96426475,1.7274165
133,1438343228646,9.7563715,0.97384155,1.7483658
134,1438343228666,9.703101,0.96546185,1.7322049
135,1438343228697,9.668385,0.9427169,1.7316064
136,1438343228726,9.709086,0.9588778,1.7471687
137,1438343228727,9.711481,1.0163386,1.7603368
138,1438343228750,9.694721,1.0690111,1.6950948
139,1438343228766,9.72824,1.09834,1.7070658
140,1438343228786,9.754577,1.1019313,1.6980876
141,1438343228806,9.736021,1.0905589,1.7064673
142,1438343229013,9.730036,1.0444705,1.7118542
143,1438343229014,9.72824,1.0510546,1.6903064
144,1438343229015,9.7402115,1.0301052,1.7130513
145,1438343229016,9.738416,1.050456,1.7142484
146,1438343229017,9.703699,1.0755951,1.7016789
147,1438343229018,9.713875,1.0749966,1.6992847
148,1438343229019,9.705495,1.0648212,1.6747441
149,1438343229020,9.731832,1.0456676,1.6938977
150,1438343229021,9.751583,1.0229226,1.6687586
151,1438343229022,9.752182,1.0253168,1.7328035
152,1438343229133,9.762956,1.050456,1.7579426
153,1438343229134,9.758766,1.067814,1.7310078
154,1438343229135,9.716867,1.1049241,1.6819267
155,1438343229136,9.7162695,1.1085154,1.6992847
156,1438343229137,9.80665,1.0791864,1.7735049
157,1438343229138,9.725846,1.1133038,1.7597382
158,1438343229145,9.624691,1.1079168,1.7142484
159,1438343229165,9.626487,1.0857705,1.7866731
160,1438343229185,9.7240505,1.1139023,1.8381484
161,1438343229205,9.768942,1.1426327,1.775899
162,1438343229225,9.791686,1.1234791,1.7441759
163,1438343229245,9.804854,1.0929531,1.7770962
164,1438343229265,9.745,1.1210849,1.7998412
165,1438343229286,9.6923275,1.1240777,1.7986441
166,1438343229307,9.65821,1.1073183,1.7932571
167,1438343229327,9.687539,1.1552023,1.7848774
168,1438343229347,9.69532,1.1522095,1.7447745
169,1438343229367,9.662399,1.1186907,1.7603368
170,1438343229389,9.674969,1.1210849,1.7417817
171,1438343229405,9.694721,1.1246762,1.7393875
172,1438343229425,9.730036,1.127669,1.7100586
173,1438343229446,9.722853,1.1204864,1.697489
174,1438343229466,9.685144,1.1528081,1.6585833
175,1438343229486,9.633669,1.1629834,1.6017209
176,1438343229506,9.703101,1.13964,1.6681601
177,1438343229530,9.74859,1.127669,1.6831238
178,1438343229546,9.830592,1.1456255,1.6897079
179,1438343229568,9.898229,1.1731589,1.6472107
180,1438343229586,9.878476,1.1707647,1.6525977
181,1438343229610,9.763555,1.2234371,1.5927427
182,1438343229628,9.680955,1.1953052,1.5676036
183,1438343229651,9.629479,1.1605892,1.6011224
184,1438343229667,9.648034,1.115698,1.6376339
185,1438343229687,9.66659,1.0791864,1.6843209
186,1438343229711,9.723452,1.0654198,1.7208325
187,1438343229729,9.6923275,1.0803835,1.7256209
188,1438343229748,9.682152,1.0761937,1.7884687
189,1438343229768,9.643246,1.050456,1.8596961
190,1438343229790,9.6923275,1.1168951,1.8962077
191,1438343229811,9.803658,1.1695676,1.858499
192,1438343229829,9.835381,1.2611457,1.8740613
193,1438343229849,9.841965,1.192911,1.8806454
194,1438343229868,9.787497,1.0893618,1.917157
195,1438343229888,9.585187,0.8206126,1.9710265
196,1438343229911,9.337387,0.6302736,2.019509
197,1438343229930,9.259575,0.45669398,1.8411411
198,1438343229951,9.266159,0.27952304,1.8064252
199,1438343229969,9.296086,0.2861071,1.821389
200,1438343229993,9.361329,0.41000703,1.9135658
201,1438343230028,9.3182335,0.5770026,2.0446482
202,1438343230029,9.428367,0.82599956,2.1703439
203,1438343230047,9.572019,1.0187328,2.1122844
204,1438343230068,9.702502,1.050456,2.0129251
205,1438343230087,9.754577,0.85293436,2.0626047
206,1438343230107,9.714474,0.76434886,2.1440077
207,1438343230129,9.562442,0.6242881,2.100912
208,1438343230150,9.388264,0.5243302,1.9057846
209,1438343230169,9.379884,0.5781997,1.5616181
210,1438343230188,9.543288,0.7350199,1.2413936
211,1438343230211,9.7719345,0.86131406,1.0947487
212,1438343230234,9.972448,0.85652566,1.0223241
213,1438343230251,10.101137,0.8355764,1.1031284
214,1438343230271,10.2495775,0.7290344,1.1719618
215,1438343230288,10.435128,0.6631939,1.1881226
216,1438343230310,10.523115,0.7230489,1.0642227
217,1438343230331,10.446501,0.7218518,0.89184016
218,1438343230352,10.329783,0.6871359,0.9935937
219,1438343230368,10.284293,0.6404489,1.2216414
220,1438343230408,10.282497,0.6147113,1.3024458
221,1438343230409,10.2495775,0.5895722,1.3599066
222,1438343230428,10.1699705,0.65780693,1.4814123
223,1438343230451,10.218452,0.87567925,1.3563153
224,1438343230470,10.074203,1.2312182,0.9768343
225,1438343230489,9.532514,1.3251907,0.6548142
226,1438343230508,8.64666,1.1827357,0.75357497
227,1438343230530,8.080431,1.01574,0.65660983
228,1438343230552,7.766192,0.90500826,0.4189853
229,1438343230573,7.4806833,0.59974754,0.30945057
230,1438343230592,7.2687964,0.23343466,0.40761283
231,1438343230611,7.1167645,-0.14664486,0.9091981
232,1438343230630,7.1113777,-0.2621651,1.4335283
233,1438343230649,7.7584105,-0.30346507,1.7962499
234,1438343230668,9.085996,-0.4285621,1.6938977
235,1438343230692,10.176555,-0.45848963,0.81761986
236,1438343230716,10.392033,-0.45190558,0.2172738
237,1438343230780,9.745,-0.47764325,-0.29029694
238,1438343230781,7.9912467,-0.42556936,0.207697
239,1438343230782,7.394492,-0.62249243,1.0121487
240,1438343230788,8.791509,-0.6171055,2.4983494
241,1438343230808,9.774328,0.49440265,2.8724434
242,1438343230831,9.764751,0.65242,2.0638018
243,1438343230849,9.7803135,-0.7104794,0.8984242
244,1438343230873,10.390237,-1.3988123,-0.7942764
245,1438343230893,13.376405,0.5410896,-1.6011224
246,1438343230917,14.254478,3.7116113,-1.7351977
247,1438343230941,12.0727625,4.7219644,-1.0803835
248,1438343230951,11.536461,1.6663644,1.323395
249,1438343230973,12.130821,-2.2421699,2.1440077
250,1438343230989,12.231378,-3.3081882,0.83138657
251,1438343231012,12.252926,-2.2774844,-0.04309563
252,1438343231031,12.247539,0.25318682,-0.46327803
253,1438343231052,12.404958,1.8632874,-0.08379706
254,1438343231072,12.267291,2.4277205,0.31543607
255,1438343231091,10.696694,2.2750902,1.2306197
256,1438343231112,9.507974,0.99060094,1.335366
257,1438343231130,9.138668,-0.3800795,0.54647654
258,1438343231152,9.343372,-0.5117606,0.30166942
259,1438343231172,9.239224,-0.47405192,1.0187328
260,1438343231191,9.002797,-0.44592008,1.146224
261,1438343231210,8.4234,-0.31483752,1.3485341
262,1438343231231,8.243835,-0.37469256,1.6154876
263,1438343231251,8.193557,-0.0035913025,1.2234371
264,1438343231272,7.6847887,0.6194997,0.7074866
265,1438343231291,7.255628,1.2587515,0.9475053
266,1438343231312,7.304111,1.5562311,1.0570401
267,1438343231331,8.399458,1.7968484,1.4622587
268,1438343231352,9.218275,1.2533646,1.3982137
269,1438343231373,8.620323,0.4782418,0.3597288
270,1438343231391,7.8463974,-0.0035913025,0.4285621
271,1438343231412,7.7667904,-0.25438392,1.1270704
272,1438343231434,7.964312,-0.06943185,1.6717514
273,1438343231449,8.327033,0.2148796,1.9027919
274,1438343231562,8.073248,0.66618663,2.1667526
275,1438343231563,8.494029,1.0462662,2.15538
276,1438343231564,10.912173,1.4239515,0.08140286
277,1438343231565,13.154343,0.83856916,-2.8592753
278,1438343231566,12.221203,-1.4879963,-2.8329391
279,1438343231576,10.272323,-2.5767596,-0.18914193
280,1438343231603,12.624625,-1.726818,3.9785647
281,1438343231610,16.524181,1.0833763,2.3026235
282,1438343231629,19.533094,2.697667,-1.9955671
283,1438343231650,12.331336,0.9451111,-0.092176765
284,1438343231669,8.761581,-1.5472529,2.1547816
285,1438343231694,9.994595,-1.2617443,3.4584243
286,1438343231713,11.030087,-0.93134445,3.5488055
287,1438343231730,11.066,-0.78290397,1.9806033
288,1438343231749,11.482592,0.45968673,0.92176765
289,1438343231772,10.883442,1.5376761,0.81881696
290,1438343231793,9.73662,1.3940239,1.2419921
291,1438343231812,8.758589,1.3467385,1.8579005
292,1438343231832,7.7637978,0.60094464,2.3493104
293,1438343231851,7.5106106,0.30885202,1.8243817
294,1438343231870,8.672996,0.6907272,1.726818
295,1438343231889,9.427169,0.7745243,1.7250223
296,1438343231912,10.171167,0.90500826,1.578976
297,1438343231936,10.007763,1.3676877,0.70509243
298,1438343231949,9.221867,1.7447745,1.0642227
299,1438343231972,8.151658,1.0265139,2.1703439
300,1438343231993,7.9595237,0.29628247,2.2457612
301,1438343232012,8.55149,0.27473465,2.273893
302,1438343232032,8.713099,0.89782566,1.894412
303,1438343232051,8.353969,1.6077064,1.7435774
304,1438343232072,7.9912467,1.6466122,1.8417397
305,1438343232092,7.8475947,0.6733692,2.1320367
306,1438343232112,8.263587,-0.07062895,2.3122003
307,1438343232132,8.749012,-0.12749124,2.3139958
308,1438343232154,8.586804,0.34237084,2.2361844
309,1438343232173,7.9505453,0.48602295,2.3600843
310,1438343232192,7.8308353,0.32321724,2.3397336
311,1438343232213,7.5944076,-0.25917232,2.1918917
312,1438343232282,6.595427,-1.2677298,2.3307555
313,1438343232283,6.4421983,-2.3301568,2.461838
314,1438343232284,8.598177,-1.9985598,1.22224
315,1438343232291,11.966819,0.52373165,-0.3549404
316,1438343232318,14.6172,4.020463,-0.85173726
317,1438343232330,15.0661125,4.9625816,-0.9756372
318,1438343232350,12.76708,1.4760253,1.1552023
319,1438343232371,11.719019,-1.6867151,2.492364
320,1438343232389,12.49055,-1.8662802,2.6593595
321,1438343232460,13.260884,0.92057055,1.9057846
322,1438343232461,12.196662,2.6659436,1.4197617
323,1438343232463,11.219828,3.0017304,1.3251907
324,1438343232479,10.928333,2.883816,1.4335283
325,1438343232489,10.589554,2.6922798,1.453879
326,1438343232510,9.309854,1.9752164,1.2880806
327,1438343232530,7.7230964,0.90740246,1.2539631
328,1438343232550,7.1712327,0.20051439,0.92535895
329,1438343232572,8.137892,-0.2825158,0.9139865
330,1438343232592,9.088988,-0.40043023,1.4012065
331,1438343232613,8.870518,-0.688333,1.9321208
332,1438343232633,7.8876977,-0.4405331,2.315193
333,1438343232651,6.6804214,0.1921347,2.4690206
334,1438343232671,6.303933,1.0408791,2.243367
335,1438343232691,7.0646906,1.9776106,1.929128
336,1438343232712,8.139089,1.5981296,1.9351135
337,1438343232731,8.69155,-0.074818805,1.5939398
338,1438343232751,9.066842,-0.6039374,0.35194764
339,1438343232770,8.74542,0.5494693,0.24540567
340,1438343232793,8.273763,1.146224,0.49919105
341,1438343232813,8.349778,2.3295584,0.10474633
342,1438343232833,10.386047,1.6352397,-2.243367
343,1438343232854,12.388198,-0.57760113,-5.173271
344,1438343232872,13.278243,-1.9572599,-5.1146135
345,1438343232893,13.841478,-0.9295488,-1.0001777
346,1438343232912,15.889119,0.18315643,3.074155
347,1438343232932,15.672444,-0.20350714,2.918532
348,1438343232955,12.01171,-1.3718776,1.1246762
349,1438343233030,10.068216,-3.0597897,-1.2773066
350,1438343233031,10.048465,-2.5151088,0.25737667
351,1438343233032,10.138845,-0.6667852,1.9686323
352,1438343233033,9.8916445,0.51595044,2.6366146
353,1438343233053,9.258977,0.7098808,2.2158337
354,1438343233076,9.240421,-0.21906945,1.1749545
355,1438343233090,9.548675,-0.7086837,0.78769237
356,1438343233110,10.279505,-0.82480246,0.7781156
357,1438343233143,10.258555,0.18255788,1.168969
358,1438343233151,9.56723,0.88944596,1.4790181
359,1438343233176,8.768166,0.9463082,1.0851719
360,1438343233192,7.703344,0.45190558,0.95827925
361,1438343233215,6.827665,0.2148796,1.0618285
362,1438343233233,7.331644,0.6332663,0.830788
363,1438343233253,8.304887,0.8511387,1.043872
364,1438343233273,7.9966335,0.21428105,1.8860323
365,1438343233293,6.918046,-0.7433996,1.9937714
366,1438343233314,6.7851677,-0.82899237,1.3796587
367,1438343233333,8.319851,-0.19512744,-0.86610246
368,1438343233354,10.600926,0.7368156,-1.5634137
369,1438343233372,12.709022,2.5151088,-0.8050503
370,1438343233394,13.747506,2.9257145,-0.26396075
371,1438343233413,15.3767605,2.1769278,0.2100912
372,1438343233433,16.540941,1.0630256,0.90500826
373,1438343233453,16.395493,0.8738836,1.6813282
374,1438343233478,14.273033,1.6699557,1.9201498
375,1438343233493,12.183494,2.0290859,1.6328455
376,1438343233511,10.341754,1.6531962,2.100912
377,1438343233535,9.216479,1.6639702,1.4796166
378,1438343233556,9.008782,1.5412674,1.6023195
379,1438343233577,8.908226,1.0187328,2.0751743
380,1438343233594,8.604761,0.39624038,1.7154455
381,1438343233611,8.065467,0.06284779,1.0809821
382,1438343233632,6.947375,-0.2208651,0.88046765
383,1438343233651,5.8532248,-0.6123171,1.2000936
384,1438343233673,5.5623293,-0.6859388,1.8100165
385,1438343233691,5.8801594,-0.35194764,2.0392613
386,1438343233759,7.3268557,0.88645315,2.391209
387,1438343233760,8.429984,1.775899,2.8927941
388,1438343233761,8.711902,1.8082209,3.0723593
389,1438343233771,8.878299,0.7266402,2.3050177
390,1438343233796,8.901043,0.06584055,1.0839748
391,1438343233813,8.488044,0.47165772,1.1725603
392,1438343233833,7.542334,1.0869676,2.4145525
393,1438343233853,7.4711065,1.9608512,2.7042508
394,1438343233872,9.17099,2.3289597,1.9273324
395,1438343233894,11.267712,0.65062433,-1.2246342
396,1438343233912,12.747927,-1.6525977,-3.5236664
397,1438343233934,13.351864,-1.9853917,-3.0544028
398,1438343233951,14.177265,-0.15622166,0.6847417
399,1438343233974,15.819089,1.3760674,3.903746
400,1438343233994,16.799515,1.5933412,4.9374423
401,1438343234014,16.16924,0.7284359,3.1621418
402,1438343234034,11.437101,-1.2599486,1.2868834
403,1438343234054,8.561666,-2.4905684,-0.08080431
404,1438343234074,8.830415,-1.6262615,0.8738836
405,1438343234095,8.794501,0.57400984,2.6749218
406,1438343234114,8.382699,1.6687586,3.3494883
407,1438343234133,8.525154,1.9476831,2.6461914
408,1438343234154,9.249998,1.400608,1.2324153
409,1438343234174,9.679757,0.20709845,0.10354923
410,1438343234194,9.021352,-0.6907272,0.34955344
411,1438343234215,7.799112,-0.7290344,0.7266402
412,1438343234234,6.4781113,-0.91937345,1.5717934
413,1438343234254,6.221333,-1.1558008,2.0027497
414,1438343234274,6.64391,-1.09834,1.270124
415,1438343234295,8.169615,-0.3238158,0.9900024
416,1438343234315,9.197326,0.30047232,1.3132197
417,1438343234333,9.042301,0.6548142,1.1055226
418,1438343234353,8.347384,0.97982705,1.0283096
419,1438343234373,7.844003,0.26635495,0.94810385
420,1438343234404,8.901043,-0.4961983,1.1905168
421,1438343234497,10.866683,-0.52373165,0.7062895
