id,attr_time,attr_x,attr_y,attr_z
1,1438343226001,1.4987702,9.314642,1.6430209
2,1438343226020,1.520318,9.306262,1.6771383
3,1438343226048,1.5047557,9.303867,1.6621746
4,1438343226103,1.5221137,9.312247,1.6448165
5,1438343226104,1.5119383,9.314642,1.6406267
6,1438343226105,1.5107412,9.293693,1.6274586
7,1438343226127,1.5167267,9.306262,1.6298528
8,1438343226139,1.5239093,9.323022,1.6460136
9,1438343226159,1.5263035,9.305065,1.650802
10,1438343226179,1.4933833,9.314642,1.6370354
11,1438343226199,1.5197195,9.291298,1.6226702
12,1438343226219,1.5089456,9.3104515,1.6579847
13,1438343226239,1.5143325,9.297284,1.6729485
14,1438343226260,1.5023615,9.303269,1.6573862
15,1438343226285,1.5215151,9.309255,1.6436194
16,1438343226312,1.5113398,9.32362,1.6334441
17,1438343226318,1.4987702,9.308656,1.6394296
18,1438343226339,1.4856021,9.302073,1.6208745
19,1438343226362,1.496376,9.304466,1.6220716
20,1438343226408,1.4891934,9.314043,1.620276
21,1438343226409,1.4891934,9.329605,1.6753427
22,1438343226424,1.4945804,9.3104515,1.6424223
23,1438343226441,1.508347,9.314043,1.6304513
24,1438343226464,1.4939818,9.291897,1.6077064
25,1438343226480,1.5191209,9.306262,1.6424223
26,1438343226502,1.5340848,9.330204,1.6597804
27,1438343226523,1.4951789,9.306861,1.6621746
28,1438343226542,1.46585,9.314642,1.6956934
29,1438343226560,1.4628572,9.333197,1.6591818
30,1438343226580,1.4933833,9.301474,1.6603789
31,1438343226601,1.5077485,9.296685,1.6478093
32,1438343226620,1.5221137,9.270349,1.6406267
33,1438343226643,1.4933833,9.3104515,1.6208745
34,1438343226664,1.4652514,9.3182335,1.6346412
35,1438343226686,1.4676456,9.308058,1.6250644
36,1438343226704,1.46585,9.295488,1.6400281
37,1438343226721,1.4993688,9.31943,1.6394296
38,1438343226740,1.4951789,9.314043,1.6364368
39,1438343226760,1.5125369,9.31524,1.6226702
40,1438343226780,1.5921441,9.350554,1.6579847
41,1438343226846,1.578976,9.52174,1.8866309
42,1438343226847,1.5101427,9.488221,1.9590555
43,1438343226848,1.508347,9.160814,1.6238673
44,1438343226867,1.3934253,9.206305,1.4095862
45,1438343226879,1.3018472,9.251794,1.4526819
46,1438343226900,1.3694834,9.257779,1.6382325
47,1438343226919,1.4119805,9.207501,1.6771383
48,1438343226939,1.4969746,9.255385,1.6711528
49,1438343226974,1.5328877,9.345168,1.6298528
50,1438343226979,1.4814123,9.3343935,1.5544355
51,1438343227004,1.4850036,9.36911,1.6328455
52,1438343227021,1.5616181,9.414001,1.590947
53,1438343227045,1.5819688,9.374496,1.6118963
54,1438343227060,1.6005238,9.320627,1.7256209
55,1438343227083,1.6579847,9.34397,1.7585411
56,1438343227103,1.5502456,9.3733,1.8884265
57,1438343227121,1.477821,9.303867,1.7399861
58,1438343227171,1.520318,9.305065,1.7513585
59,1438343227172,1.4311341,9.413403,1.7160441
60,1438343227181,1.4688427,9.224859,1.7351977
61,1438343227203,1.5263035,9.202713,1.7232267
62,1438343227220,1.3700819,9.320028,1.8243817
63,1438343227243,1.323395,9.313444,1.7010803
64,1438343227264,1.3694834,9.347562,1.5556326
65,1438343227280,1.3988123,9.393052,1.7106571
66,1438343227303,1.377863,9.558251,1.9135658
67,1438343227324,1.5089456,9.627085,1.6986861
68,1438343227342,1.5735891,9.46009,1.5107412
69,1438343227362,1.6358383,9.383475,1.4670471
70,1438343227383,1.5334862,9.241618,1.4077905
71,1438343227403,1.411382,9.17099,1.1941081
72,1438343227422,1.5107412,9.258977,1.3694834
73,1438343227441,1.4646529,9.341577,1.5089456
74,1438343227466,1.5574282,9.36492,1.3988123
75,1438343227486,1.453879,9.285912,1.2689269
76,1438343227503,1.3329718,9.428367,1.1258733
77,1438343227521,1.3066356,9.481637,1.1593921
78,1438343227587,1.3485341,9.214684,1.1162965
79,1438343227588,1.5071499,9.135675,1.1133038
80,1438343227592,1.5652094,9.313444,1.0905589
81,1438343227606,1.5676036,9.321226,0.92895025
82,1438343227620,1.6831238,9.229648,0.8690952
83,1438343227644,1.8016368,9.276335,0.943914
84,1438343227660,1.7729063,9.386468,1.01574
85,1438343227680,1.7196354,9.239823,0.8170213
86,1438343227701,1.7010803,9.260174,0.7667431
87,1438343227722,1.8764555,9.345168,0.46866497
88,1438343227741,1.922544,9.326612,0.60214174
89,1438343227769,1.9369092,9.167996,0.50757074
90,1438343227780,1.9201498,9.288904,0.39085343
91,1438343227801,1.7112557,9.426571,0.42317516
92,1438343227822,1.5676036,9.597756,0.59974754
93,1438343227843,1.6250644,9.762956,0.919972
94,1438343227862,1.6555905,9.576208,1.0205284
95,1438343227883,1.4945804,9.448717,0.83018947
96,1438343227902,1.2683283,9.454104,0.81881696
97,1438343227922,0.9744401,9.308058,0.6757634
98,1438343227945,1.5113398,9.600749,1.2641385
99,1438343227961,1.8423382,9.664794,1.5275006
100,1438343227982,1.5263035,9.187749,1.2802993
101,1438343228001,1.2449849,9.069835,1.5442601
102,1438343228022,1.1737574,9.295488,1.5747862
103,1438343228042,0.9235633,9.438541,1.2491747
104,1438343228063,0.8122329,9.371504,1.0414777
105,1438343228082,0.89603,9.149442,1.2952632
106,1438343228103,1.0755951,9.115923,1.8938135
107,1438343228121,1.2557588,9.2625675,2.1906946
108,1438343228143,1.3640964,9.4062195,2.2110453
109,1438343228162,1.472434,9.558251,2.0644004
110,1438343228184,1.5125369,9.582792,1.8046296
111,1438343228204,1.5065514,9.518148,1.6310499
112,1438343228225,1.4568717,9.370906,1.6011224
113,1438343228244,1.4413095,9.299079,1.6292542
114,1438343228264,1.4676456,9.332599,1.7112557
115,1438343228315,1.520318,9.36911,1.6777369
116,1438343228316,1.5981296,9.329007,1.6118963
117,1438343228324,1.6124948,9.272743,1.6065093
118,1438343228340,1.6071079,9.237429,1.6514006
119,1438343228361,1.602918,9.221867,1.6891093
120,1438343228381,1.5849615,9.238028,1.6675615
121,1438343228401,1.5747862,9.312846,1.6166847
122,1438343228423,1.5652094,9.344569,1.6178818
123,1438343228448,1.5921441,9.317635,1.6531962
124,1438343228464,1.6077064,9.311649,1.7088615
125,1438343228481,1.6232687,9.292496,1.6932992
126,1438343228502,1.6759412,9.311649,1.6124948
127,1438343228528,1.690905,9.275736,1.6077064
128,1438343228542,1.7118542,9.267356,1.5921441
129,1438343228564,1.6723499,9.263166,1.6005238
130,1438343228584,1.6657659,9.31105,1.6298528
131,1438343228604,1.6932992,9.339781,1.6412252
132,1438343228624,1.6603789,9.326612,1.6077064
133,1438343228644,1.6663644,9.305065,1.6005238
134,1438343228664,1.6430209,9.281123,1.5628152
135,1438343228683,1.6214731,9.302073,1.5053543
136,1438343228704,1.6035166,9.285912,1.5400703
137,1438343228724,1.5957354,9.309255,1.5574282
138,1438343228744,1.6232687,9.330803,1.5682021
139,1438343228762,1.6178818,9.320028,1.5436616
140,1438343228782,1.6238673,9.2865095,1.5197195
141,1438343228804,1.6496049,9.3343935,1.5173253
142,1438343228823,1.6561891,9.333197,1.5340848
143,1438343228843,1.6831238,9.316438,1.536479
144,1438343228864,1.6915035,9.2865095,1.5556326
145,1438343228884,1.6711528,9.287108,1.5628152
146,1438343228906,1.666963,9.296086,1.5891514
147,1438343228926,1.666963,9.317036,1.5867572
148,1438343228944,1.6466122,9.290101,1.6005238
149,1438343228963,1.62686,9.288904,1.5777789
150,1438343228982,1.6041151,9.321824,1.5873557
151,1438343229002,1.6011224,9.31105,1.5825673
152,1438343229023,1.578976,9.307459,1.5927427
153,1438343229041,1.5520413,9.293693,1.578976
154,1438343229111,1.560421,9.307459,1.5993267
155,1438343229112,1.5586253,9.312846,1.5969325
156,1438343229113,1.5735891,9.317036,1.5867572
157,1438343229121,1.5897499,9.315839,1.6089035
158,1438343229141,1.5610195,9.282919,1.596334
159,1438343229163,1.5472529,9.276933,1.5783775
160,1438343229181,1.5490485,9.313444,1.6017209
161,1438343229202,1.5352819,9.321824,1.6101006
162,1438343229221,1.5233108,9.305663,1.6555905
163,1438343229244,1.5275006,9.305663,1.6609775
164,1438343229265,1.5197195,9.31524,1.6334441
165,1438343229283,1.5131354,9.296685,1.614889
166,1438343229304,1.508347,9.307459,1.5921441
167,1438343229325,1.5053543,9.309255,1.5807717
168,1438343229345,1.496376,9.324817,1.5795746
169,1438343229363,1.5047557,9.311649,1.5693992
170,1438343229384,1.4862007,9.323022,1.5125369
171,1438343229404,1.4873978,9.31943,1.555034
172,1438343229423,1.4969746,9.317635,1.5741876
173,1438343229442,1.5149311,9.35235,1.5658079
174,1438343229466,1.532289,9.326612,1.5598224
175,1438343229482,1.5053543,9.277532,1.543063
176,1438343229510,1.4784195,9.302073,1.584363
177,1438343229522,1.4790181,9.317036,1.6047137
178,1438343229544,1.4808137,9.3583355,1.6310499
179,1438343229567,1.4802152,9.356541,1.6466122
180,1438343229584,1.4879963,9.340978,1.5861586
181,1438343229604,1.4784195,9.333796,1.5346833
182,1438343229622,1.4999673,9.31524,1.5047557
183,1438343229642,1.5191209,9.360131,1.4826094
184,1438343229662,1.5753847,9.375095,1.4652514
185,1438343229682,1.5861586,9.3499565,1.4502877
186,1438343229702,1.5813702,9.357738,1.4359225
187,1438343229722,1.6250644,9.34038,1.4562732
188,1438343229742,1.6418238,9.264363,1.5185224
189,1438343229762,1.6561891,9.390657,1.6334441
190,1438343229792,1.6663644,9.463082,1.7070658
191,1438343229813,1.6394296,9.504382,1.7651252
192,1438343229823,1.5813702,9.68275,1.8567034
193,1438343229842,1.5448587,9.937134,2.0231004
194,1438343229862,1.5999253,9.910798,2.4211364
195,1438343229882,1.5699978,10.0903635,3.052607
196,1438343229902,1.8477252,10.6117,3.1908724
197,1438343229922,2.046444,10.411186,2.11827
198,1438343229944,1.8022354,9.524135,0.66020113
199,1438343229962,1.3162124,9.3260145,1.2731167
200,1438343229983,1.0414777,9.419987,1.9752164
201,1438343230004,1.027711,9.053674,1.8189948
202,1438343230024,0.83378077,8.413225,1.353921
203,1438343230043,1.039682,8.040926,1.389834
204,1438343230065,1.4736311,8.177995,1.8740613
205,1438343230085,1.5352819,8.608951,2.3349452
206,1438343230103,1.3509283,9.089587,2.4001873
207,1438343230124,1.1162965,9.107543,2.4474726
208,1438343230146,1.0965444,8.799889,2.6282349
209,1438343230165,0.88765025,8.372523,2.7030537
210,1438343230186,0.89303726,8.395268,2.633622
211,1438343230205,0.90620536,8.658031,2.801216
212,1438343230224,1.1354501,8.924387,2.9646204
213,1438343230243,1.1659763,9.062652,3.0663738
214,1438343230266,0.82599956,9.540296,3.4901476
215,1438343230286,0.7667431,9.579201,3.3728316
216,1438343230306,0.8122329,9.105149,3.7295678
217,1438343230324,0.79367787,8.618527,3.5326445
218,1438343230346,0.56802434,8.282741,3.0430303
219,1438343230365,0.49919105,8.322844,2.6725276
220,1438343230385,0.5351041,8.304887,2.7329812
221,1438343230408,0.53091425,8.2169,2.7994204
222,1438343230423,0.4866215,8.194156,2.814384
223,1438343230445,0.11133038,8.074445,2.9233203
224,1438343230473,0.32321724,8.534132,3.0843303
225,1438343230488,-0.075417355,8.6095495,2.4762032
226,1438343230585,0.37708676,8.499416,2.0129251
227,1438343230586,0.44831428,7.837419,1.5053543
228,1438343230587,0.52612585,7.143699,1.283292
229,1438343230588,0.6739678,7.0186024,1.5233108
230,1438343230589,0.7015011,6.5607114,1.7411832
231,1438343230604,0.7188591,5.7323174,1.751957
232,1438343230632,0.7882909,4.8638206,1.8022354
233,1438343230643,0.9756372,4.6100354,2.1972785
234,1438343230663,1.2198458,5.4420204,2.6491842
235,1438343230684,1.2246342,7.74225,1.8680758
236,1438343230704,1.3275849,11.261726,1.1282675
237,1438343230725,1.6124948,12.637794,0.64583594
238,1438343230744,1.1851299,10.969634,0.78529817
239,1438343230766,1.0187328,9.059061,1.8369513
240,1438343230784,0.97743285,7.748235,1.9716251
241,1438343230806,0.97025025,7.1006036,1.2743138
242,1438343230826,1.8124107,9.388264,0.7314286
243,1438343230844,4.644751,14.581885,4.2862196
244,1438343230866,3.4033577,18.145056,6.5247984
245,1438343230886,2.4139538,14.086286,2.6551697
246,1438343230906,0.89423436,9.356541,-3.5452142
247,1438343230927,3.4063504,4.312556,-3.6493618
248,1438343230944,4.857237,4.2275615,-0.39803603
249,1438343230966,2.7090392,8.449737,0.4237737
250,1438343230986,-0.83497787,14.478935,-1.3617022
251,1438343231006,-4.601057,16.67741,1.484405
252,1438343231025,-4.256292,16.7229,2.5121162
253,1438343231044,1.6238673,13.263878,0.6386533
254,1438343231064,5.571307,5.917868,0.7314286
255,1438343231087,3.876811,5.269039,4.435259
256,1438343231107,2.4193408,9.471462,2.7377696
257,1438343231130,0.7404069,11.229404,-1.5658079
258,1438343231144,-0.4249708,9.436148,-0.56443304
259,1438343231166,1.6220716,9.376891,1.6484078
260,1438343231184,2.297835,7.8062944,2.682703
261,1438343231206,1.7866731,7.750031,2.0811598
262,1438343231224,1.1941081,8.560468,-0.29149407
263,1438343231336,0.78050977,8.199542,2.146402
264,1438343231337,1.2677298,7.3226657,1.9907787
265,1438343231338,2.4127567,7.8086886,2.4809916
266,1438343231339,1.0773908,8.241441,2.719813
267,1438343231340,0.30166942,8.225879,-0.6835446
268,1438343231392,-0.22026655,7.6321163,-0.21906945
269,1438343231393,-1.3557167,8.003817,1.5340848
270,1438343231394,-0.07182605,8.271368,-1.0522517
271,1438343231403,0.3669114,8.019978,0.10235212
272,1438343231425,0.6015432,7.5411367,1.5927427
273,1438343231485,1.4670471,7.3232646,0.9235633
274,1438343231486,1.2689269,7.3190746,0.31064767
275,1438343231487,1.6891093,9.733627,3.0358477
276,1438343231516,1.7058687,11.440693,0.19572599
277,1438343231526,3.413533,14.877569,1.7286136
278,1438343231546,4.0360255,16.319477,4.2281604
279,1438343231564,4.1916485,13.98513,2.3948002
280,1438343231587,3.3357215,9.619903,2.6635494
281,1438343231607,5.446809,13.070545,6.4026937
282,1438343231627,5.61979,11.7681,6.7480574
283,1438343231646,3.2932243,8.137892,4.718373
284,1438343231665,2.7144263,7.08983,5.5503583
285,1438343231687,3.0639796,7.438186,5.263054
286,1438343231707,3.4003649,7.023989,5.3324857
287,1438343231727,2.949058,5.3606176,4.751293
288,1438343231752,2.5133133,4.2425256,4.648941
289,1438343231765,2.0829554,3.5913026,4.56694
290,1438343231787,1.5520413,3.4003649,4.1916485
291,1438343231807,1.809418,4.1706996,3.252523
292,1438343231827,2.0410569,4.7722425,2.719813
293,1438343231845,1.536479,5.492897,2.7754784
294,1438343231865,0.9451111,6.35062,3.5655649
295,1438343231887,0.78170687,7.1742253,4.119224
296,1438343231907,1.0714053,8.240244,4.209605
297,1438343231927,1.0181342,9.567828,4.7536874
298,1438343231947,-0.004189853,11.617265,4.824915
299,1438343231965,-0.9636662,10.502765,4.821324
300,1438343231986,-0.27234045,8.926183,4.474763
301,1438343232005,0.38367084,8.141483,3.9336734
302,1438343232136,0.5069722,8.037335,3.0059202
303,1438343232137,0.35434186,7.501034,2.0284874
304,1438343232138,0.8523358,7.9331875,2.2559366
305,1438343232139,2.3187842,8.404845,2.9777884
306,1438343232140,3.5996823,7.7584105,2.119467
307,1438343232141,3.318962,6.072294,1.4802152
308,1438343232152,2.8455088,4.8518496,2.0219033
309,1438343232182,2.212841,5.801151,2.2337902
310,1438343232184,2.5270798,7.9206176,1.3640964
311,1438343232204,2.5767596,9.7863,1.7280151
312,1438343232229,2.2343888,10.33936,2.8886044
313,1438343232256,2.047641,12.7335615,2.4588451
314,1438343232267,1.5101427,15.002068,0.5009867
315,1438343232286,3.6164417,12.29662,-1.3311762
316,1438343232304,9.116522,8.727464,8.172607
317,1438343232325,3.8672342,9.829395,1.8022354
318,1438343232346,0.91697925,14.961367,-10.272323
319,1438343232369,-3.6409822,16.138716,-3.3674448
320,1438343232385,-2.6521769,12.377424,3.9839516
321,1438343232408,-1.7818847,8.245032,2.1320367
322,1438343232425,1.0714053,10.174759,-1.6765398
323,1438343232447,3.4811692,13.115437,0.17896658
324,1438343232472,0.5883751,9.96347,2.6449943
325,1438343232487,1.1330559,7.763199,2.6755204
326,1438343232505,2.0153193,7.6943655,1.5400703
327,1438343232527,1.6412252,8.722675,0.86610246
328,1438343232547,1.1079168,9.805453,1.7262194
329,1438343232568,0.3298013,8.7532015,2.498948
330,1438343232585,1.0486604,7.1927805,2.2517467
331,1438343232606,1.7908629,5.6102133,0.52732295
332,1438343232625,-0.061052144,5.6748567,0.8194155
333,1438343232647,0.21906945,9.509769,2.581548
334,1438343232671,0.41479546,8.772355,2.3199813
335,1438343232687,0.61112,4.313753,0.3752911
336,1438343232708,0.6973112,7.049727,0.35434186
337,1438343232726,-0.24001873,9.970055,3.5230677
338,1438343232745,-0.8535329,8.089409,3.7421372
339,1438343232765,-0.1604115,6.706159,-0.45729253
340,1438343232786,-0.004189853,8.974067,-2.082357
341,1438343232866,1.0510546,11.866262,0.4405331
342,1438343232867,4.8763905,17.74343,1.8698715
343,1438343232868,8.969278,15.890915,1.429937
344,1438343232869,5.481525,9.900622,-0.3369839
345,1438343232885,3.1184478,8.968081,2.0326772
346,1438343232905,5.1020436,10.955867,10.909779
347,1438343232925,8.065467,12.495937,9.210494
348,1438343232945,9.185355,11.811794,6.1477113
349,1438343232966,5.8586116,6.302736,1.7316064
350,1438343232986,3.0963013,3.2543187,4.0497923
351,1438343233007,2.0213048,1.5400703,3.3859997
352,1438343233027,0.587178,0.9008184,3.0095115
353,1438343233047,3.232771,2.8215668,2.7401638
354,1438343233068,3.8738184,4.1036615,2.4785974
355,1438343233086,3.0358477,4.5872903,1.6537948
356,1438343233108,2.5306711,4.0342298,3.4165258
357,1438343233125,2.3523033,3.70802,4.9081135
358,1438343233145,0.9516952,5.329493,4.97156
359,1438343233168,0.84934306,9.211691,6.537368
360,1438343233185,0.99419224,14.981118,6.882133
361,1438343233208,1.3599066,15.693394,4.3568487
362,1438343233230,0.8702923,10.038888,2.1122844
363,1438343233247,2.0069396,6.791752,3.0382419
364,1438343233268,4.040814,5.4144874,4.3179426
365,1438343233289,6.206968,5.504868,2.7257986
366,1438343233306,6.6163764,6.3392477,0.19273324
367,1438343233326,7.3430166,10.708666,2.0446482
368,1438343233351,9.179968,15.639524,3.7337575
369,1438343233368,1.5658079,9.582193,8.219295
370,1438343233392,0.55006784,12.023681,-5.8508306
371,1438343233408,-0.095768064,19.608511,-11.908759
372,1438343233426,-1.0013748,13.838486,2.1374235
373,1438343233451,0.66259533,8.180987,7.0994067
374,1438343233469,1.5227122,7.9726915,-0.34596214
375,1438343233490,-0.0077811554,9.345766,-3.1471782
376,1438343233596,-0.093373865,13.156737,4.8482585
377,1438343233597,0.6099229,12.161347,3.9199066
378,1438343233598,1.3455414,8.768764,-0.7751228
379,1438343233599,2.8927941,8.127118,-0.110133275
380,1438343233600,2.8904,7.069479,1.1785458
381,1438343233610,2.0590134,6.3153057,1.3700819
382,1438343233638,1.7435774,6.3697734,1.1569979
383,1438343233647,0.5374983,6.518214,1.0803835
384,1438343233666,-0.8912416,7.727286,1.2108675
385,1438343233689,-0.83018947,9.251195,2.6605566
386,1438343233706,2.0973208,7.0425444,1.3617022
387,1438343233729,3.4614172,5.6910176,0.95468795
388,1438343233747,2.6384103,7.1867948,2.2469583
389,1438343233772,-1.2348095,9.758766,4.032434
390,1438343233789,-2.8514943,8.359954,0.6931214
391,1438343233808,-2.35769,7.102998,-1.3587095
392,1438343233829,-0.9672575,6.8731546,-0.7541735
393,1438343233850,-0.4890157,8.811859,0.93493575
394,1438343233869,0.41000703,11.852495,0.8026561
395,1438343233889,1.7369933,13.342886,-0.8206126
396,1438343233909,3.845088,13.132795,0.8822633
397,1438343233929,8.678981,11.812991,3.8247373
398,1438343233950,8.695741,11.660361,5.5826797
399,1438343233971,5.569512,13.085509,7.6764092
400,1438343233987,5.915474,15.19121,3.2453403
401,1438343234010,7.1951747,14.793773,-0.23642741
402,1438343234029,8.219893,10.54586,5.6084175
403,1438343234047,4.6261964,5.1648917,5.872977
404,1438343234067,1.5358804,3.1172507,2.7700913
405,1438343234091,0.5141548,1.9207484,3.0699651
406,1438343234106,0.6039374,1.822586,0.6242881
407,1438343234131,2.4361002,3.6373909,1.365892
408,1438343234149,3.1771057,4.3418846,1.8375498
409,1438343234167,3.2225955,4.115034,1.8064252
410,1438343234186,2.8209682,3.980959,0.45549688
411,1438343234206,1.3940239,5.9878983,-0.48243165
412,1438343234230,0.9415198,12.141596,1.6089035
413,1438343234246,1.614889,16.31469,4.734534
414,1438343234318,1.3940239,13.973758,1.5292963
415,1438343234319,0.8050503,8.842984,0.3866636
416,1438343234321,3.86903,7.3310456,3.8175547
417,1438343234328,5.5419784,6.8486137,7.2819643
418,1438343234350,5.699397,6.6295447,5.931036
419,1438343234371,5.6766524,8.41921,-1.3012487
420,1438343234386,4.9464207,10.346542,-3.8851907
421,1438343234406,2.961029,14.518439,2.5887306
422,1438343234431,1.0217255,13.526043,3.8432922
423,1438343234455,-0.47165772,9.657013,2.1158757
424,1438343234471,0.8439561,10.415376,-3.5793316
