id,attr_time,attr_x,attr_y,attr_z
1,1438189988403,0.48482585,9.886257,-1.9590555
2,1438189988450,0.45250413,9.888652,-1.9734207
3,1438189988451,0.4794389,9.861717,-1.9494787
4,1438189988462,0.50637364,9.889849,-1.9602526
5,1438189988482,0.49679685,9.886257,-1.9865888
6,1438189988509,0.4997896,9.896433,-1.9536686
7,1438189988524,0.4758476,9.888053,-1.9782091
8,1438189988566,0.4794389,9.885659,-1.9500773
9,1438189988567,0.47644615,9.898229,-1.9794062
10,1438189988582,0.4866215,9.897031,-1.9895816
11,1438189988605,0.480636,9.888652,-1.9560628
12,1438189988626,0.49559975,9.895236,-1.9488802
13,1438189988643,0.46148238,9.895834,-1.9602526
14,1438189988662,0.47524905,9.88925,-1.9716251
15,1438189988683,0.4782418,9.891046,-1.9746178
16,1438189988704,0.47465047,9.888053,-1.9818004
17,1438189988725,0.4902128,9.895236,-1.9662381
18,1438189988745,0.46866497,9.8916445,-1.9692309
19,1438189988765,0.4830302,9.887454,-1.9776106
20,1438189988785,0.46627077,9.87668,-1.9656396
21,1438189988804,0.47884035,9.871294,-1.9812019
22,1438189988825,0.4854244,9.902418,-1.9578584
23,1438189988865,0.4866215,9.88925,-1.9752164
24,1438189988866,0.50517654,9.885659,-1.9752164
25,1438189988884,0.48482585,9.895834,-1.9877859
26,1438189988905,0.4914099,9.898827,-1.958457
27,1438189988924,0.4794389,9.88925,-1.9716251
28,1438189988945,0.46746787,9.883863,-1.9871874
29,1438189988965,0.48362875,9.874885,-1.9865888
30,1438189988985,0.48841715,9.894038,-1.977012
31,1438189989006,0.48841715,9.89344,-1.977012
32,1438189989025,0.48841715,9.880272,-1.970428
33,1438189989045,0.47764325,9.903615,-1.9674352
34,1438189989065,0.48602295,9.871294,-1.9800048
35,1438189989085,0.47764325,9.886257,-1.9794062
36,1438189989106,0.46327803,9.892841,-1.9859903
37,1438189989125,0.47524905,9.869498,-2.0015526
38,1438189989180,0.4985925,9.8916445,-1.9835961
39,1438189989193,0.5057751,9.888652,-1.9782091
40,1438189989194,0.46926352,9.886856,-1.9865888
41,1438189989203,0.47285482,9.880272,-2.0093338
42,1438189989229,0.39743748,9.900024,-2.0697873
43,1438189989243,0.36511576,9.85214,-2.0506337
44,1438189989265,0.4225766,9.895834,-1.9698294
45,1438189989284,0.45250413,9.88506,-1.9434932
46,1438189989302,0.52253455,9.88506,-1.9021933
47,1438189989325,0.53809685,9.888053,-1.9434932
48,1438189989343,0.50158525,9.879075,-1.9578584
49,1438189989365,0.47105917,9.865907,-1.9357121
50,1438189989382,0.47105917,9.888053,-1.9716251
51,1438189989406,0.47764325,9.882666,-1.9590555
52,1438189989425,0.4950012,9.880272,-1.9662381
53,1438189989446,0.5021838,9.877877,-1.9422961
54,1438189989466,0.49559975,9.873089,-1.9614497
55,1438189989486,0.46028528,9.8994255,-1.9829975
56,1438189989506,0.39983168,9.882068,-2.005144
57,1438189989525,0.39504328,9.878476,-2.0129251
58,1438189989545,0.40821138,9.8916445,-2.0123265
59,1438189989566,0.42556936,9.886856,-2.0099323
60,1438189989583,0.4381389,9.905411,-1.9973627
61,1438189989606,0.46507367,9.879673,-2.011728
62,1438189989626,0.46627077,9.892242,-2.0057425
63,1438189989646,0.45669398,9.898229,-2.006341
64,1438189989667,0.44951138,9.885659,-2.0027497
65,1438189989684,0.44113165,9.886257,-1.9931729
66,1438189989707,0.44352585,9.883863,-1.9913772
67,1438189989726,0.44711718,9.877279,-2.022502
68,1438189989746,0.46088383,9.891046,-1.9764135
69,1438189989767,0.46507367,9.871294,-2.0159178
70,1438189989787,0.42437226,9.878476,-1.9919758
71,1438189989808,0.44711718,9.878476,-2.0093338
72,1438189989826,0.4357447,9.892242,-1.9955671
73,1438189989930,0.42197806,9.8916445,-2.0015526
74,1438189989931,0.4417302,9.895236,-1.9979613
75,1438189989932,0.4177882,9.878476,-2.0165164
76,1438189989933,0.42078096,9.869498,-2.0099323
77,1438189989934,0.43035775,9.891046,-2.0189106
78,1438189989949,0.41718966,9.8754835,-2.0326772
79,1438189989965,0.44771573,9.885659,-2.0123265
80,1438189989984,0.439336,9.873688,-2.0332758
81,1438189990005,0.48003745,9.892841,-2.0254946
82,1438189990024,0.47105917,9.886856,-2.011728
83,1438189990044,0.45609543,9.876082,-2.018312
84,1438189990067,0.47165772,9.890448,-2.0015526
85,1438189990085,0.48841715,9.89344,-2.0093338
86,1438189990108,0.47225627,9.871294,-1.9913772
87,1438189990126,0.48482585,9.886257,-2.010531
88,1438189990146,0.48003745,9.886856,-2.0248961
89,1438189990163,0.45968673,9.871294,-2.0135236
90,1438189990185,0.44771573,9.873089,-2.0284874
91,1438189990207,0.46327803,9.879075,-2.0093338
92,1438189990227,0.43634325,9.880272,-2.0171149
93,1438189990247,0.46806642,9.868899,-2.0189106
94,1438189990267,0.46208093,9.882068,-2.0135236
95,1438189990287,0.47764325,9.877279,-2.0087352
96,1438189990306,0.44711718,9.8994255,-2.0081367
97,1438189990324,0.46627077,9.873089,-1.9913772
98,1438189990347,0.47405192,9.857527,-1.9979613
99,1438189990365,0.5009867,9.903615,-1.9955671
100,1438189990387,0.49320555,9.902418,-2.0069396
101,1438189990405,0.45489833,9.903017,-2.0248961
102,1438189990428,0.4189853,9.869498,-2.0404584
103,1438189990448,0.37948096,9.841965,-2.0458453
104,1438189990469,0.39743748,9.873688,-2.055422
105,1438189990487,0.4973954,9.868899,-2.022502
106,1438189990505,0.5291186,9.919178,-2.03567
107,1438189990524,0.46986207,9.891046,-2.0201077
108,1438189990546,0.46986207,9.855731,-2.0266917
109,1438189990565,0.4369418,9.864111,-2.0141222
110,1438189990587,0.44532153,9.879075,-2.0087352
111,1438189990650,0.45250413,9.871892,-2.0470424
112,1438189990651,0.46686932,9.8916445,-2.0272903
113,1438189990652,0.47225627,9.880272,-2.0470424
114,1438189990665,0.45549688,9.871892,-2.0548236
115,1438189990689,0.4429273,9.8677025,-2.023699
116,1438189990705,0.45130703,9.8677025,-2.0248961
117,1438189990725,0.49081135,9.882666,-2.0069396
118,1438189990746,0.4961983,9.900024,-2.0248961
119,1438189990766,0.50397944,9.895834,-2.005144
120,1438189990785,0.47225627,9.880272,-2.0350714
121,1438189990805,0.46327803,9.846753,-2.0416555
122,1438189990825,0.44711718,9.940725,-2.0799627
123,1438189990849,0.5153519,10.001179,-2.31639
124,1438189990866,0.30705637,9.862315,-2.0961237
125,1438189990884,0.46387658,9.877877,-2.2242134
126,1438189990906,0.18315643,9.725846,-1.9967642
127,1438189990927,-0.089184016,9.689933,-1.8321629
128,1438189990947,0.81761986,10.053851,-1.845331
129,1438189990967,0.760159,9.8437605,-2.0721815
130,1438189990987,0.3573346,9.7563715,-2.5139117
131,1438189991007,0.29209262,9.834782,-2.2876596
132,1438189991026,0.21308395,9.901221,-2.111686
133,1438189991047,0.017357962,9.844957,-2.019509
134,1438189991067,-0.16280572,9.776124,-2.042254
135,1438189991086,-0.45190558,9.785701,-1.9207484
136,1438189991106,-1.2072762,9.494805,-2.0853498
137,1438189991126,-1.6579847,9.390059,-1.9578584
138,1438189991151,-1.2719196,9.668385,-0.76434886
139,1438189991168,-0.14784196,9.610326,-1.4431051
140,1438189991188,-0.21787235,8.277952,-2.859874
141,1438189991207,4.213795,6.8605847,-2.0973208
142,1438189991224,9.150639,9.353547,1.0600328
143,1438189991244,1.5161282,10.289082,-0.6476316
144,1438189991265,0.6871359,8.950723,-2.641403
145,1438189991285,6.4840965,9.218874,-0.80804306
146,1438189991305,6.8025255,8.396465,-0.9223662
147,1438189991386,6.4481835,8.524555,-0.22744916
148,1438189991387,8.199542,9.494805,0.99778354
149,1438189991388,7.5171947,10.208278,0.3800795
150,1438189991389,8.0684595,10.771513,-0.92775315
151,1438189991406,9.232041,12.091916,-2.1559787
152,1438189991425,8.772954,14.365211,-2.7730842
153,1438189991445,6.701969,18.48264,-3.1082723
154,1438189991465,0.93493575,19.172169,-1.7447745
155,1438189991486,-0.6278794,13.734338,-1.2659341
156,1438189991505,0.51355624,8.520366,-1.7423803
157,1438189991525,0.18016368,2.1404164,-0.21428105
158,1438189991546,5.9597664,0.5626374,-4.180875
159,1438189991568,1.448492,2.8167782,-1.6897079
160,1438189991587,3.4261026,2.0536265,-3.0202854
161,1438189991608,1.3682863,1.2437878,-0.19931729
162,1438189991628,1.1258733,-0.11133038,0.5021838
163,1438189991648,1.0953473,-0.22924481,0.3633201
164,1438189991668,0.044891283,0.15741876,0.58298814
165,1438189991686,2.1452048,-0.9947908,2.0895395
166,1438189991708,11.323976,6.4900823,-6.345233
167,1438189991728,3.9995139,19.608511,0.23223756
168,1438189991748,-9.783905,8.176199,-3.6014779
169,1438189991766,1.158195,19.484612,-7.291541
170,1438189991788,13.3943615,14.440029,-0.57400984
171,1438189991808,9.629479,6.884527,-0.074220255
172,1438189991827,12.385804,5.2319293,3.0484173
173,1438189991845,9.432556,7.764396,2.6372132
174,1438189991867,7.8847046,14.6602955,0.5847838
175,1438189991888,7.81228,19.508554,-1.8285716
176,1438189991909,6.001665,19.608511,-2.9454668
177,1438189991929,4.4262805,19.582775,-1.4760253
178,1438189991948,3.6733038,16.052525,-0.8822633
179,1438189991968,2.4001873,11.804013,-0.11851298
180,1438189991987,0.9223662,8.045714,-0.9576807
181,1438189992007,0.18854338,4.5633483,-1.435324
182,1438189992026,3.2477345,1.3437457,-4.0054994
183,1438189992049,6.4685345,2.0548236,-2.204461
184,1438189992113,6.117784,2.9191303,-1.1390414
185,1438189992114,0.25139117,2.5635915,-0.14604631
186,1438189992115,-0.86969376,0.5979519,-1.3958195
187,1438189992126,0.10414778,0.21188685,-0.480636
188,1438189992149,0.85891986,0.10414778,-0.26635495
189,1438189992166,1.4155718,-0.6386533,1.5526398
190,1438189992186,7.689577,-2.790442,-3.6924577
191,1438189992216,12.202647,13.396755,-10.061034
192,1438189992226,-1.2485762,11.575367,0.5117606
193,1438189992247,0.4914099,13.700221,-10.969035
194,1438189992265,8.358757,17.221493,-4.26527
195,1438189992288,8.651448,15.586852,0.93613285
196,1438189992306,8.180388,15.375564,5.351041
197,1438189992329,8.698733,12.3876,3.2399535
198,1438189992349,10.867282,11.240178,-0.66379243
199,1438189992369,10.668563,14.050373,-1.7633295
200,1438189992387,8.02716,16.779163,-2.292448
201,1438189992410,5.7395,19.334375,-3.228581
202,1438189992429,4.2131963,17.847576,-2.569577
203,1438189992449,2.753332,13.763068,-0.40821138
204,1438189992469,-1.0977415,8.404845,-1.8130093
205,1438189992489,0.2669535,5.965752,-2.9831753
206,1438189992506,1.3162124,1.4000094,-2.9125464
207,1438189992529,6.3260794,1.3239936,-4.968567
208,1438189992547,6.411672,2.4133554,-2.7976246
209,1438189992566,3.5422213,2.6599581,-1.2880806
210,1438189992586,0.56323594,2.106299,0.2837129
211,1438189992609,0.23104046,0.039504327,-0.2088941
212,1438189992632,0.5374983,0.35314476,0.5554548
213,1438189992649,0.011372458,0.37229836,0.7074866
214,1438189992669,-0.16938977,-0.37948096,2.5198972
215,1438189992686,8.130111,-2.6491842,-4.0019083
216,1438189992714,13.676877,15.029002,-5.614403
217,1438189992726,-5.9609637,14.073117,6.5307837
218,1438189992746,2.421735,13.5457945,-16.670227
219,1438189992766,-0.48362875,15.506047,-5.439028
220,1438189992804,14.211383,10.119692,-0.51834464
221,1438189992811,9.474455,11.523293,1.4137762
222,1438189992827,6.8228765,19.449896,4.292804
223,1438189992856,6.1465144,14.523826,0.7697359
224,1438189992867,12.976573,9.977836,-0.46327803
225,1438189992887,9.791686,13.124415,-0.40761283
226,1438189992906,8.113351,16.800713,-0.9367314
227,1438189992926,5.6245785,18.404228,-2.4313118
228,1438189992946,3.3423057,17.333422,-3.6709096
229,1438189992966,3.163339,13.025655,-1.5831659
230,1438189992990,0.8882488,7.9708962,-1.6286557
231,1438189993006,1.780089,5.5563436,-2.9747956
232,1438189993030,2.871845,-0.14604631,-1.8022354
233,1438189993047,5.819107,2.7491422,-3.389591
234,1438189993069,3.2728736,4.0264487,-1.3329718
235,1438189993089,1.5352819,3.0657754,0.04129998
236,1438189993109,-0.20051439,0.46028528,0.5057751
237,1438189993129,1.7220296,0.24540567,-0.374094
238,1438189993151,1.0929531,0.8295909,-0.26874915
239,1438189993169,1.1246762,-0.025139118,1.5436616
240,1438189993189,5.3660045,-3.181894,-3.5847185
241,1438189993209,3.5368345,13.851055,-10.038289
242,1438189993229,-0.12509704,16.060904,-0.60932434
243,1438189993249,3.6391866,17.10298,-8.834005
244,1438189993268,2.973,17.265785,-5.5671177
245,1438189993290,9.871294,11.625047,-0.10594343
246,1438189993309,11.6442,7.1305313,2.4474726
247,1438189993329,10.452486,8.085219,5.441422
248,1438189993349,8.422802,10.639234,5.0140567
249,1438189993369,8.955511,13.871407,1.9488802
250,1438189993390,8.848969,15.70716,-1.858499
251,1438189993410,8.354567,17.761984,-3.205836
252,1438189993429,6.203975,19.047071,-2.6874914
253,1438189993450,5.1786585,16.81807,-2.5139117
254,1438189993470,3.8696284,13.839085,-1.6723499
255,1438189993488,1.3772645,9.791088,-1.4317327
256,1438189993508,0.492607,7.129933,-1.4526819
257,1438189993528,1.5053543,5.122993,-3.1860838
258,1438189993553,3.0113072,1.2659341,-3.465607
259,1438189993692,6.8462195,1.982399,-2.9340942
260,1438189993693,2.9322984,2.369661,-2.3690627
261,1438189993694,0.18076223,2.1254525,-1.4137762
262,1438189993695,-0.82779527,1.0307038,0.79128367
263,1438189993696,0.6757634,-0.89423436,-0.89184016
264,1438189993697,0.7038953,-0.1400608,0.985214
265,1438189993698,0.8086416,0.25857377,1.8004397
266,1438189993722,6.522404,-0.7721301,-1.9458874
267,1438189993727,19.600132,10.018537,-11.224616
268,1438189993747,3.378817,17.645864,8.328231
269,1438189993767,-7.501034,3.6768951,-7.9792757
270,1438189993787,-2.0147207,19.327192,-8.334815
271,1438189993809,12.480375,10.366295,-0.59376204
272,1438189993833,6.0866594,17.793108,-0.075417355
273,1438189993847,3.34051,17.560272,1.9901801
274,1438189993867,10.497377,9.727641,0.46327803
275,1438189993888,11.851298,10.839748,0.14065935
276,1438189993910,8.826224,13.809755,-1.3521254
277,1438189993930,8.360553,16.212934,-2.6862943
278,1438189993950,6.613982,18.828003,-3.9869444
279,1438189993970,4.184466,19.054255,-3.1896753
280,1438189993990,2.1428106,14.597447,-0.842759
281,1438189994009,-0.96306765,8.554482,-1.1486182
282,1438189994029,0.66139823,5.8358665,-2.280477
283,1438189994050,1.2372037,0.8218097,-1.9482816
284,1438189994067,6.4583592,1.7585411,-4.3646297
285,1438189994090,4.8823757,2.730587,-2.606687
286,1438189994110,2.847903,2.2242134,-1.2952632
287,1438189994129,1.7830818,1.411382,-0.32142156
288,1438189994149,0.52852005,0.47644615,1.2437878
289,1438189994170,0.6362591,0.074818805,0.05746084
290,1438189994190,1.09834,0.3764882,-0.15382746
291,1438189994209,0.83378077,-0.38486794,1.3491327
292,1438189994229,9.569026,-1.7513585,-7.021595
293,1438189994250,8.319851,16.803705,-2.5073278
294,1438189994271,-7.1664443,12.812571,2.379238
295,1438189994290,2.267309,15.719131,-11.026496
296,1438189994309,1.8728642,18.322227,-1.9207484
297,1438189994332,10.176555,12.516887,0.39264908
298,1438189994409,9.0315275,7.7254906,2.195483
299,1438189994410,10.216658,10.006566,3.2866404
300,1438189994411,8.174403,19.498379,2.9251158
301,1438189994412,4.462792,11.771092,-2.4672248
302,1438189994429,13.23395,10.9426985,0.02813187
303,1438189994451,7.821857,14.516045,-1.5035586
304,1438189994467,8.024766,17.360954,-2.297835
305,1438189994492,5.805341,18.20551,-3.6032736
306,1438189994508,3.8355112,16.211739,-3.4739866
307,1438189994528,2.1338322,13.2429285,-1.1953052
308,1438189994549,0.8098387,8.328829,-1.3808558
309,1438189994569,2.3050177,5.3169236,-1.1677719
310,1438189994589,2.083554,1.5239093,-1.4065934
311,1438189994609,5.7879825,1.3724761,-3.2746694
312,1438189994628,2.1757307,2.8269536,-1.7812861
313,1438189994651,-0.6596026,2.2625206,-1.1587936
314,1438189994671,1.039682,0.19752164,-0.9552865
315,1438189994691,2.5013423,-0.56563014,-0.27234045
316,1438189994709,2.144606,0.010773907,1.5532384
317,1438189994731,2.2798786,-0.3669114,2.3157916
318,1438189994751,11.625645,-1.6346412,-8.215105
319,1438189994771,13.385384,16.063896,1.6154876
320,1438189994789,-6.081272,13.699622,3.0460231
321,1438189994809,-3.2208,9.913192,-11.157578
322,1438189994828,-2.819771,18.677168,-4.871003
323,1438189994849,15.2570505,11.510723,0.62608373
324,1438189994868,9.173384,12.80479,-0.760159
325,1438189994889,4.853047,17.353174,0.83617496
326,1438189994909,7.0982094,14.978126,2.3720553
327,1438189994928,9.36911,8.190564,-1.4670471
328,1438189994949,10.770915,10.353725,-1.033098
329,1438189994971,8.599374,12.73416,-0.9864111
330,1438189994989,8.825626,14.837466,-0.87687635
331,1438189995010,7.791331,16.795923,-2.2056582
332,1438189995029,5.3378725,17.89965,-2.7844565
333,1438189995053,3.5859156,15.63713,-2.4893713
334,1438189995119,1.7830818,12.289437,-1.1911154
335,1438189995120,0.25378537,7.6069775,-0.9983821
336,1438189995121,1.3868413,5.73112,-1.5023615
337,1438189995131,0.83138657,1.8579005,-1.8950106
338,1438189995159,5.261258,1.863886,-3.4859576
339,1438189995170,4.561553,2.5246856,-2.9131448
340,1438189995188,2.2266076,2.420538,-2.2152352
341,1438189995209,0.5506664,1.7022774,0.17657238
342,1438189995228,1.2605472,-0.076015905,-0.23822308
343,1438189995253,1.6256629,0.10175357,0.31423897
344,1438189995270,1.0929531,0.3890578,1.1174936
345,1438189995291,2.4863784,-0.5093664,0.7092823
346,1438189995310,17.74343,0.8996213,-14.454394
347,1438189995329,14.727333,19.608511,5.923255
348,1438189995351,-13.583504,2.9616275,2.4911668
349,1438189995372,2.2343888,10.891224,-14.371196
350,1438189995392,2.273893,16.497845,-1.5047557
351,1438189995408,8.534731,13.469779,-0.52732295
352,1438189995429,5.237316,16.83902,-0.3286042
353,1438189995452,6.6247563,19.549255,6.0543375
354,1438189995472,6.8731546,8.365939,-1.1085154
355,1438189995489,13.226768,9.133281,-0.10654198
356,1438189995510,8.482059,13.441049,-0.93134445
357,1438189995532,7.8326306,15.935208,-1.6023195
358,1438189995551,6.7211227,17.107769,-2.895787
359,1438189995571,5.1475334,17.332224,-2.5139117
360,1438189995589,3.6966474,14.659099,-0.99419224
361,1438189995610,1.2186487,11.221623,-0.94331545
362,1438189995632,1.0402806,6.953959,-1.6597804
363,1438189995649,2.570774,3.8546648,-1.532289
364,1438189995672,2.248754,1.0271125,-2.6114755
365,1438189995691,5.3660045,1.9351135,-4.2131963
366,1438189995710,4.6273932,2.28347,-2.2038627
367,1438189995730,1.7681179,1.5640123,-1.0283096
368,1438189995750,-0.31364042,1.7375919,0.6775591
369,1438189995772,0.31543607,-0.45848963,-0.97384155
370,1438189995871,1.4203602,0.29508537,-0.38606504
371,1438189995872,1.87047,0.6787562,0.077811554
372,1438189995873,7.780557,-1.5628152,-2.2583308
373,1438189995874,12.679093,11.748946,-1.608305
374,1438189995875,-2.545635,19.266142,2.5845408
375,1438189995897,-9.657611,7.2484455,-5.9064956
376,1438189995909,-0.06464344,18.854338,-9.44752
377,1438189995929,10.83496,12.782643,-1.5993267
378,1438189995949,11.316195,19.397224,0.9139865
379,1438189995971,1.9333179,13.997701,4.8781857
380,1438189995989,8.317456,6.6295447,1.733402
381,1438189996010,12.75511,11.259332,2.3265655
382,1438189996032,7.0742674,9.97604,-0.84455466
383,1438189996049,10.301651,11.174936,-0.4973954
384,1438189996071,8.9842415,13.104663,-1.395221
385,1438189996092,8.349778,15.799337,-2.147599
386,1438189996109,6.575675,18.992603,-3.1370027
387,1438189996130,3.7062242,18.261774,-1.4975731
388,1438189996152,1.5358804,13.894151,-0.47884035
389,1438189996170,0.074818805,8.019379,-1.5556326
390,1438189996192,2.1380222,4.6495395,-2.343325
391,1438189996209,4.7004166,0.25498247,-3.3722332
392,1438189996230,6.742072,3.1381998,-2.778471
393,1438189996252,3.591901,3.3039982,-1.1701661
394,1438189996275,0.97982705,2.8407204,-0.97982705
395,1438189996292,-0.6171055,1.1210849,0.17477672
396,1438189996309,0.46267948,0.15502456,-1.0851719
397,1438189996332,0.49799395,0.89543146,-0.0005985504
398,1438189996355,1.234211,-0.11791443,1.5508442
399,1438189996370,6.351817,-2.5145104,-3.5248635
400,1438189996389,4.75668,13.527838,-6.1943984
401,1438189996412,-1.5987282,16.101604,0.45848963
402,1438189996429,7.225102,6.861782,-10.146626
403,1438189996456,2.166154,19.065027,-4.495114
404,1438189996470,5.0942626,14.64593,-2.8353333
405,1438189996491,8.907029,13.503896,1.7118542
406,1438189996510,8.74542,17.541119,7.1275387
407,1438189996537,4.7979803,13.089699,4.755483
408,1438189996656,10.564415,8.773552,0.50038815
409,1438189996657,10.758944,10.882844,-0.8822633
410,1438189996658,9.503185,13.479356,-0.4985925
411,1438189996659,8.730456,16.109985,-1.6095021
412,1438189996660,7.268198,17.695545,-1.5628152
413,1438189996661,4.9458222,16.763002,-1.922544
