id,attr_time,attr_x,attr_y,attr_z
1,1437228625013,1.4437037,9.932944,-1.4664485
2,1437228625033,1.4993688,9.962872,-1.5574282
3,1437228625050,1.5502456,9.928755,-1.5011644
4,1437228625070,1.5245079,9.922171,-1.489792
5,1437228625093,1.3575124,9.934141,-1.4562732
6,1437228625113,1.4909891,9.973646,-1.4987702
7,1437228625131,1.5580268,9.942521,-1.4796166
8,1437228625151,1.5286977,9.926959,-1.5089456
9,1437228625173,1.3371617,9.879673,-1.4700398
10,1437228625191,1.4281414,9.962872,-1.4520833
11,1437228625213,1.596334,9.953295,-1.4927847
12,1437228625233,1.5580268,9.927557,-1.5466543
13,1437228625251,1.3958195,9.934141,-1.5191209
14,1437228625270,1.316811,9.968259,-1.4879963
15,1437228625291,1.4999673,9.966463,-1.4790181
16,1437228625313,1.5580268,9.901819,-1.5209166
17,1437228625331,1.4496891,9.901819,-1.5197195
18,1437228625351,1.3012487,9.965864,-1.4736311
19,1437228625371,1.4742297,9.968858,-1.5286977
20,1437228625393,1.5969325,9.932944,-1.4766239
21,1437228625465,1.5610195,9.900024,-1.543063
22,1437228625466,1.4131776,9.920375,-1.4867992
23,1437228625467,1.3964181,9.938332,-1.4951789
24,1437228625473,1.5676036,9.964667,-1.4730326
25,1437228625491,1.5921441,9.929353,-1.508347
26,1437228625512,1.5161282,9.916783,-1.5526398
27,1437228625530,1.371279,9.913791,-1.4969746
28,1437228625555,1.4065934,9.947908,-1.5029601
29,1437228625570,1.5161282,9.935937,-1.4460979
30,1437228625591,1.5155296,9.933543,-1.5059528
31,1437228625612,1.4449008,9.907805,-1.5634137
32,1437228625630,1.316811,9.937733,-1.5131354
33,1437228625653,1.4359225,9.945514,-1.5053543
34,1437228625670,1.5448587,9.945514,-1.5149311
35,1437228625699,1.5059528,9.89763,-1.5388732
36,1437228625710,1.4802152,9.888053,-1.5454572
37,1437228625732,1.3718776,9.939528,-1.5089456
38,1437228625750,1.5107412,9.970055,-1.5095441
39,1437228625771,1.5592239,9.933543,-1.5634137
40,1437228625793,1.5328877,9.882068,-1.5759833
41,1437228625839,1.4137762,9.901819,-1.4993688
42,1437228625840,1.3269863,9.937733,-1.5346833
43,1437228625852,1.5825673,9.998186,-1.5885528
44,1437228625876,1.6454151,9.929353,-1.5592239
45,1437228625894,1.5795746,9.8994255,-1.5837644
46,1437228625912,1.3096284,9.898827,-1.4987702
47,1437228625934,1.3210008,9.920973,-1.5598224
48,1437228625953,1.6316484,9.972448,-1.5215151
49,1437228625971,1.536479,9.914988,-1.6047137
50,1437228625991,1.3910311,9.888652,-1.5358804
51,1437228626011,1.30484,9.922769,-1.5233108
52,1437228626032,1.6298528,10.004171,-1.5556326
53,1437228626054,1.6639702,9.904813,-1.5616181
54,1437228626071,1.4939818,9.915586,-1.6358383
55,1437228626093,1.3640964,9.912594,-1.555034
56,1437228626111,1.5640123,9.973047,-1.5735891
57,1437228626140,1.6729485,9.942521,-1.5957354
58,1437228626151,1.620276,9.892841,-1.6011224
59,1437228626198,1.4694413,9.8683,-1.5729905
60,1437228626199,1.2988545,9.934141,-1.5155296
61,1437228626219,1.5897499,9.966463,-1.5807717
62,1437228626231,1.7064673,9.933543,-1.608305
63,1437228626250,1.6053122,9.892242,-1.596334
64,1437228626272,1.3688848,9.891046,-1.5622166
65,1437228626293,1.3437457,9.950901,-1.5005659
66,1437228626314,1.6023195,9.962872,-1.560421
67,1437228626331,1.6160861,9.926959,-1.5562311
68,1437228626352,1.5239093,9.880272,-1.6406267
69,1437228626371,1.3551182,9.904813,-1.5298948
70,1437228626394,1.4389153,9.930551,-1.520318
71,1437228626411,1.5634137,9.947908,-1.5502456
72,1437228626433,1.5454572,9.912594,-1.5508442
73,1437228626454,1.4754268,9.888053,-1.5598224
74,1437228626472,1.3257892,9.966463,-1.501763
75,1437228626493,1.496376,9.956287,-1.541866
76,1437228626514,1.6053122,9.920973,-1.596334
77,1437228626533,1.5514427,9.889849,-1.5646108
78,1437228626554,1.2982559,9.8916445,-1.5286977
79,1437228626572,1.3587095,9.956886,-1.5011644
80,1437228626592,1.5125369,9.968259,-1.5221137
81,1437228626615,1.6232687,9.927557,-1.5783775
82,1437228626631,1.4694413,9.911995,-1.5568297
83,1437228626652,1.2964603,9.949704,-1.5275006
84,1437228626678,1.4000094,9.965864,-1.5047557
85,1437228626692,1.6017209,9.951499,-1.5646108
86,1437228626711,1.5239093,9.915586,-1.5969325
87,1437228626734,1.3916297,9.8916445,-1.5759833
88,1437228626754,1.3413515,9.950901,-1.560421
89,1437228626775,1.4562732,9.959281,-1.5173253
90,1437228626791,1.5610195,9.916783,-1.5598224
91,1437228626812,1.4634558,9.9473095,-1.6226702
92,1437228626831,1.2593501,9.901819,-1.572392
93,1437228626854,1.3964181,9.965864,-1.5292963
94,1437228626873,1.5406688,9.950302,-1.5143325
95,1437228626923,1.5508442,9.912594,-1.5891514
96,1437228626927,1.4413095,9.901819,-1.5819688
97,1437228626950,1.3347675,9.920973,-1.5089456
98,1437228626955,1.4838065,9.938332,-1.532289
99,1437228626972,1.5065514,9.949105,-1.5269021
100,1437228626993,1.4969746,9.935339,-1.590947
101,1437228627011,1.4173675,9.903017,-1.5221137
102,1437228627036,1.3850456,9.932944,-1.5292963
103,1437228627052,1.543063,9.944916,-1.5741876
104,1437228627072,1.6262615,9.926959,-1.5658079
105,1437228627092,1.4520833,9.903615,-1.5568297
106,1437228627112,1.3347675,9.917382,-1.4987702
107,1437228627131,1.4161704,9.982025,-1.5436616
108,1437228627152,1.6555905,9.94312,-1.5298948
109,1437228627171,1.5346833,9.91439,-1.5245079
110,1437228627195,1.4389153,9.910798,-1.5981296
111,1437228627215,1.365892,9.918579,-1.4682442
112,1437228627235,1.4915876,9.959879,-1.4838065
113,1437228627254,1.6232687,9.940127,-1.5400703
114,1437228627275,1.6005238,9.898827,-1.543063
115,1437228627296,1.4359225,9.925761,-1.5221137
116,1437228627315,1.2731167,9.940127,-1.4401124
117,1437228627334,1.5640123,9.985018,-1.4748282
118,1437228627354,1.638831,9.931747,-1.4969746
119,1437228627373,1.572392,9.91798,-1.6089035
120,1437228627392,1.483208,9.8916445,-1.5394717
121,1437228627412,1.299453,9.956287,-1.4041992
122,1437228627435,1.5544355,9.965266,-1.4796166
123,1437228627454,1.6490064,9.92636,-1.5263035
124,1437228627479,1.5616181,9.905411,-1.5508442
125,1437228627495,1.3563153,9.903615,-1.4688427
126,1437228627512,1.3617022,9.961675,-1.4867992
127,1437228627533,1.608305,9.916783,-1.5263035
128,1437228627552,1.6059108,9.898827,-1.5526398
129,1437228627574,1.3808558,9.89763,-1.5221137
130,1437228627592,1.3892355,9.931747,-1.4676456
131,1437228627682,1.5526398,9.949105,-1.460463
132,1437228627683,1.5616181,9.928156,-1.5113398
133,1437228627684,1.5310919,9.908403,-1.5310919
134,1437228627685,1.441908,9.936536,-1.501763
135,1437228627716,1.4443022,9.956287,-1.4544775
136,1437228627718,1.54845,9.935937,-1.553837
137,1437228627741,1.5825673,9.897031,-1.5191209
138,1437228627755,1.4999673,9.914988,-1.5316905
139,1437228627784,1.34195,9.946113,-1.4460979
140,1437228627793,1.4083891,9.951499,-1.4550761
141,1437228627813,1.6543933,9.935339,-1.6172832
142,1437228627833,1.584363,9.919776,-1.5227122
143,1437228627853,1.38325,9.91798,-1.5035586
144,1437228627875,1.371279,9.954493,-1.513734
145,1437228627895,1.5173253,9.959879,-1.4646529
146,1437228627915,1.6184803,9.918579,-1.5047557
147,1437228627935,1.471237,9.917382,-1.567005
148,1437228627954,1.3281834,9.924564,-1.477821
149,1437228627976,1.4616601,9.947908,-1.448492
150,1437228627996,1.5729905,9.935339,-1.4646529
151,1437228628016,1.525705,9.914988,-1.5101427
152,1437228628036,1.5215151,9.920375,-1.5352819
153,1437228628054,1.3395559,9.943718,-1.4520833
154,1437228628074,1.4808137,9.931747,-1.447295
155,1437228628096,1.6376339,9.957485,-1.5059528
156,1437228628116,1.5508442,9.882068,-1.5191209
157,1437228628135,1.353921,9.905411,-1.4466964
158,1437228628153,1.3892355,9.950302,-1.4808137
159,1437228628175,1.5729905,9.939528,-1.4437037
160,1437228628197,1.584363,9.936536,-1.496376
161,1437228628216,1.4305356,9.931747,-1.5023615
162,1437228628237,1.4347254,9.964667,-1.5125369
163,1437228628256,1.5167267,9.952697,-1.477821
164,1437228628273,1.5304934,9.923966,-1.4221559
165,1437228628293,1.4598645,9.930551,-1.5454572
166,1437228628314,1.4191631,9.942521,-1.4610616
167,1437228628335,1.3281834,9.954493,-1.3682863
168,1437228628354,1.6879122,9.991004,-1.4850036
169,1437228628407,1.6496049,9.918579,-1.4921862
170,1437228628410,1.4873978,9.873688,-1.4999673
171,1437228628426,1.323395,9.947908,-1.3940239
172,1437228628433,1.4437037,9.951499,-1.4167689
173,1437228628459,1.6514006,9.953295,-1.5011644
174,1437228628474,1.5993267,9.934141,-1.5280992
175,1437228628494,1.4281414,9.905411,-1.4149733
176,1437228628515,1.299453,9.942521,-1.4077905
177,1437228628534,1.5526398,9.958083,-1.4329298
178,1437228628554,1.6346412,9.959281,-1.4862007
179,1437228628573,1.5358804,9.898229,-1.4993688
180,1437228628596,1.2988545,9.895834,-1.4047978
181,1437228628613,1.3096284,9.972448,-1.4107834
182,1437228628635,1.5819688,9.968259,-1.4371196
183,1437228628656,1.5807717,9.950901,-1.46585
184,1437228628679,1.501763,9.898827,-1.4718355
185,1437228628695,1.3521254,9.953894,-1.3724761
186,1437228628716,1.4867992,9.973047,-1.4293385
187,1437228628735,1.6250644,9.953894,-1.4036007
188,1437228628756,1.5664065,9.928156,-1.4466964
189,1437228628776,1.4341269,9.894637,-1.4885949
190,1437228628794,1.3874398,9.943718,-1.4257472
191,1437228628816,1.4562732,9.994595,-1.4514848
192,1437228628836,1.5897499,9.951499,-1.5167267
193,1437228628854,1.5622166,9.932345,-1.4520833
194,1437228628875,1.4293385,9.919178,-1.4993688
195,1437228628894,1.3940239,9.972448,-1.435324
196,1437228628919,1.5029601,9.972448,-1.388637
197,1437228628950,1.5167267,9.955689,-1.4000094
198,1437228628959,1.5891514,9.940725,-1.4891934
199,1437228628973,1.4742297,9.917382,-1.3820529
200,1437228628993,1.4173675,9.932345,-1.3485341
201,1437228629013,1.578976,9.959879,-1.4149733
202,1437228629034,1.5819688,9.931747,-1.417966
203,1437228629055,1.4742297,9.896433,-1.4383167
204,1437228629118,1.3383588,9.932345,-1.3569138
205,1437228629119,1.4796166,9.974244,-1.3281834
206,1437228629120,1.6436194,9.9790325,-1.4293385
207,1437228629133,1.5999253,9.955689,-1.4598645
208,1437228629156,1.4269443,9.885659,-1.4036007
209,1437228629175,1.3054385,9.957485,-1.3467385
210,1437228629193,1.46585,9.957485,-1.3844471
211,1437228629213,1.5939398,9.975441,-1.4227544
212,1437228629238,1.4766239,9.932345,-1.4335283
213,1437228629264,1.3706805,9.928755,-1.4281414
214,1437228629274,1.3533225,9.953295,-1.3551182
215,1437228629300,1.5239093,9.982624,-1.411382
216,1437228629318,1.5693992,9.946113,-1.3910311
217,1437228629337,1.543063,9.923966,-1.4275428
218,1437228629357,1.4389153,9.920375,-1.411382
219,1437228629377,1.4305356,9.942521,-1.389834
220,1437228629397,1.4909891,9.965266,-1.3694834
221,1437228629416,1.6208745,9.937733,-1.38325
222,1437228629437,1.4598645,9.937134,-1.4610616
223,1437228629456,1.3652935,9.935339,-1.3868413
224,1437228629477,1.4856021,9.965266,-1.340753
225,1437228629497,1.5741876,9.965864,-1.3790601
226,1437228629517,1.5652094,9.925761,-1.4269443
227,1437228629535,1.4383167,9.919178,-1.4155718
228,1437228629555,1.4628572,9.941922,-1.3982137
229,1437228629577,1.4526819,9.950302,-1.347337
230,1437228629594,1.4610616,9.938332,-1.3533225
231,1437228629615,1.5095441,9.953894,-1.4036007
232,1437228629636,1.5334862,9.944916,-1.3982137
233,1437228629655,1.4891934,9.967062,-1.3910311
234,1437228629675,1.5376761,9.956287,-1.3928268
235,1437228629696,1.5077485,9.93893,-1.4634558
236,1437228629717,1.4173675,9.920375,-1.3299791
237,1437228629734,1.4215573,9.970055,-1.3186066
238,1437228629754,1.620276,9.976639,-1.4191631
239,1437228629775,1.6053122,9.949105,-1.3964181
240,1437228629796,1.4532804,9.913791,-1.3976152
241,1437228629815,1.3066356,9.949704,-1.3347675
242,1437228629867,1.4808137,9.953894,-1.352724
243,1437228629868,1.6400281,9.977836,-1.3946224
244,1437228629883,1.5370775,9.931149,-1.3892355
245,1437228629894,1.3994108,9.925163,-1.4167689
246,1437228629918,1.3605051,9.956886,-1.3569138
247,1437228629951,1.6011224,9.975441,-1.3796587
248,1437228629955,1.5939398,9.928156,-1.3563153
249,1437228629976,1.4999673,9.929353,-1.429937
250,1437228629998,1.4993688,9.93474,-1.4203602
251,1437228630018,1.2898762,9.975441,-1.3359646
252,1437228630035,1.4814123,9.981427,-1.3521254
253,1437228630057,1.6292542,9.946113,-1.3838485
254,1437228630074,1.5101427,9.925163,-1.4814123
255,1437228630098,1.3497312,9.909002,-1.388637
256,1437228630118,1.3856442,9.9928,-1.335366
257,1437228630138,1.5610195,9.960478,-1.3467385
258,1437228630158,1.5699978,9.953295,-1.3868413
259,1437228630178,1.5179238,9.929353,-1.4460979
260,1437228630198,1.441908,9.937134,-1.407192
261,1437228630218,1.411382,9.951499,-1.3503298
262,1437228630238,1.5280992,9.959879,-1.3611037
263,1437228630255,1.5167267,9.962872,-1.3736732
264,1437228630278,1.4454993,9.950302,-1.3976152
265,1437228630298,1.4909891,9.959281,-1.4269443
266,1437228630318,1.4568717,9.954493,-1.353921
267,1437228630337,1.4508862,9.955689,-1.3371617
268,1437228630358,1.4915876,9.944317,-1.364695
269,1437228630377,1.5520413,9.9550905,-1.4137762
270,1437228630398,1.4730326,9.940725,-1.3718776
271,1437228630417,1.400608,9.959879,-1.2844892
272,1437228630438,1.6537948,9.9712515,-1.4431051
273,1437228630459,1.6035166,9.953295,-1.42455
274,1437228630478,1.4520833,9.922171,-1.4281414
275,1437228630498,1.3251907,9.957485,-1.3575124
276,1437228630516,1.4544775,9.982025,-1.323395
277,1437228630586,1.6059108,9.932345,-1.3425486
278,1437228630587,1.5688007,9.925163,-1.4155718
279,1437228630588,1.4616601,9.916783,-1.4203602
280,1437228630596,1.3599066,9.964667,-1.3221979
281,1437228630628,1.5765818,9.982025,-1.3640964
282,1437228630637,1.6358383,9.94312,-1.3670892
283,1437228630655,1.5334862,9.928156,-1.4149733
284,1437228630677,1.4030021,9.941922,-1.4101849
285,1437228630698,1.4335283,9.985617,-1.3102269
286,1437228630717,1.5496471,9.940127,-1.3581109
287,1437228630738,1.5442601,9.951499,-1.3934253
288,1437228630760,1.496376,9.934141,-1.4508862
289,1437228630783,1.4311341,9.946711,-1.407192
290,1437228630796,1.4401124,9.967062,-1.3144168
291,1437228630818,1.5795746,9.94312,-1.3688848
292,1437228630838,1.6071079,9.937134,-1.4095862
293,1437228630859,1.4784195,9.939528,-1.4610616
294,1437228630878,1.4574703,9.942521,-1.3305776
295,1437228630898,1.4383167,9.972448,-1.3305776
296,1437228630918,1.5699978,9.950901,-1.352724
297,1437228630938,1.555034,9.942521,-1.4173675
298,1437228630959,1.5233108,9.953295,-1.4694413
299,1437228630978,1.4520833,9.9473095,-1.3227965
300,1437228630998,1.3431472,9.96347,-1.3084313
301,1437228631016,1.5903485,9.98442,-1.353921
302,1437228631038,1.673547,9.9473095,-1.4089876
303,1437228631059,1.4873978,9.916184,-1.4095862
304,1437228631079,1.4024036,9.951499,-1.3425486
305,1437228631098,1.4215573,9.974843,-1.3515269
306,1437228631118,1.584363,9.977836,-1.3359646
307,1437228631138,1.5987282,9.940127,-1.3868413
308,1437228631158,1.4808137,9.897031,-1.4107834
309,1437228631179,1.3030443,9.960478,-1.2904748
310,1437228631199,1.555034,9.982624,-1.3221979
311,1437228631219,1.6711528,9.939528,-1.3640964
312,1437228631238,1.5442601,9.921572,-1.4413095
313,1437228631258,1.4682442,9.927557,-1.3850456
314,1437228631275,1.435324,9.961076,-1.2892777
315,1437228631298,1.5101427,9.9550905,-1.3042414
316,1437228631346,1.6340426,9.921572,-1.3694834
317,1437228631347,1.5783775,9.928156,-1.389834
318,1437228631365,1.4490906,9.908403,-1.3317747
319,1437228631376,1.4466964,9.964069,-1.3389573
320,1437228631399,1.620276,9.964667,-1.3060371
321,1437228631415,1.6352397,9.942521,-1.3688848
322,1437228631436,1.5580268,9.919178,-1.4155718
323,1437228631459,1.3413515,9.932944,-1.3245921
324,1437228631479,1.5239093,9.964069,-1.3317747
325,1437228631500,1.6112977,9.946113,-1.3497312
326,1437228631516,1.6047137,9.937733,-1.3856442
327,1437228631539,1.5101427,9.928156,-1.4556746
328,1437228631556,1.4036007,9.950302,-1.2988545
329,1437228631579,1.5556326,9.970653,-1.3305776
330,1437228631599,1.5849615,9.958682,-1.3371617
331,1437228631619,1.54845,9.912594,-1.3706805
332,1437228631638,1.4826094,9.945514,-1.3754689
333,1437228631658,1.4305356,9.94312,-1.3551182
334,1437228631677,1.5514427,9.954493,-1.347337
335,1437228631699,1.6292542,9.946113,-1.364695
336,1437228631719,1.5071499,9.933543,-1.377863
337,1437228631738,1.4101849,9.925163,-1.3359646
338,1437228631760,1.4933833,9.961076,-1.3652935
339,1437228631776,1.6047137,9.965266,-1.3820529
340,1437228631796,1.614889,9.909601,-1.3437457
341,1437228631816,1.5442601,9.912594,-1.3940239
342,1437228631841,1.4012065,9.948506,-1.3491327
343,1437228631862,1.638831,9.973047,-1.347337
344,1437228631882,1.6292542,9.921572,-1.3467385
345,1437228631899,1.5592239,9.941922,-1.448492
346,1437228631917,1.4945804,9.935339,-1.3784616
347,1437228631936,1.3910311,9.977836,-1.2976574
348,1437228631957,1.5705963,9.966463,-1.3198037
349,1437228631977,1.6460136,9.952697,-1.4083891
350,1437228631997,1.5999253,9.931747,-1.4083891
351,1437228632047,1.3946224,9.917382,-1.3509283
352,1437228632049,1.4371196,9.962274,-1.2808979
353,1437228632065,1.6633717,9.983223,-1.3018472
354,1437228632076,1.6382325,9.942521,-1.34195
355,1437228632100,1.5005659,9.91798,-1.3862427
356,1437228632132,1.3611037,9.964667,-1.3263878
357,1437228632136,1.5580268,9.982025,-1.3150153
358,1437228632158,1.590947,9.993997,-1.371279
359,1437228632180,1.5897499,9.955689,-1.3395559
360,1437228632199,1.4083891,9.952098,-1.3796587
361,1437228632218,1.3856442,9.950302,-1.3180081
362,1437228632239,1.6334441,10.000581,-1.3263878
363,1437228632256,1.6753427,9.953295,-1.3563153
364,1437228632277,1.5813702,9.831191,-1.3856442
365,1437228632297,1.3910311,9.946711,-1.282095
366,1437228632320,1.448492,9.962274,-1.3180081
367,1437228632340,1.6059108,9.980229,-1.3371617
368,1437228632360,1.6005238,9.961675,-1.3676877
369,1437228632380,1.5155296,9.956287,-1.3754689
370,1437228632400,1.3347675,9.928156,-1.30484
371,1437228632420,1.4275428,9.936536,-1.3078327
372,1437228632437,1.6633717,9.932944,-1.3132197
373,1437228632460,1.6555905,9.941922,-1.340753
374,1437228632479,1.471237,9.921572,-1.3257892
375,1437228632499,1.412579,9.952098,-1.3443443
376,1437228632520,1.5275006,9.96766,-1.2952632
377,1437228632540,1.5747862,9.985617,-1.2880806
378,1437228632560,1.520318,9.926959,-1.4095862
379,1437228632580,1.4790181,9.947908,-1.3174095
380,1437228632600,1.525705,9.944317,-1.2826935
381,1437228632620,1.5490485,9.959879,-1.252766
382,1437228632646,1.632247,9.962872,-1.3174095
383,1437228632661,1.5376761,9.940127,-1.3730747
384,1437228632685,1.4826094,9.930551,-1.3305776
385,1437228632778,1.4748282,9.973047,-1.311424
386,1437228632779,1.5155296,9.991004,-1.2605472
387,1437228632780,1.5466543,10.003573,-1.364695
388,1437228632781,1.5406688,9.903615,-1.4203602
389,1437228632782,1.541866,9.928156,-1.2725182
390,1437228632797,1.4580688,9.960478,-1.2707225
391,1437228632819,1.4682442,9.986216,-1.2443863
392,1437228632837,1.5873557,9.98442,-1.395221
393,1437228632861,1.5682021,9.933543,-1.3377602
394,1437228632878,1.4407109,9.933543,-1.2623428
395,1437228632898,1.407192,9.948506,-1.2503718
396,1437228632919,1.4766239,9.976639,-1.3263878
397,1437228632938,1.614889,9.964069,-1.3084313
398,1437228632960,1.5861586,9.929952,-1.2952632
399,1437228632980,1.4580688,9.934141,-1.3497312
400,1437228633000,1.3700819,9.977836,-1.2569559
401,1437228633020,1.4921862,9.999383,-1.2234371
402,1437228633040,1.6663644,9.985617,-1.3563153
403,1437228633060,1.5334862,9.949704,-1.3030443
404,1437228633080,1.3784616,9.920375,-1.2892777
405,1437228633100,1.3084313,9.97604,-1.2653356
406,1437228633120,1.4449008,9.983223,-1.3060371
407,1437228633140,1.6370354,9.979631,-1.2964603
408,1437228633157,1.596334,9.933543,-1.3042414
409,1437228633181,1.3988123,9.9233675,-1.3180081
410,1437228633201,1.3563153,9.991602,-1.2617443
411,1437228633221,1.5807717,10.004171,-1.1988965
412,1437228633240,1.7052702,9.977836,-1.2880806
413,1437228633259,1.6011224,9.923966,-1.3874398
414,1437228633280,1.3910311,9.898827,-1.2838906
415,1437228633300,1.3670892,9.958083,-1.1959038
416,1437228633321,1.4796166,9.96766,-1.2551602
417,1437228633340,1.5867572,9.953295,-1.4670471
418,1437228633359,1.2934675,9.865907,-1.4915876
419,1437228633380,1.3880384,9.737817,-1.4838065
420,1437228633399,1.2018893,9.818622,-0.6374562
421,1437228633419,1.1174936,10.131064,-1.3012487
