id,attr_time,attr_x,attr_y,attr_z
1,1437228625030,9.200318,3.459023,1.7076644
2,1437228625031,9.226056,3.4835634,1.6478093
3,1437228625032,9.217676,3.4943373,1.5837644
4,1437228625033,9.235633,3.5182793,1.5664065
5,1437228625034,9.214086,3.481768,1.6472107
6,1437228625035,9.223662,3.4320881,1.690905
7,1437228625036,9.186552,3.426701,1.7369933
8,1437228625037,9.201516,3.4727895,1.6962919
9,1437228625038,9.188946,3.4691982,1.6579847
10,1437228625039,9.163807,3.4290953,1.6603789
11,1437228625040,9.194333,3.4452562,1.7010803
12,1437228625078,9.234436,3.5116954,1.7274165
13,1437228625079,9.212888,3.506907,1.751957
14,1437228625087,9.1512375,3.4374752,1.7375919
15,1437228625111,9.115324,3.3794158,1.7417817
16,1437228625130,9.1350765,3.442862,1.7118542
17,1437228625147,9.1668,3.5314474,1.7262194
18,1437228625167,9.157223,3.5685577,1.7375919
19,1437228625187,9.172187,3.5344403,1.762731
20,1437228625208,9.242217,3.4955344,1.769315
21,1437228625230,9.264962,3.4985273,1.7501614
22,1437228625248,9.193136,3.494936,1.6938977
23,1437228625269,9.126697,3.5194764,1.6651673
24,1437228625289,9.1350765,3.4823663,1.6927006
25,1437228625308,9.218275,3.4302924,1.6747441
26,1437228625329,9.275736,3.4404678,1.6723499
27,1437228625351,9.226056,3.4715924,1.6394296
28,1437228625370,9.233239,3.3955765,1.6699557
29,1437228625391,9.216479,3.353678,1.6627731
30,1437228625410,9.211093,3.3734303,1.6807296
31,1437228625429,9.190144,3.3716345,1.6807296
32,1437228625449,9.213487,3.3728316,1.6879122
33,1437228625469,9.26197,3.341707,1.6825253
34,1437228625490,9.284714,3.3608606,1.6998832
35,1437228625513,9.259575,3.459023,1.6980876
36,1437228625527,9.197925,3.4865563,1.6938977
37,1437228625549,9.19553,3.459023,1.7363948
38,1437228625567,9.238626,3.4243069,1.8255788
39,1437228625590,9.261371,3.4386723,1.7585411
40,1437228625610,9.223063,3.4973302,1.6358383
41,1437228625627,9.123704,3.5194764,1.6035166
42,1437228625648,9.112331,3.472191,1.6573862
43,1437228625671,9.148843,3.429694,1.7298107
44,1437228625692,9.194932,3.4243069,1.733402
45,1437228625713,9.226655,3.5290532,1.6172832
46,1437228625731,9.181764,3.517681,1.5855601
47,1437228625751,9.176975,3.4572272,1.6364368
48,1437228625771,9.24102,3.4213142,1.6747441
49,1437228625791,9.309255,3.425504,1.7286136
50,1437228625809,9.264962,3.4835634,1.6633717
51,1437228625832,9.1255,3.5260606,1.5532384
52,1437228625852,9.105149,3.506907,1.5783775
53,1437228625869,9.196728,3.5356374,1.6496049
54,1437228625891,9.217676,3.5583823,1.650802
55,1437228625911,9.214684,3.5422213,1.5981296
56,1437228625931,9.147048,3.494936,1.5394717
57,1437228625951,9.217078,3.453636,1.5586253
58,1437228625971,9.363723,3.4685998,1.6160861
59,1437228625991,9.305065,3.4249055,1.584363
60,1437228626021,9.205706,3.4404678,1.5616181
61,1437228626033,9.248202,3.413533,1.5735891
62,1437228626052,9.325416,3.3985693,1.6130934
63,1437228626085,9.269152,3.4398694,1.5269021
64,1437228626101,9.144054,3.502717,1.4377182
65,1437228626108,9.069835,3.50152,1.4401124
66,1437228626128,9.1751795,3.490746,1.5640123
67,1437228626148,9.318831,3.477578,1.6220716
68,1437228626182,9.288904,3.4404678,1.5915456
69,1437228626194,9.223662,3.3979707,1.5239093
70,1437228626208,9.184756,3.3494883,1.5921441
71,1437228626228,9.2547865,3.3692403,1.7232267
72,1437228626248,9.3343935,3.4231098,1.7393875
73,1437228626269,9.291897,3.433884,1.6466122
74,1437228626291,9.217676,3.4344823,1.5747862
75,1437228626308,9.176376,3.4171243,1.6358383
76,1437228626329,9.231443,3.4117374,1.6573862
77,1437228626354,9.257181,3.4314895,1.6651673
78,1437228626373,9.191938,3.4446578,1.6316484
79,1437228626394,9.139865,3.394978,1.6448165
80,1437228626408,9.22426,3.341707,1.7034745
81,1437228626431,9.333796,3.436278,1.7016789
82,1437228626452,9.251794,3.4913447,1.6364368
83,1437228626472,9.180567,3.426701,1.5819688
84,1437228626492,9.188946,3.3506854,1.6017209
85,1437228626511,9.272144,3.3883939,1.6502035
86,1437228626531,9.251794,3.4542346,1.6885108
87,1437228626552,9.197925,3.4332852,1.632247
88,1437228626573,9.149442,3.4356794,1.6292542
89,1437228626589,9.216479,3.4111388,1.7154455
90,1437228626612,9.308058,3.4608185,1.7543513
91,1437228626632,9.250597,3.503914,1.6813282
92,1437228626652,9.179968,3.4955344,1.6154876
93,1437228626672,9.120112,3.4344823,1.6400281
94,1437228626692,9.14585,3.4404678,1.7166426
95,1437228626713,9.219472,3.4865563,1.8052281
96,1437228626732,9.191938,3.567959,1.7345991
97,1437228626752,9.132084,3.5332432,1.6729485
98,1437228626773,9.147646,3.4733882,1.6328455
99,1437228626793,9.231443,3.453636,1.7537527
100,1437228626814,9.272743,3.482965,1.7615339
101,1437228626831,9.21229,3.41473,1.7112557
102,1437228626852,9.152434,3.3674448,1.6950948
103,1437228626903,9.187749,3.3494883,1.6843209
104,1437228626904,9.248202,3.4045548,1.685518
105,1437228626923,9.284116,3.447052,1.702876
106,1437228626929,9.257779,3.4410665,1.6585833
107,1437228626962,9.175778,3.3913867,1.6286557
108,1437228626977,9.193734,3.402759,1.6621746
109,1437228626992,9.273342,3.4213142,1.7058687
110,1437228627011,9.275736,3.3913867,1.6753427
111,1437228627031,9.206305,3.4051533,1.6274586
112,1437228627049,9.221268,3.3728316,1.6310499
113,1437228627074,9.309854,3.4153287,1.6956934
114,1437228627101,9.300277,3.454833,1.6430209
115,1437228627109,9.208099,3.4644098,1.5903485
116,1437228627129,9.132683,3.4344823,1.5945383
117,1437228627150,9.173983,3.4183214,1.6490064
118,1437228627170,9.313444,3.4213142,1.6543933
119,1437228627190,9.25359,3.4572272,1.6597804
120,1437228627209,9.167996,3.4392707,1.6178818
121,1437228627233,9.20391,3.3746274,1.6382325
122,1437228627249,9.271546,3.3674448,1.6484078
123,1437228627270,9.336788,3.4051533,1.6843209
124,1437228627290,9.289502,3.3955765,1.6364368
125,1437228627309,9.245809,3.3435028,1.5945383
126,1437228627329,9.201516,3.2626984,1.620276
127,1437228627349,9.264962,3.306991,1.6765398
128,1437228627369,9.272144,3.445855,1.6543933
129,1437228627391,9.199121,3.4799721,1.602918
130,1437228627413,9.194932,3.442862,1.5658079
131,1437228627430,9.225458,3.3824084,1.6124948
132,1437228627452,9.300875,3.4326868,1.6484078
133,1437228627472,9.32362,3.4644098,1.6531962
134,1437228627493,9.209297,3.470994,1.620276
135,1437228627513,9.138668,3.3997664,1.6280571
136,1437228627531,9.208099,3.323152,1.6645688
137,1437228627551,9.272743,3.4302924,1.6807296
138,1437228627572,9.221867,3.4859576,1.6472107
139,1437228627590,9.225458,3.4356794,1.5795746
140,1437228627615,9.246407,3.3758245,1.5951369
141,1437228627634,9.2865095,3.371036,1.6286557
142,1437228627651,9.283517,3.41892,1.6759412
143,1437228627669,9.226655,3.4314895,1.6591818
144,1437228627691,9.210494,3.3806129,1.6077064
145,1437228627710,9.215282,3.3632548,1.638831
146,1437228627732,9.267356,3.4225113,1.678934
147,1437228627750,9.238028,3.4835634,1.6663644
148,1437228627774,9.185953,3.4560301,1.6196774
149,1437228627794,9.139865,3.435081,1.5987282
150,1437228627814,9.192537,3.435081,1.6633717
151,1437228627829,9.252991,3.4955344,1.7016789
152,1437228627854,9.227253,3.4769795,1.6519991
153,1437228627874,9.180567,3.4691982,1.6448165
154,1437228627894,9.242816,3.3877954,1.673547
155,1437228627914,9.276933,3.3877954,1.6759412
156,1437228627932,9.243414,3.4033577,1.6519991
157,1437228627953,9.219472,3.3973722,1.6687586
158,1437228627971,9.197326,3.3913867,1.661576
159,1437228627994,9.249998,3.3734303,1.7010803
160,1437228628014,9.285313,3.3752258,1.7100586
161,1437228628032,9.257181,3.394978,1.6484078
162,1437228628054,9.218275,3.3883939,1.6340426
163,1437228628074,9.198523,3.3411086,1.6502035
164,1437228628093,9.263765,3.3572693,1.6921021
165,1437228628113,9.263166,3.4021606,1.6873137
166,1437228628134,9.222465,3.4374752,1.6298528
167,1437228628153,9.202114,3.4314895,1.6208745
168,1437228628174,9.267356,3.4003649,1.7118542
169,1437228628192,9.280524,3.402759,1.6502035
170,1437228628212,9.20391,3.4213142,1.6041151
171,1437228628231,9.160814,3.430891,1.5903485
172,1437228628274,9.242816,3.3973722,1.6280571
173,1437228628275,9.316438,3.4075475,1.654992
174,1437228628298,9.308058,3.4117374,1.6172832
175,1437228628311,9.247604,3.41892,1.5682021
176,1437228628331,9.177573,3.3022027,1.578976
177,1437228628351,9.24521,3.2788591,1.6753427
178,1437228628375,9.352949,3.3273418,1.7208325
179,1437228628392,9.320028,3.3967736,1.6825253
180,1437228628412,9.217676,3.3530796,1.6071079
181,1437228628432,9.156625,3.3237505,1.5855601
182,1437228628452,9.208099,3.3207579,1.6837224
183,1437228628474,9.31524,3.3967736,1.7244238
184,1437228628491,9.280524,3.4314895,1.6837224
185,1437228628514,9.208099,3.4302924,1.632247
186,1437228628534,9.186552,3.369839,1.6220716
187,1437228628553,9.283517,3.3752258,1.697489
188,1437228628574,9.31105,3.4219127,1.666963
189,1437228628594,9.255385,3.41473,1.6166847
190,1437228628614,9.19134,3.311181,1.5957354
191,1437228628634,9.228451,3.2800562,1.666963
192,1437228628652,9.291897,3.3506854,1.6472107
193,1437228628675,9.270947,3.3961751,1.6196774
194,1437228628692,9.215881,3.3752258,1.5759833
195,1437228628714,9.156625,3.342904,1.6059108
196,1437228628734,9.217676,3.3608606,1.6561891
197,1437228628756,9.330204,3.466804,1.6891093
198,1437228628774,9.283517,3.50571,1.6406267
199,1437228628794,9.190144,3.465607,1.6023195
200,1437228628814,9.184756,3.3997664,1.5915456
201,1437228628834,9.251195,3.3441012,1.6597804
202,1437228628854,9.291298,3.366846,1.6915035
203,1437228628875,9.282919,3.401562,1.6873137
204,1437228628895,9.249998,3.3530796,1.6238673
205,1437228628916,9.248801,3.281852,1.5999253
206,1437228628931,9.291897,3.2501287,1.6394296
207,1437228628952,9.330204,3.2758665,1.6944963
208,1437228629006,9.2787285,3.271078,1.6298528
209,1437228629007,9.267356,3.2225955,1.5927427
210,1437228629025,9.318831,3.2261868,1.6645688
211,1437228629031,9.357738,3.292626,1.6980876
212,1437228629052,9.305065,3.3423057,1.6663644
213,1437228629074,9.24102,3.329736,1.6059108
214,1437228629091,9.184756,3.2968156,1.6059108
215,1437228629118,9.209297,3.2836475,1.726818
216,1437228629135,9.330803,3.3542767,1.7375919
217,1437228629153,9.329007,3.4584243,1.6825253
218,1437228629173,9.2865095,3.4320881,1.6160861
219,1437228629192,9.212888,3.3506854,1.5873557
220,1437228629214,9.2494,3.323152,1.6747441
221,1437228629235,9.3182335,3.353678,1.6795325
222,1437228629251,9.263166,3.3728316,1.6364368
223,1437228629271,9.193136,3.3752258,1.5777789
224,1437228629291,9.175778,3.323152,1.572392
225,1437228629315,9.215282,3.300407,1.5957354
226,1437228629335,9.272743,3.369839,1.6531962
227,1437228629354,9.241618,3.4165258,1.6208745
228,1437228629375,9.238028,3.376423,1.602918
229,1437228629395,9.27394,3.329736,1.5939398
230,1437228629413,9.280524,3.328539,1.6705543
231,1437228629434,9.294291,3.3704374,1.6657659
232,1437228629455,9.279327,3.3836055,1.62686
233,1437228629474,9.255385,3.3572693,1.5861586
234,1437228629492,9.26556,3.333926,1.6376339
235,1437228629513,9.282919,3.3261447,1.6334441
236,1437228629535,9.267356,3.3530796,1.6454151
237,1437228629555,9.252393,3.3782187,1.6220716
238,1437228629575,9.242816,3.354875,1.6071079
239,1437228629594,9.261371,3.3261447,1.6316484
240,1437228629614,9.277532,3.3315318,1.6454151
241,1437228629635,9.258977,3.369839,1.6136919
242,1437228629655,9.235035,3.3662477,1.5753847
243,1437228629672,9.287108,3.3494883,1.6627731
244,1437228629693,9.293094,3.3506854,1.6609775
245,1437228629783,9.261371,3.318962,1.6124948
246,1437228629784,9.251195,3.271078,1.5999253
247,1437228629785,9.281123,3.2812533,1.6394296
248,1437228629786,9.347562,3.353678,1.6579847
249,1437228629838,9.336189,3.4033577,1.6418238
250,1437228629839,9.27394,3.3800142,1.5867572
251,1437228629840,9.187749,3.3063924,1.6232687
252,1437228629863,9.223063,3.3075895,1.7016789
253,1437228629872,9.281721,3.3488896,1.6843209
254,1437228629892,9.250597,3.4117374,1.6047137
255,1437228629912,9.184157,3.417723,1.5825673
256,1437228629933,9.19553,3.3931823,1.5933412
257,1437228629957,9.2625675,3.3518825,1.650802
258,1437228629972,9.309854,3.3901896,1.6927006
259,1437228629992,9.281123,3.4284968,1.6783354
260,1437228630012,9.227253,3.3794158,1.6095021
261,1437228630033,9.217676,3.2800562,1.6406267
262,1437228630052,9.290101,3.3171666,1.7250223
263,1437228630072,9.285912,3.4033577,1.6921021
264,1437228630092,9.22067,3.4105403,1.6364368
265,1437228630112,9.214684,3.3500867,1.6124948
266,1437228630133,9.209895,3.3345244,1.6178818
267,1437228630152,9.243414,3.3494883,1.685518
268,1437228630172,9.282919,3.3925838,1.6986861
269,1437228630192,9.285313,3.4099417,1.6370354
270,1437228630212,9.275736,3.3686419,1.6136919
271,1437228630233,9.259575,3.3159695,1.6310499
272,1437228630252,9.268554,3.3123782,1.6765398
273,1437228630273,9.276933,3.3967736,1.6651673
274,1437228630295,9.250597,3.406949,1.6352397
275,1437228630312,9.225458,3.401562,1.5933412
276,1437228630333,9.220071,3.3213563,1.5945383
277,1437228630353,9.239823,3.3291376,1.6567876
278,1437228630374,9.293094,3.401562,1.654992
279,1437228630394,9.267955,3.3883939,1.5783775
280,1437228630413,9.242217,3.3207579,1.5867572
281,1437228630436,9.242217,3.3081882,1.6496049
282,1437228630462,9.293693,3.3913867,1.6807296
283,1437228630474,9.308656,3.4314895,1.6017209
284,1437228630492,9.247604,3.3854012,1.572392
285,1437228630512,9.218874,3.3081882,1.5861586
286,1437228630534,9.267955,3.2992098,1.6651673
287,1437228630552,9.331401,3.347094,1.6675615
288,1437228630572,9.284116,3.3728316,1.6226702
289,1437228630593,9.223662,3.3614593,1.6136919
290,1437228630614,9.218874,3.3183637,1.6041151
291,1437228630634,9.272144,3.3572693,1.6136919
292,1437228630656,9.299678,3.4171243,1.6394296
293,1437228630675,9.281123,3.4039562,1.6256629
294,1437228630696,9.24102,3.3871968,1.5825673
295,1437228630713,9.223662,3.3482912,1.6190789
296,1437228630736,9.269152,3.34051,1.6968905
297,1437228630756,9.276933,3.3955765,1.6244658
298,1437228630776,9.209895,3.390788,1.6071079
299,1437228630796,9.2069025,3.3494883,1.5861586
300,1437228630812,9.246407,3.3141737,1.6238673
301,1437228630835,9.293094,3.3530796,1.6771383
302,1437228630855,9.2787285,3.3973722,1.7118542
303,1437228630875,9.229648,3.4021606,1.6274586
304,1437228630896,9.228451,3.3375173,1.5705963
305,1437228630915,9.252991,3.3081882,1.6172832
306,1437228630936,9.297284,3.3686419,1.6831238
307,1437228630957,9.279925,3.4284968,1.6561891
308,1437228630976,9.20391,3.3955765,1.590947
309,1437228630996,9.196129,3.335123,1.5765818
310,1437228631016,9.197326,3.3063924,1.6292542
311,1437228631035,9.281123,3.3680432,1.7250223
312,1437228631055,9.336189,3.4272997,1.6645688
313,1437228631074,9.26197,3.394978,1.5807717
314,1437228631095,9.214684,3.3369186,1.54845
315,1437228631160,9.222465,3.3243492,1.6304513
316,1437228631161,9.296685,3.3985693,1.644218
317,1437228631162,9.294291,3.4219127,1.6400281
318,1437228631175,9.254189,3.3728316,1.5777789
319,1437228631205,9.23683,3.3028011,1.5699978
320,1437228631213,9.340978,3.2507274,1.5592239
321,1437228631233,9.375694,3.306991,1.5885528
322,1437228631253,9.330204,3.3387144,1.5897499
323,1437228631278,9.267955,3.323152,1.5771804
324,1437228631294,9.246407,3.2615013,1.5813702
325,1437228631322,9.309854,3.2441432,1.6244658
326,1437228631335,9.387066,3.3273418,1.584363
327,1437228631355,9.320627,3.3704374,1.5352819
328,1437228631377,9.283517,3.3680432,1.4790181
329,1437228631397,9.224859,3.293823,1.5544355
330,1437228631417,9.258977,3.2956185,1.6118963
331,1437228631435,9.270947,3.3871968,1.5945383
332,1437228631457,9.26197,3.4386723,1.584363
333,1437228631477,9.261371,3.3686419,1.5682021
334,1437228631497,9.301474,3.2668881,1.5526398
335,1437228631517,9.301474,3.317765,1.590947
336,1437228631535,9.26197,3.366846,1.5915456
337,1437228631565,9.205706,3.3734303,1.5819688
338,1437228631574,9.223662,3.3387144,1.5945383
339,1437228631595,9.31105,3.3381157,1.6226702
340,1437228631614,9.332599,3.3560722,1.6136919
341,1437228631635,9.300277,3.3871968,1.6101006
342,1437228631654,9.243414,3.3812113,1.6142905
343,1437228631676,9.247005,3.3901896,1.6059108
344,1437228631697,9.270947,3.3782187,1.6675615
345,1437228631717,9.3026705,3.383007,1.6023195
346,1437228631765,9.272743,3.3871968,1.5939398
347,1437228631766,9.247604,3.3476925,1.5532384
348,1437228631776,9.264962,3.3375173,1.5759833
349,1437228631795,9.370906,3.3638535,1.6214731
350,1437228631815,9.320627,3.3758245,1.6077064
351,1437228631896,9.165603,3.3476925,1.5586253
352,1437228631897,9.214086,3.3249476,1.6214731
353,1437228631898,9.337985,3.3488896,1.7172412
354,1437228631899,9.428367,3.470994,1.7405846
355,1437228631915,9.370906,3.544017,1.6124948
356,1437228631944,9.23683,3.490746,1.4969746
357,1437228631954,9.085996,3.3500867,1.5095441
358,1437228631975,9.050681,3.2998085,1.5586253
359,1437228631994,9.14585,3.376423,1.5951369
360,1437228632019,9.150639,3.4398694,1.6346412
361,1437228632034,9.147646,3.4165258,1.6352397
362,1437228632055,9.288904,3.4021606,1.7238252
363,1437228632075,9.460688,3.4344823,1.7411832
364,1437228632094,9.433753,3.4584243,1.714847
365,1437228632117,9.333197,3.469797,1.6519991
366,1437228632137,9.264962,3.430891,1.6101006
367,1437228632155,9.139865,3.3985693,1.5592239
368,1437228632177,9.090784,3.3925838,1.5921441
369,1437228632197,9.045893,3.3632548,1.567005
370,1437228632217,9.042301,3.3782187,1.6681601
371,1437228632237,9.241618,3.435081,1.7812861
372,1437228632254,9.43076,3.4973302,1.7794905
373,1437228632277,9.405622,3.5655649,1.7495629
374,1437228632297,9.300277,3.5583823,1.6627731
375,1437228632315,9.19972,3.4542346,1.5831659
376,1437228632338,9.043498,3.3800142,1.5424645
377,1437228632356,9.077616,3.4284968,1.590947
378,1437228632390,9.069236,3.4620156,1.6160861
379,1437228632394,9.124901,3.394978,1.6280571
380,1437228632420,9.124901,3.3925838,1.6873137
381,1437228632436,9.305065,3.4680011,1.7687165
382,1437228632461,9.412804,3.5482068,1.7956513
383,1437228632476,9.353547,3.5344403,1.7112557
384,1437228632494,9.2494,3.4685998,1.62686
385,1437228632515,9.100959,3.383007,1.5682021
386,1437228632535,9.059659,3.376423,1.596334
387,1437228632555,9.182362,3.417723,1.6579847
388,1437228632582,9.185953,3.4123359,1.6992847
389,1437228632676,9.14585,3.4231098,1.6998832
390,1437228632687,9.230247,3.4368765,1.7166426
391,1437228632688,9.320028,3.4919431,1.7830818
392,1437228632689,9.301474,3.489549,1.666963
393,1437228632690,9.23264,3.4572272,1.5807717
394,1437228632699,9.078215,3.4326868,1.6053122
395,1437228632715,9.070433,3.3967736,1.721431
396,1437228632735,9.184756,3.3770216,1.7878702
397,1437228632755,9.330803,3.4117374,1.8058267
398,1437228632775,9.379285,3.4063504,1.7711107
399,1437228632795,9.406818,3.359065,1.6777369
400,1437228632816,9.338584,3.3441012,1.6472107
401,1437228632842,9.217078,3.3327289,1.650802
402,1437228632856,9.149442,3.4117374,1.7070658
403,1437228632875,9.115324,3.413533,1.6879122
404,1437228632898,9.100361,3.3961751,1.6490064
405,1437228632918,9.2625675,3.3854012,1.6603789
406,1437228632938,9.315839,3.4045548,1.7022774
407,1437228632958,9.304466,3.433884,1.7166426
408,1437228632976,9.273342,3.459023,1.6765398
409,1437228632996,9.218874,3.4087446,1.6627731
410,1437228633018,9.228451,3.3345244,1.6801311
411,1437228633038,9.247005,3.3375173,1.7340006
412,1437228633058,9.302073,3.3716345,1.6723499
413,1437228633075,9.27394,3.3716345,1.6172832
414,1437228633096,9.190144,3.3596635,1.6124948
415,1437228633121,9.183559,3.3446999,1.6819267
416,1437228633136,9.212888,3.3692403,1.7190368
417,1437228633156,9.210494,3.3997664,1.7022774
418,1437228633177,9.122507,3.417723,1.6454151
419,1437228633195,9.074623,3.3566709,1.6352397
420,1437228633215,9.168595,3.2860417,1.7124528
421,1437228633235,9.255983,3.2321723,1.785476
422,1437228633262,9.354146,3.305794,1.7705121
423,1437228633277,9.173983,3.3195608,1.6915035
424,1437228633296,9.03452,3.244742,1.6382325
425,1437228633316,8.804677,3.2626984,1.632247
426,1437228633340,8.766968,3.4261026,1.5676036
427,1437228633407,8.978855,3.6242228,1.8082209
428,1437228633408,9.403826,3.8863878,2.0859482
429,1437228633409,9.432556,4.0827127,2.2026656
430,1437228633417,9.157223,4.115034,2.2703018
431,1437228633444,9.008782,4.0839095,2.143409
