id,attr_time,attr_x,attr_y,attr_z
1,1437236129712,-7.820061,5.8388596,0.12449849
2,1437236129731,-7.757812,5.8262897,0.1352724
3,1437236129755,-7.7189064,5.8843493,0.14305355
4,1437236129773,-7.933786,5.872977,0.10115502
5,1437236129791,-7.6494746,5.9801173,0.09696517
6,1437236129813,-7.6189485,5.9465985,0.15622166
7,1437236129835,-7.61416,5.9364233,0.110133275
8,1437236129853,-7.6829934,5.9124813,0.002992752
9,1437236129874,-7.7266874,5.8508306,-0.037708677
10,1437236129893,-7.8667483,5.78918,0.012569559
11,1437236129921,-7.788338,5.752668,-0.024540568
12,1437236129989,-7.867347,5.768829,-0.038307227
13,1437236129990,-7.8769236,5.701193,-0.10414778
14,1437236129991,-7.9206176,5.6898203,-0.04189853
15,1437236129992,-7.965509,5.6670756,-0.09876082
16,1437236130019,-8.009203,5.631761,-0.05686229
17,1437236130032,-7.945757,5.597045,-0.002992752
18,1437236130061,-7.877522,5.5820813,-0.0023942017
19,1437236130073,-7.9475527,5.5868697,0.02633622
20,1437236130096,-8.028357,5.6299653,0.013766659
21,1437236130112,-8.030152,5.6305637,0.004189853
22,1437236130133,-7.961918,5.6485205,0.04249708
23,1437236130154,-7.8715367,5.6539073,0.049679685
24,1437236130182,-7.9188223,5.683835,0.06284779
25,1437236130194,-7.893683,5.6982,0.04309563
26,1437236130214,-7.8326306,5.7203465,0.061650693
27,1437236130232,-7.876325,5.687426,0.049081136
28,1437236130251,-7.876325,5.6569,0.044891283
29,1437236130273,-7.8583684,5.6102133,0.08559271
30,1437236130292,-8.0924015,5.5102553,0.15023616
31,1437236130314,-7.9732904,5.5431757,0.10295067
32,1437236130336,-7.9086466,5.6485205,0.013766659
33,1437236130354,-7.9152308,5.6922145,-0.08738836
34,1437236130373,-7.8326306,5.7520695,-0.12629414
35,1437236130401,-7.8302364,5.746084,-0.093373865
36,1437236130462,-7.93199,5.7748146,-0.073023155
37,1437236130463,-7.9146323,5.7903767,-0.061650693
38,1437236130464,-7.831434,5.7616463,0.044891283
39,1437236130484,-7.7368627,5.837064,0.074220255
40,1437236130497,-7.7452426,5.8933277,0.04309563
41,1437236130512,-7.667431,5.9465985,-0.016759412
42,1437236130545,-7.6428905,5.9867015,0.017357962
43,1437236130552,-7.662044,5.953781,-0.014963761
44,1437236130576,-7.700351,5.931036,-0.020350715
45,1437236130593,-7.752425,5.8879404,-0.046686932
46,1437236130615,-7.7637978,5.8801594,0.01436521
47,1437236130636,-7.7985134,5.79337,-0.0023942017
48,1437236130652,-7.843405,5.781997,0.009576807
49,1437236130675,-7.827244,5.7562594,-0.005985504
50,1437236130697,-7.888296,5.743091,-0.025737667
51,1437236130714,-7.8589673,5.7424927,-0.04189853
52,1437236130736,-7.8410106,5.7383027,-0.04129998
53,1437236130756,-7.8529816,5.7520695,-0.060453594
54,1437236130775,-7.8595657,5.767632,-0.047285482
55,1437236130796,-7.939771,5.722142,-0.023343466
56,1437236130815,-7.8493905,5.7215433,0.035314474
57,1437236130833,-7.8266454,5.7299232,0.02633622
58,1437236130862,-7.813477,5.7484784,0.011971008
59,1437236130914,-7.8344264,5.783194,-0.006584055
60,1437236130915,-7.8386164,5.781997,-0.02932897
61,1437236130916,-7.7745714,5.7885814,0.012569559
62,1437236130934,-7.785944,5.79337,-0.019153614
63,1437236130959,-7.753622,5.8065376,0.006584055
64,1437236130976,-7.867347,5.834071,-0.01616086
65,1437236130992,-7.7709804,5.786187,-0.030526072
66,1437236131013,-7.766192,5.7784057,-0.007182605
67,1437236131034,-7.8625584,5.805341,-0.055066638
68,1437236131053,-7.884106,5.8185086,-0.1316811
69,1437236131073,-7.8823104,5.7748146,-0.04070143
70,1437236131095,-7.752425,5.7562594,0.054468088
71,1437236131118,-7.7973166,5.7520695,0.07062895
72,1437236131138,-7.8027034,5.7640405,-0.015562311
73,1437236131158,-7.8086886,5.8322754,-0.04189853
74,1437236131178,-7.814076,5.865794,-0.08499416
75,1437236131196,-7.7590094,5.827487,-0.012569559
76,1437236131216,-7.800309,5.7574563,0.027533319
77,1437236131233,-7.7584105,5.770026,0.05566519
78,1437236131253,-7.9212165,5.7628436,-0.054468088
79,1437236131279,-7.9092455,5.7879825,-0.091578215
80,1437236131298,-7.80809,5.810129,-0.04369418
81,1437236131318,-7.768586,5.7802014,0.01616086
82,1437236131336,-7.8972745,5.720945,0.062249243
83,1437236131355,-7.817667,5.783793,0.074220255
84,1437236131421,-7.7853456,5.827487,0.01616086
85,1437236131422,-7.7811556,5.849633,-0.03172317
86,1437236131423,-7.8104844,5.8843493,-0.0664391
87,1437236131443,-7.7967176,5.877765,-0.073621705
88,1437236131455,-7.809886,5.834071,-0.045489833
89,1437236131473,-7.7787614,5.7790046,-0.005985504
90,1437236131498,-7.8146744,5.7478795,0.05805939
91,1437236131514,-7.8493905,5.734113,0.05746084
92,1437236131538,-7.9068513,5.707178,0.037708677
93,1437236131558,-7.867347,5.7059813,0.022146367
94,1437236131576,-7.836222,5.7203465,0.050876785
95,1437236131596,-7.809886,5.6497173,0.12030864
96,1437236131616,-7.855974,5.699397,0.11492168
97,1437236131633,-7.885902,5.6999955,0.090979666
98,1437236131653,-7.8829093,5.759252,0.090979666
99,1437236131678,-7.85358,5.7484784,0.047884032
100,1437236131702,-7.784148,5.728726,0.142455
101,1437236131720,-7.85777,5.7041855,0.11731588
102,1437236131736,-7.9086466,5.6569,0.07062895
103,1437236131754,-7.8733325,5.6580973,0.078410104
104,1437236131773,-7.909844,5.6467247,0.094570965
105,1437236131793,-7.9547353,5.6569,0.08020575
106,1437236131814,-7.980473,5.650316,0.0712275
107,1437236131833,-7.9331875,5.6281695,0.06943185
108,1437236131881,-7.911041,5.635352,0.07182605
109,1437236131882,-7.994838,5.5988407,0.06404489
110,1437236131893,-7.953538,5.590461,0.15682021
111,1437236131916,-7.9768815,5.5862713,0.11432313
112,1437236131937,-7.873931,5.6096144,0.11731588
113,1437236131956,-7.8984714,5.619191,0.089782566
114,1437236131973,-7.897873,5.6347537,0.108337626
115,1437236131998,-7.989451,5.6000376,0.11252748
116,1437236132013,-7.9732904,5.5862713,0.12928689
117,1437236132038,-7.876325,5.567716,0.12210429
118,1437236132053,-7.925406,5.638345,0.090381116
119,1437236132073,-7.909844,5.74369,0.024540568
120,1437236132093,-7.9289975,5.819706,0.045489833
121,1437236132113,-7.8853035,5.787384,0.077811554
122,1437236132133,-7.7410526,5.7885814,0.1448492
123,1437236132153,-7.5441294,5.9304376,0.24061728
124,1437236132178,-7.620744,5.9920883,0.2172738
125,1437236132199,-7.8050976,5.8466406,-0.0664391
126,1437236132217,-8.1797905,5.267244,0.4997896
127,1437236132234,-8.733449,4.4101195,0.59495914
128,1437236132255,-9.074024,3.5464113,0.8702923
129,1437236132277,-9.134478,3.1585505,0.89662856
130,1437236132296,-8.917204,3.241749,0.5638345
131,1437236132315,-9.124303,3.3153708,0.34955344
132,1437236132369,-9.540296,3.1280246,0.2908955
133,1437236132380,-9.548675,3.132813,0.092176765
134,1437236132381,-9.244612,3.4464533,-0.04249708
135,1437236132408,-9.017162,3.7912183,-0.20410569
136,1437236132414,-8.771158,3.9564183,-0.3878607
137,1437236132458,-8.149862,4.1802764,-0.6362591
138,1437236132459,-7.929596,4.658518,-0.6901286
139,1437236132479,-8.33242,4.780622,-0.7835025
140,1437236132498,-8.342596,5.1439424,-0.9056068
141,1437236132516,-8.239047,5.479729,-1.1587936
142,1437236132535,-8.052897,5.729325,-1.3790601
143,1437236132556,-7.643489,5.8244944,-1.3323733
144,1437236132574,-7.32506,5.9489927,-1.1887212
145,1437236132594,-7.359776,6.030994,-1.1258733
146,1437236132615,-7.515998,6.010045,-1.2569559
147,1437236132639,-7.2807674,6.0866594,-1.3862427
148,1437236132656,-7.032369,5.8945246,-1.2569559
149,1437236132676,-7.258621,5.559336,-1.1174936
150,1437236132697,-7.611766,5.2642508,-1.359308
151,1437236132735,-7.2993226,5.167286,-1.417966
152,1437236132736,-7.3885064,5.2049947,-1.3467385
153,1437236132846,-7.6135616,5.192425,-1.9015948
154,1437236132847,-7.0622964,5.515642,-2.0913353
155,1437236132848,-7.020398,5.74369,-2.2661119
156,1437236132849,-7.2388687,5.875371,-2.5558102
157,1437236132850,-7.0724716,6.009446,-2.8006175
158,1437236132888,-6.445191,6.2752028,-2.9472623
159,1437236132889,-6.417658,6.8587894,-3.2028434
160,1437236132894,-6.8162923,6.951565,-3.2836475
161,1437236132927,-6.880337,6.951565,-3.0969
162,1437236132936,-6.4739213,7.071873,-3.1519666
163,1437236132954,-6.1884127,7.2203135,-2.8287494
164,1437236132974,-6.4421983,6.9850836,-2.4594438
165,1437236132994,-6.895301,6.823475,-2.1523874
166,1437236133014,-6.7708025,7.0407486,-2.285864
167,1437236133034,-5.6203885,6.92044,-2.742558
168,1437236133054,-4.455011,7.053917,-2.813187
169,1437236133074,-4.14975,7.1143703,-2.9221232
170,1437236133094,-5.3558292,7.6081743,-2.6539726
171,1437236133115,-6.682217,7.4603324,-2.1098902
172,1437236133135,-5.6000376,7.727885,-1.8477252
173,1437236133155,-4.040814,8.11395,-1.5400703
174,1437236133175,-3.7762547,8.646061,-1.4891934
175,1437236133195,-4.912902,8.825027,-2.0021513
176,1437236133215,-4.857237,9.101558,-2.5001452
177,1437236133243,-4.782418,9.306861,-2.6509798
178,1437236133254,-4.7860093,9.009381,-2.5893292
179,1437236133281,-4.1880574,8.893262,-2.7814639
180,1437236133293,-4.6166196,8.779537,-2.7377696
181,1437236133315,-4.4993033,8.1797905,-2.717419
182,1437236133337,-3.506907,7.8188643,-2.3750482
183,1437236133356,-3.031658,7.3968863,-2.0500352
184,1437236133376,-3.5290532,7.3166804,-1.9470845
185,1437236133394,-4.238934,6.657676,-1.8058267
186,1437236133414,-3.4033577,5.917868,-1.0079589
187,1437236133436,-2.7868507,5.981314,-0.59376204
188,1437236133459,-4.2263646,6.3260794,-1.1953052
189,1437236133478,-3.9372647,7.199963,-2.5079262
190,1437236133494,-4.050989,7.2191167,-2.40318
191,1437236133517,-4.334702,7.1784153,-2.2960393
192,1437236133538,-4.2078094,7.493851,-2.540248
193,1437236133556,-3.5847185,7.997831,-3.2728736
194,1437236133574,-4.047398,7.8595657,-2.7204118
195,1437236133596,-5.080496,7.2628107,-2.6515784
196,1437236133616,-4.5579615,8.012196,-4.24073
197,1437236133636,-4.337096,8.677784,-4.4364557
198,1437236133657,-5.331289,8.757391,-3.8283286
199,1437236133677,-5.4521956,9.011775,-4.1784806
200,1437236133697,-4.5980644,9.782109,-5.00448
201,1437236133714,-4.1706996,10.172364,-5.9244523
202,1437236133736,-4.5352163,9.734225,-5.510854
203,1437236133755,-5.085284,8.930971,-4.6040497
204,1437236133775,-4.337096,9.116522,-5.418677
205,1437236133795,-4.2634745,9.075222,-5.86759
206,1437236133817,-5.3444567,8.653842,-5.3863554
207,1437236133839,-5.737106,8.018182,-4.7500963
208,1437236133858,-4.7309427,7.7308774,-4.5783124
209,1437236133878,-3.602675,7.727286,-4.2054152
210,1437236133897,-3.952827,7.8302364,-4.1264067
211,1437236133918,-5.273229,7.6967597,-4.4885297
212,1437236133939,-4.9188876,7.7368627,-4.707599
213,1437236133958,-3.4195185,8.302493,-5.182848
214,1437236133979,-3.2423477,8.485051,-5.8562174
215,1437236133999,-4.9661727,8.116942,-6.265626
216,1437236134015,-5.6700683,8.069058,-6.751649
217,1437236134036,-4.4238863,8.677185,-6.8970966
218,1437236134119,-4.007295,8.854955,-6.3865333
219,1437236134120,-4.687847,8.720282,-5.9807158
220,1437236134121,-5.6461263,8.680777,-5.6060233
221,1437236134122,-5.925649,8.207323,-4.7961845
222,1437236134137,-6.0585275,7.949947,-3.7373488
223,1437236134155,-7.0605006,8.218696,-3.857059
224,1437236134176,-8.045714,8.747814,-4.015076
225,1437236134197,-8.474875,8.486847,-3.4159272
226,1437236134216,-7.7745714,8.830415,-3.079542
227,1437236134235,-8.604761,8.406042,-2.8766334
228,1437236134259,-9.227253,7.8308353,-2.5300727
229,1437236134279,-8.290522,7.0156097,-2.331354
230,1437236134297,-7.455544,6.31351,-1.7292122
231,1437236134317,-7.49445,5.5282116,-1.3329718
232,1437236134339,-7.498041,5.692813,-1.0043676
233,1437236134359,-7.356185,6.311714,-0.7410054
234,1437236134378,-6.6349316,5.8185086,-0.75836337
235,1437236134397,-6.947375,5.2480903,-0.06584055
236,1437236134419,-8.054693,4.478953,0.11791443
237,1437236134439,-8.394072,3.9492357,0.59376204
238,1437236134459,-8.328829,3.9079356,1.1731589
239,1437236134476,-8.416218,4.0462008,1.697489
240,1437236134503,-9.242217,4.357447,2.4229321
241,1437236134566,-9.831789,4.8943467,2.496554
242,1437236134567,-9.539697,5.439626,2.7832594
243,1437236134568,-10.206482,5.4845176,2.9203274
244,1437236134670,-10.177752,6.015432,2.4361002
245,1437236134671,-8.990228,6.813898,2.135628
246,1437236134672,-9.107543,7.0275807,2.3421278
247,1437236134673,-8.890868,6.899491,1.472434
248,1437236134674,-8.104373,7.244256,1.0085574
249,1437236134680,-7.435792,7.505822,0.7918822
250,1437236134724,-6.287772,8.112154,0.28311434
251,1437236134725,-6.2458735,8.3408,-0.40342298
252,1437236134737,-6.0483522,7.768586,-0.6039374
253,1437236134761,-5.094861,7.386112,-0.5363012
254,1437236134780,-4.010886,7.4375877,-0.7086837
255,1437236134798,-3.4249055,7.2065473,-0.9624691
256,1437236134816,-2.973,6.525397,-1.3066356
257,1437236134839,-2.795829,5.78918,-1.2575544
258,1437236134859,-3.1908724,5.542577,-1.5490485
259,1437236134881,-3.0909145,5.78918,-2.1308396
260,1437236134899,-3.2016463,6.3727665,-2.4504654
261,1437236134919,-4.3418846,6.2793927,-2.259528
262,1437236134938,-5.4144874,6.2434793,-1.8914193
263,1437236134999,-5.837662,6.4338183,-1.5185224
264,1437236135000,-6.475717,7.3897038,-1.1599907
265,1437236135001,-6.9844847,8.281544,-1.6436194
266,1437236135023,-7.1580644,8.783129,-1.536479
267,1437236135043,-7.032369,8.668207,-1.1546037
268,1437236135056,-6.7971387,8.605958,-0.54168814
269,1437236135154,-6.664859,8.599374,-0.58298814
270,1437236135169,-5.927445,8.29531,-0.7505822
271,1437236135170,-5.728726,8.079832,-0.15143326
272,1437236135171,-6.1902084,7.766192,-0.2136825
273,1437236135172,-6.218939,7.5920134,-0.57400984
274,1437236135183,-5.6120086,7.36636,-0.6931214
275,1437236135197,-5.6030307,7.1939774,-0.76075757
276,1437236135227,-6.3661823,6.6283474,-0.36870706
277,1437236135238,-6.5846534,6.1100025,-0.019153614
278,1437236135258,-5.795165,6.211158,0.5626374
279,1437236135278,-6.117784,6.145317,0.4890157
280,1437236135301,-6.423643,6.1686606,0.66618663
281,1437236135320,-6.517017,5.841852,0.8319851
282,1437236135341,-5.8867435,5.965752,1.1282675
283,1437236135360,-6.147113,5.8825536,1.1923125
284,1437236135381,-6.9904704,5.66528,1.0175357
285,1437236135400,-7.1514807,5.6084175,0.8206126
286,1437236135419,-6.930017,5.568913,0.7428011
287,1437236135438,-7.309498,5.519832,0.6985083
288,1437236135460,-7.849989,5.142745,0.82121116
289,1437236135481,-8.251018,4.6321816,1.3245921
290,1437236135502,-8.070854,4.172495,1.6274586
291,1437236135522,-7.9188223,4.3275194,1.3617022
292,1437236135537,-7.8039002,4.5435963,0.90141696
293,1437236135557,-8.37013,4.209007,0.9379285
294,1437236135627,-8.158242,3.7553053,0.51355624
295,1437236135628,-8.003817,3.4105403,0.94810385
296,1437236135629,-8.297705,3.2052376,0.52373165
297,1437236135658,-9.035717,3.0125043,0.20410569
298,1437236135659,-9.5570545,2.4498668,0.19393034
299,1437236135677,-8.94773,2.1601684,0.5847838
300,1437236135703,-8.616134,2.1853075,0.57041854
301,1437236135718,-8.792706,2.1829133,0.23582886
302,1437236135743,-9.037513,1.638831,0.26755205
303,1437236135759,-8.632893,1.3227965,0.3226187
304,1437236135779,-8.780136,1.2030864,0.108936176
305,1437236135800,-9.089587,1.002572,-0.095169514
306,1437236135820,-9.303867,0.34476504,0.053869538
307,1437236135838,-9.314043,0.1436521,0.23702596
308,1437236135858,-9.607931,0.09935937,-0.040102877
309,1437236135882,-10.675745,0.06344634,-0.22924481
310,1437236135903,-10.998364,-0.96187055,0.4794389
311,1437236135922,-10.609905,-2.3175871,1.6400281
312,1437236135941,-9.841965,-2.6072857,2.332551
313,1437236135958,-10.991181,-2.3511062,1.541866
314,1437236135977,-9.904813,-1.9764135,0.53450555
315,1437236135997,-7.417237,-2.2774844,0.8086416
316,1437236136111,-8.813056,-3.7541082,1.2791022
317,1437236136138,-10.7990465,-5.1200004,1.2312182
318,1437236136139,-10.632051,-5.9364233,1.2737153
319,1437236136140,-7.973889,-5.3648076,1.4993688
320,1437236136141,-6.275801,-4.845266,1.1492168
321,1437236136142,-8.451532,-5.793968,1.5735891
322,1437236136143,-9.644443,-6.333262,1.8537107
323,1437236136164,-7.4669166,-6.033388,1.7435774
324,1437236136191,-5.804742,-5.1798553,2.348712
325,1437236136198,-6.5786676,-5.33907,1.797447
326,1437236136218,-6.0746884,-5.8813562,1.4466964
327,1437236136241,-6.729502,-6.2608376,2.180519
328,1437236136260,-6.6666546,-6.679823,1.2204443
329,1437236136280,-5.2887917,-7.0700774,1.4502877
330,1437236136300,-5.0547585,-7.780557,2.6623523
331,1437236136320,-5.6030307,-8.07265,2.457648
332,1437236136339,-4.7758336,-8.1756,0.90021986
333,1437236136360,-4.049194,-9.035119,1.1641805
334,1437236136382,-4.7279496,-10.113108,2.0213048
335,1437236136402,-5.5701103,-10.173561,2.0775685
336,1437236136422,-4.0396166,-8.8567505,1.2916719
337,1437236136441,-2.235586,-8.761581,1.6172832
338,1437236136458,-2.2361844,-10.218452,1.9147629
339,1437236136478,-3.5033157,-11.794436,1.7788919
340,1437236136499,-4.617218,-13.057976,1.614889
341,1437236136519,-4.88896,-13.944429,1.8118122
342,1437236136542,-4.8069587,-14.522031,2.3612814
343,1437236136587,-4.8620253,-14.400525,2.4588451
344,1437236136588,-4.6519337,-13.7086,1.5221137
345,1437236136603,-4.168904,-12.794614,0.6895301
346,1437236136623,-4.2155905,-12.44087,0.8912416
347,1437236136638,-4.6806645,-12.046426,1.3928268
348,1437236136658,-3.9001546,-11.415554,1.5472529
349,1437236136678,-3.1531637,-10.864887,1.8100165
350,1437236136701,-3.132813,-10.19451,1.8034325
351,1437236136719,-3.6367924,-9.786898,1.632247
352,1437236136739,-4.0623617,-9.711481,1.9297266
353,1437236136760,-4.1940427,-9.679757,2.1751323
354,1437236136778,-3.900753,-9.139266,1.8429368
355,1437236136799,-4.308366,-8.676587,1.75076
356,1437236136819,-4.9895163,-8.7532015,1.8656816
357,1437236136839,-4.8781857,-8.348581,1.6585833
358,1437236136859,-4.781221,-7.7093296,1.4646529
359,1437236136880,-5.035605,-7.0766616,1.2952632
360,1437236136901,-5.5258174,-6.9228344,1.3503298
361,1437236136921,-5.704784,-6.965331,1.7878702
362,1437236136941,-5.482722,-6.751649,1.939902
363,1437236136959,-5.1361613,-6.202778,1.7950528
364,1437236136981,-5.5503583,-5.751471,1.7304093
365,1437236137001,-6.4745197,-5.693412,1.821389
366,1437236137022,-6.6624646,-5.5497594,1.567005
367,1437236137131,-5.989694,-4.9841294,1.1893197
368,1437236137132,-5.9843073,-4.698621,0.92176765
369,1437236137133,-6.949769,-5.0080714,0.8607155
370,1437236137134,-8.061875,-5.3199162,1.2725182
371,1437236137135,-8.435969,-5.482722,1.4802152
372,1437236137263,-7.7039423,-5.3342814,1.3982137
373,1437236137264,-7.1490865,-5.0906715,1.5969325
374,1437236137265,-7.7039423,-5.1259856,1.9512744
375,1437236137266,-7.848193,-5.2301335,2.1655555
376,1437236137282,-7.267599,-5.0104656,2.2451627
377,1437236137283,-6.601413,-4.572925,1.8716671
378,1437236137286,-6.8653736,-4.31076,1.4754268
379,1437236137287,-7.373543,-4.571728,1.5652094
380,1437236137306,-7.5788455,-4.7896004,1.9913772
381,1437236137320,-7.2388687,-4.675876,1.9111716
382,1437236137342,-7.2460513,-4.5316253,1.7340006
383,1437236137361,-7.2867527,-4.7860093,1.4227544
384,1437236137381,-7.1311297,-4.8422728,1.3862427
385,1437236137398,-7.6201453,-4.855441,1.2366052
386,1437236137419,-7.98586,-5.3163247,1.1234791
387,1437236137439,-8.057686,-5.601235,1.5903485
388,1437236137459,-8.112154,-6.090849,2.0973208
389,1437236137482,-8.186973,-6.4727244,2.5761611
390,1437236137502,-8.257003,-6.294955,2.243367
391,1437236137521,-7.9631147,-6.141726,1.858499
392,1437236137540,-7.66384,-6.0303955,1.9440918
393,1437236137560,-7.1245456,-6.1650696,1.7393875
394,1437236137579,-7.2005615,-6.9252286,2.2158337
395,1437236137599,-8.228871,-7.5333557,2.847903
396,1437236137619,-8.26239,-6.8761473,2.2218192
397,1437236137644,-6.7133417,-5.553351,1.292869
398,1437236137665,-6.247669,-5.461174,1.6591818
399,1437236137679,-7.844003,-6.4224463,2.1811178
400,1437236137699,-9.074024,-6.7229185,1.9129672
401,1437236137719,-9.089587,-6.6852098,1.7675194
402,1437236137780,-8.799889,-6.8767457,2.0350714
403,1437236137781,-8.963891,-7.253234,1.988983
404,1437236137782,-9.201516,-7.7105265,1.8375498
405,1437236137799,-9.060856,-7.9732904,2.0739772
406,1437236137819,-8.736442,-8.06427,2.6060886
407,1437236137839,-8.452729,-7.8589673,2.8161798
408,1437236137858,-8.073847,-7.2729864,2.4372973
409,1437236137881,-8.32045,-6.794146,2.243367
