id,attr_time,attr_x,attr_y,attr_z
1,1436374238017,3.0220811,9.109339,0.83378077
2,1436374238037,3.008913,9.09617,0.7140707
3,1436374238058,3.0561984,9.139865,0.6751649
4,1436374238079,3.028665,9.14226,0.8230068
5,1436374238096,3.019687,9.071032,0.9307459
6,1436374238121,3.1106665,9.068039,0.81343
7,1436374238141,3.0556,9.1033535,0.7116765
8,1436374238159,3.1130607,9.11712,0.7966706
9,1436374238176,3.1196449,9.120112,0.86729956
10,1436374238197,3.0651767,9.063849,0.96665895
11,1436374238221,3.064578,9.114726,0.9331401
12,1436374238241,3.1148565,9.130887,0.8242039
13,1436374238257,3.0693667,9.11712,0.6967127
14,1436374238281,3.052607,9.056067,0.8379706
15,1436374238298,3.0113072,9.139865,0.85891986
16,1436374238318,2.944868,9.131485,0.86729956
17,1436374238341,3.028665,9.087193,0.8559271
18,1436374238357,3.095703,9.136273,0.75237787
19,1436374238380,3.0885203,9.120711,0.83258367
20,1436374238400,3.115455,9.176975,0.83018947
21,1436374238420,3.1358056,9.102157,0.93373865
22,1436374238438,3.1794999,9.09258,0.80804306
23,1436374238456,3.1561563,9.075222,0.81881696
24,1436374238479,3.0897174,9.091981,0.7589619
25,1436374238496,3.0657754,9.134478,0.81522566
26,1436374238516,3.0789435,9.128492,0.81343
27,1436374238541,3.0843303,9.072228,0.7745243
28,1436374238557,3.0867245,9.020155,0.65780693
29,1436374238578,3.0747535,9.01776,0.56922144
30,1436374238602,3.0825348,8.992621,0.58897364
31,1436374238622,3.1399956,9.016563,0.6398504
32,1436374238640,3.043629,9.102157,0.7428011
33,1436374238663,2.9724014,9.109938,0.89184016
34,1436374238680,2.954445,9.153631,1.0857705
35,1436374238701,2.9269116,9.210494,1.0342951
36,1436374238721,3.007716,9.249998,0.99658644
37,1436374238740,2.9945478,9.206305,0.95827925
38,1436374238761,2.9825768,9.174581,0.8810662
39,1436374238780,3.0053217,9.183559,0.8762778
40,1436374238801,3.0825348,9.186552,0.94451255
41,1436374238818,3.0765493,9.129689,0.99898064
42,1436374238840,3.0226796,9.108142,0.8912416
43,1436374238860,3.0532057,9.056666,0.8218097
44,1436374238881,3.1465795,9.082404,0.7080852
45,1436374238900,3.1573534,9.099164,0.7098808
46,1436374238922,3.1585505,9.0476885,0.717662
47,1436374238940,3.128623,9.061455,0.724246
48,1436374238961,3.1370027,9.026739,0.85473
49,1436374238980,3.1004913,9.071032,0.82480246
50,1436374239001,3.0867245,9.101558,0.83497787
51,1436374239023,3.0693667,9.054871,0.7966706
52,1436374239041,3.098097,9.03871,0.700304
53,1436374239060,3.1196449,9.090784,0.682946
54,1436374239081,3.1190462,9.097368,0.8535329
55,1436374239164,3.1429882,9.123106,0.8762778
56,1436374239165,3.1238346,9.114127,0.87448215
57,1436374239168,3.1250317,9.059061,0.87567925
58,1436374239169,3.074155,9.014768,0.8062474
59,1436374239190,3.120842,9.064447,0.85532856
60,1436374239201,3.168726,9.076419,0.85532856
61,1436374239218,3.1112652,9.135675,0.8146271
62,1436374239238,3.0759506,9.114127,0.78170687
63,1436374239263,3.1352072,9.074024,1.0271125
64,1436374239287,3.1124623,9.098565,0.7799112
65,1436374239298,3.115455,9.097966,0.8439561
66,1436374239318,3.1106665,9.109938,0.90740246
67,1436374239338,3.117849,9.065046,0.8750807
68,1436374239359,3.1106665,9.093178,0.86490536
69,1436374239381,3.1465795,9.099164,0.85173726
70,1436374239401,3.1232362,9.059061,0.8571242
71,1436374239421,3.0867245,9.077017,0.81402856
72,1436374239441,3.0867245,9.072228,0.87567925
73,1436374239460,3.0819361,9.051279,0.8283938
74,1436374239480,3.1531637,9.11293,0.8846575
75,1436374239502,3.1376014,9.150639,0.83258367
76,1436374239522,3.0789435,9.09258,0.90859956
77,1436374239539,3.1268275,9.123106,0.93852705
78,1436374239567,3.0615854,9.100361,0.82001406
79,1436374239578,3.0561984,9.086594,0.80804306
80,1436374239602,3.0951042,9.044696,0.8439561
81,1436374239621,3.0783448,9.0554695,0.8379706
82,1436374239642,3.0753522,9.0716305,0.89662856
83,1436374239662,3.0651767,9.063251,0.9139865
84,1436374239683,3.1711202,9.1033535,0.7332243
85,1436374239702,3.1705215,9.108741,0.6745663
86,1436374239722,3.1483753,9.07582,0.79008657
87,1436374239742,3.0933087,9.093178,0.82899237
88,1436374239762,3.0609868,9.094376,0.89782566
89,1436374239781,3.0657754,9.114127,0.9091981
90,1436374239800,3.098097,9.118318,0.6979098
91,1436374239828,3.1142578,9.129091,0.7020996
92,1436374239882,3.132813,9.144653,0.80205756
93,1436374239887,3.120842,9.097368,0.80684596
94,1436374239888,3.1136594,9.039907,0.8074445
95,1436374239901,3.091513,9.070433,0.75956047
96,1436374239920,3.1256304,9.090185,0.7230489
97,1436374239941,3.0669725,9.120711,0.66858083
98,1436374239959,3.1226375,9.114127,0.91219085
99,1436374239985,3.0747535,9.084799,0.8230068
100,1436374240000,3.156755,9.113529,0.7302315
101,1436374240021,3.1663318,9.080608,0.7445967
102,1436374240041,3.1705215,9.069236,0.7433996
103,1436374240061,3.1597476,9.093777,0.7302315
104,1436374240082,3.103484,9.1033535,0.7799112
105,1436374240100,3.1292217,9.100361,0.7870938
106,1436374240122,3.1364043,9.069236,0.79128367
107,1436374240142,3.0998926,9.088389,0.7009025
108,1436374240162,3.2028434,9.1033535,0.74519527
109,1436374240182,3.198055,9.0842,0.7110779
110,1436374240202,3.198055,9.061455,0.6584055
111,1436374240219,3.1723173,9.056067,0.6488287
112,1436374240242,3.1693244,9.0554695,0.6781576
113,1436374240262,3.1226375,9.087791,0.729633
114,1436374240282,3.0998926,9.065046,0.7433996
115,1436374240299,3.1142578,9.062652,0.7038953
116,1436374240322,3.1124623,9.101558,0.6266823
117,1436374240343,3.1316159,9.120711,0.7254431
118,1436374240362,3.1561563,9.03452,0.76315176
119,1436374240382,3.17531,9.054871,0.7613561
120,1436374240402,3.1914709,9.099762,0.6835446
121,1436374240419,3.1794999,9.135675,0.6877344
122,1436374240443,3.1124623,9.174581,0.80924016
123,1436374240463,3.0280666,9.225458,1.009156
124,1436374240482,2.96881,9.197925,1.0031705
125,1436374240505,2.956839,9.167996,0.79607207
126,1436374240523,3.153762,9.106346,0.7835025
127,1436374240542,3.2291796,9.070433,0.7009025
128,1436374240561,3.2638955,9.041104,0.6985083
129,1436374240615,3.240552,9.018958,0.85293436
130,1436374240616,3.1399956,9.036316,0.8265981
131,1436374240633,3.110068,9.020155,0.7302315
132,1436374240639,3.12982,9.032125,0.6266823
133,1436374240660,2.995745,9.098565,0.61530983
134,1436374240681,2.9945478,9.103952,0.78649527
135,1436374240700,3.0490158,9.120711,0.7954735
136,1436374240720,3.0352492,9.138069,0.777517
137,1436374240739,3.0370448,9.149442,0.83258367
138,1436374240763,3.0765493,9.143456,0.87448215
139,1436374240785,3.1124623,9.116522,0.8242039
140,1436374240801,3.1160536,9.130887,0.6991069
141,1436374240823,3.0998926,9.146449,0.7044938
142,1436374240843,3.0376434,9.11712,0.7733272
143,1436374240863,3.0723593,9.042301,0.7811083
144,1436374240883,3.05141,9.032724,0.6871359
145,1436374240902,3.0783448,9.029133,0.89603
146,1436374240924,3.0490158,9.056067,0.76554596
147,1436374240943,3.0202854,9.123704,0.78050977
148,1436374240963,3.0585926,9.197326,0.86969376
149,1436374240983,3.0071173,9.142858,0.97144735
150,1436374241003,2.996942,9.120711,0.92775315
151,1436374241020,3.016694,9.123106,0.89303726
152,1436374241043,3.0083144,9.130887,0.7846996
153,1436374241063,3.0250738,9.15842,0.79726917
154,1436374241083,3.0113072,9.148843,0.9235633
155,1436374241103,3.0017304,9.054871,0.9564836
156,1436374241121,3.0340521,9.0842,0.842759
157,1436374241143,3.0466216,9.126697,0.7026982
158,1436374241164,3.0472202,9.083003,0.76195467
159,1436374241184,3.0723593,9.0716305,0.83378077
160,1436374241203,3.0532057,9.042301,0.82001406
161,1436374241221,3.0160956,9.053674,0.7733272
162,1436374241242,3.095703,9.119514,0.7553706
163,1436374241262,3.0579941,9.1590185,0.7691373
164,1436374241289,3.0490158,9.162011,0.9235633
165,1436374241301,3.019687,9.165004,0.9792285
166,1436374241354,3.0298622,9.106945,0.9876082
167,1436374241355,3.0538042,9.112331,0.9415198
168,1436374241369,3.0226796,9.118318,0.81283146
169,1436374241380,2.9939492,9.16261,0.7799112
170,1436374241410,3.0855274,9.094974,0.88944596
171,1436374241422,3.0011318,9.105747,0.8331822
172,1436374241441,3.0466216,9.108142,0.85413146
173,1436374241461,3.0466216,9.1350765,0.9540894
174,1436374241480,3.016694,9.136273,0.9187749
175,1436374241504,3.0053217,9.166202,0.94211835
176,1436374241526,3.0119057,9.126697,0.92895025
177,1436374241541,3.0897174,9.106945,0.7966706
178,1436374241561,3.1693244,9.123106,0.81761986
179,1436374241580,3.2160115,9.114726,0.79248077
180,1436374241600,3.1364043,9.139865,0.8331822
181,1436374241620,3.086126,9.105747,0.90620536
182,1436374241644,3.0472202,9.0794115,0.95708215
183,1436374241664,2.9843724,9.097368,0.7721301
184,1436374241684,2.9317,9.179369,0.75956047
185,1436374241704,2.9867666,9.148245,0.8451532
186,1436374241724,2.979584,9.160814,0.760159
187,1436374241743,2.979584,9.147048,0.9068039
188,1436374241761,2.9789855,9.11293,0.95468795
189,1436374241783,3.0059202,9.151836,0.8343793
190,1436374241804,3.0137014,9.161413,0.88046765
191,1436374241821,2.9071593,9.197326,0.81522566
192,1436374241842,2.8874073,9.130288,0.92655605
193,1436374241863,2.9370868,9.064447,0.8230068
194,1436374241885,2.9340942,9.115324,0.8331822
195,1436374241905,2.8856115,9.050082,0.80564886
196,1436374241926,2.973,9.029732,0.8038532
197,1436374241941,2.949058,9.052477,0.76195467
198,1436374241963,2.9634233,9.062054,0.81043726
199,1436374241982,2.9454668,9.051279,0.7637503
200,1436374242003,2.9370868,9.095572,0.7344214
201,1436374242023,2.9412768,9.098565,0.8888474
202,1436374242045,2.9460652,9.200917,0.97384155
203,1436374242093,2.9622262,9.198523,0.9983821
204,1436374242094,3.0029275,9.153033,0.76075757
205,1436374242106,3.0585926,9.15423,0.64703304
206,1436374242122,2.9981391,9.161413,0.7230489
207,1436374242142,2.9113493,9.119514,0.94092125
208,1436374242164,2.902371,9.048885,0.8678981
209,1436374242181,2.9586349,9.085397,0.7290344
210,1436374242201,3.0220811,9.132084,0.83856916
211,1436374242225,2.956839,9.164406,0.8571242
212,1436374242242,2.9873652,9.157822,1.039682
213,1436374242262,2.949058,9.189545,0.9283517
214,1436374242281,2.9724014,9.183559,0.8702923
215,1436374242303,2.9430726,9.145252,0.90261406
216,1436374242324,2.9831753,9.102755,0.9672575
217,1436374242344,2.926313,9.167398,0.8182184
218,1436374242365,2.96881,9.16261,0.825401
219,1436374242384,2.980781,9.134478,0.8822633
220,1436374242404,2.966416,9.12131,0.9487024
221,1436374242424,2.9933507,9.128492,0.9115923
222,1436374242444,3.0322564,9.141062,0.79607207
223,1436374242463,2.9951463,9.117719,0.8523358
224,1436374242481,2.9765913,9.105747,0.85532856
225,1436374242505,2.9801826,9.100361,0.82240826
226,1436374242522,3.0119057,9.117719,0.6991069
227,1436374242545,3.0609868,9.083601,0.81163436
228,1436374242562,2.9867666,9.128492,0.86490536
229,1436374242581,2.9508536,9.138668,0.81043726
230,1436374242602,2.9526494,9.136872,0.81402856
231,1436374242627,2.9861681,9.094974,0.79726917
232,1436374242647,2.9993362,9.127894,0.8595184
233,1436374242662,2.9897594,9.145252,0.8230068
234,1436374242685,2.9975405,9.144054,0.80804306
235,1436374242701,2.9951463,9.132683,0.91458505
236,1436374242722,2.983774,9.178771,0.89423436
237,1436374242742,3.0184898,9.160814,0.8882488
238,1436374242762,3.0071173,9.216479,0.81163436
239,1436374242784,3.043629,9.284714,0.8265981
240,1436374242837,3.0376434,9.264962,0.8619126
241,1436374242838,3.0400376,9.236232,0.80086046
242,1436374242850,2.9879637,9.348161,0.7230489
243,1436374242862,2.8790276,9.240421,0.87208796
244,1436374242885,2.677316,9.019556,0.97743285
245,1436374242902,2.7605145,8.779537,0.85413146
246,1436374242924,3.1136594,8.661623,0.50397944
247,1436374242944,2.7760768,9.187749,0.6691794
248,1436374242964,2.806603,9.061455,0.9911995
249,1436374242982,3.0603883,8.992621,0.88286185
250,1436374243002,3.144784,9.015367,0.6817489
251,1436374243025,3.0059202,9.216479,0.6619968
252,1436374243042,2.7910407,9.297882,0.8295909
253,1436374243065,2.834735,9.230247,1.09834
254,1436374243084,2.870648,9.188348,0.90500826
255,1436374243105,2.8963854,9.189545,0.76315176
256,1436374243125,2.9526494,9.165004,0.66020113
257,1436374243145,3.0579941,9.157822,0.7308301
258,1436374243166,3.063381,9.156026,0.83378077
259,1436374243185,3.1453824,9.162011,0.997185
260,1436374243205,3.052607,9.126697,0.8678981
261,1436374243225,3.0663738,9.097966,0.7374141
262,1436374243243,2.9951463,9.084799,0.7308301
263,1436374243265,2.8993783,9.122507,0.7751228
264,1436374243282,2.92751,9.131485,0.8194155
265,1436374243302,2.9646204,9.160215,0.8996213
266,1436374243322,2.9903579,9.176975,0.8403648
267,1436374243347,2.954445,9.170391,0.801459
268,1436374243369,3.0005333,9.120112,0.9103952
269,1436374243388,3.019687,9.111135,0.8690952
270,1436374243405,2.9993362,9.099164,0.8002619
271,1436374243422,2.9843724,9.145252,0.8391677
272,1436374243442,3.0226796,9.202713,0.87687635
273,1436374243462,2.954445,9.091981,0.84694886
274,1436374243484,2.9586349,9.091981,0.8050503
275,1436374243503,2.9622262,9.099164,0.801459
276,1436374243556,3.0412347,9.0842,0.8984242
277,1436374243557,3.0250738,9.082404,0.931943
278,1436374243576,2.9364884,9.148843,0.8762778
279,1436374243582,2.9825768,9.126697,1.0510546
280,1436374243602,3.093907,9.095572,0.87208796
281,1436374243622,3.0017304,9.2069025,0.83258367
282,1436374243642,2.955642,9.072228,0.82240826
283,1436374243663,2.9616275,9.146449,0.94211835
284,1436374243682,2.9604304,9.109938,0.91099375
285,1436374243704,3.0095115,9.141062,0.93373865
286,1436374243726,2.992752,9.114127,0.8122329
287,1436374243743,3.040636,9.082404,0.99898064
288,1436374243765,3.0556,9.121908,0.88944596
289,1436374243783,3.0735564,9.14585,0.86849666
290,1436374243805,2.9963434,9.11293,0.8882488
291,1436374243826,3.0172927,9.077616,0.96426475
292,1436374243846,2.9574378,9.096769,0.94570965
293,1436374243866,3.004723,9.1350765,0.7811083
294,1436374243883,3.0059202,9.128492,0.8595184
295,1436374243905,3.0232782,9.122507,0.9068039
296,1436374243925,3.0172927,9.136872,0.93373865
297,1436374243946,2.966416,9.114127,0.94092125
298,1436374243963,3.0053217,9.120711,0.9259575
299,1436374243984,2.9765913,9.126099,0.85891986
300,1436374244004,2.9759927,9.116522,0.93613285
301,1436374244025,3.0101101,9.100361,0.89782566
302,1436374244048,3.016694,9.127894,0.9235633
303,1436374244065,3.0280666,9.108741,0.86849666
304,1436374244084,3.0244753,9.101558,0.9247604
305,1436374244103,3.039439,9.100361,0.98461545
306,1436374244123,3.0190883,9.13388,0.9044097
307,1436374244149,3.0190883,9.103952,0.83737206
308,1436374244165,3.0771477,9.051279,0.86969376
309,1436374244189,3.0011318,9.0842,0.83138657
310,1436374244203,3.0041246,9.111733,0.9498995
311,1436374244228,3.0017304,9.091382,0.95109665
312,1436374244279,3.0190883,9.130887,0.93373865
313,1436374244280,3.004723,9.111733,0.8559271
314,1436374244304,3.0561984,9.09617,0.92296475
315,1436374244305,3.0137014,9.131485,0.79846627
316,1436374244354,3.0705638,9.106945,0.91458505
317,1436374244355,3.028665,9.078813,0.8984242
318,1436374244364,3.063381,9.099164,0.9475053
319,1436374244385,3.0280666,9.090185,0.9876082
320,1436374244404,3.0538042,9.06744,0.878672
321,1436374244423,3.0262709,9.146449,0.87567925
322,1436374244447,3.031658,9.1255,0.99299514
323,1436374244469,3.016694,9.123704,0.99179804
324,1436374244486,3.0142999,9.106945,1.0205284
325,1436374244503,2.9873652,9.120711,0.97264445
326,1436374244525,3.0310593,9.111733,0.96187055
327,1436374244545,3.0226796,9.111733,0.9900024
328,1436374244565,3.0005333,9.101558,0.9959879
329,1436374244585,3.0747535,9.098565,1.0031705
330,1436374244609,3.068768,9.085397,0.8924387
331,1436374244623,3.0418332,9.086594,0.9008184
332,1436374244644,3.0280666,9.060258,0.91817635
333,1436374244663,3.0005333,9.109938,0.90620536
334,1436374244683,3.0256724,9.116522,0.9403227
335,1436374244709,3.0538042,9.099164,0.9900024
336,1436374244723,2.9951463,9.126099,0.8265981
337,1436374244753,2.9813797,9.129091,1.0067618
338,1436374244763,2.919729,9.149442,1.0001777
339,1436374244790,3.0322564,9.000402,0.9780314
340,1436374244803,2.9550436,9.036316,0.7314286
341,1436374244823,3.1669302,9.323022,0.8170213
342,1436374244843,3.2980127,9.634268,1.4395138
343,1436374244864,3.8385038,10.445902,1.5346833
344,1436374244883,3.318962,9.977836,0.6865373
345,1436374244904,3.4368765,9.924564,0.4177882
346,1436374244923,2.384625,8.293514,0.35553896
347,1436374244943,2.0602105,8.660426,1.2467805
348,1436374244964,2.2780828,8.831013,2.1164744
349,1436374244983,2.4863784,9.035717,1.8417397
350,1436374245004,1.9578584,9.888053,2.27928
351,1436374245024,1.4095862,10.822391,3.8367083
352,1436374245043,2.0248961,9.910798,3.6062663
353,1436374245084,2.754529,8.911818,3.433884
354,1436374245085,3.3746274,8.6095495,3.4793737
355,1436374245106,2.885013,8.56825,2.980781
356,1436374245124,1.7842789,8.553286,2.8742392
357,1436374245144,1.3982137,8.747814,3.0538042
358,1436374245164,1.7884687,8.971074,2.582745
359,1436374245183,1.9883845,9.044696,2.6833014
360,1436374245207,1.5191209,8.536526,2.0512323
361,1436374245223,1.6753427,8.248025,3.4871547
362,1436374245243,1.9794062,8.2115135,4.198831
363,1436374245264,1.9321208,7.7823524,3.9193082
364,1436374245284,1.7052702,8.336012,3.8187518
365,1436374245303,2.0123265,8.520964,3.6984432
366,1436374245324,2.1332338,7.8050976,3.277662
367,1436374245344,1.8722657,7.7159133,3.6685154
368,1436374245364,1.7651252,7.8446016,3.5625722
369,1436374245385,1.9542671,7.53156,3.453636
370,1436374245404,2.0045455,7.700351,4.4957123
371,1436374245425,2.1613655,7.701548,4.5801077
372,1436374245445,2.3002293,7.44896,4.605247
373,1436374245464,2.6240451,7.189788,3.8606503
374,1436374245485,2.3439236,7.0209966,4.408922
375,1436374245504,2.610877,7.7865424,4.9919105
376,1436374245524,2.4504654,8.277952,4.429273
377,1436374245544,2.5276785,7.875128,4.3382936
378,1436374245565,2.6473885,7.101801,4.594473
379,1436374245584,2.8646624,6.813898,4.7925935
380,1436374245605,2.6126726,6.39611,5.4312468
381,1436374245625,2.1218612,5.9130797,6.4026937
382,1436374245645,2.1505916,6.5002575,6.271013
383,1436374245665,5.505467,17.453133,6.963536
384,1436374245685,8.938153,19.597738,1.2066777
385,1436374245714,4.875193,4.0240545,0.93732995
386,1436374245726,1.8441339,-3.7858315,-0.15023616
387,1436374245791,2.2852654,2.5791538,-0.14425065
388,1436374245792,2.1398177,15.690401,0.31603462
389,1436374245793,0.95708215,14.544775,-2.7832594
390,1436374245804,-0.060453594,7.489063,-2.4408886
391,1436374245828,2.5582044,5.881955,2.259528
392,1436374245844,2.861071,7.305308,3.9234982
393,1436374245864,0.75956047,8.632893,3.4111388
394,1436374245886,-0.108936176,9.342773,0.8583213
395,1436374245904,-0.18136078,9.931747,-2.1380222
396,1436374245925,0.61112,9.176975,-1.8788497
397,1436374245947,1.9249382,8.607754,-0.13108255
398,1436374245965,2.698864,8.608353,1.1246762
399,1436374245988,2.6599581,8.37013,0.83617496
400,1436374246004,2.2906525,8.647857,1.3395559
401,1436374246025,2.930503,9.996989,1.6358383
402,1436374246046,2.0320787,12.260707,0.29328972
403,1436374246068,2.094328,15.932215,-1.5717934
404,1436374246088,2.4307132,15.652094,-1.1450269
405,1436374246104,0.7080852,11.299435,2.908955
406,1436374246126,-0.30466217,9.110536,9.874885
407,1436374246146,1.2084733,7.687782,9.037513
408,1436374246168,8.838196,10.31901,3.918111
409,1436374246190,14.517242,18.335396,-9.00579
410,1436374246206,8.902241,14.381969,-11.341932
411,1436374246231,3.7750576,19.607914,-16.09502
412,1436374246246,5.5563436,15.43063,-10.278308
413,1436374246270,9.958682,9.269152,19.082386
414,1436374246288,6.729502,8.467693,4.2640734
415,1436374246306,2.2661119,1.079785,-1.9871874
416,1436374246325,3.7565024,-3.4506433,6.5367694
417,1436374246345,1.9303252,-0.7769185,3.5865142
418,1436374246371,-0.87927055,1.1558008,1.6023195
419,1436374246386,-1.0899603,2.211644,2.0266917
420,1436374246405,-1.0103531,0.56443304,4.122815
421,1436374246426,-0.9528923,0.19033903,5.763442
422,1436374246450,-0.39564183,4.185663,11.880628
423,1436374246510,1.0737995,11.947665,13.699622
424,1436374246540,11.830349,15.268423,4.301782
425,1436374246541,13.602058,5.602432,-4.671686
426,1436374246542,5.9507885,-0.8265981,0.8559271
