id,attr_time,attr_x,attr_y,attr_z
1,1436471341206,-5.3115363,8.220491,-0.0077811554
2,1436471341228,-5.2768207,8.196549,-0.010773907
3,1436471341253,-5.2744265,8.189367,0.033518825
4,1436471341279,-5.16968,8.188768,0.035314474
5,1436471341288,-5.2319293,8.230667,-0.047884032
6,1436471341306,-5.225345,8.237849,-0.077811554
7,1436471341325,-5.2540755,8.253412,-0.092176765
8,1436471341345,-5.253477,8.251018,-0.049081136
9,1436471341365,-5.2474914,8.210316,-0.03232172
10,1436471341385,-5.2923827,8.209718,-0.012569559
11,1436471341405,-5.2498856,8.225879,-0.026934769
12,1436471341425,-5.3049526,8.271967,-0.061052144
13,1436471341445,-5.221155,8.314464,-0.092176765
14,1436471341465,-5.318719,8.234259,-0.0688333
15,1436471341485,-5.2157683,8.207323,-0.007182605
16,1436471341505,-5.084686,8.246229,-0.10295067
17,1436471341525,-5.131373,8.331821,-0.15801731
18,1436471341545,-5.3504424,8.456919,-0.38965634
19,1436471341566,-5.401319,8.404845,-0.31783026
20,1436471341603,-5.506664,8.1079645,-0.015562311
21,1436471341610,-5.577293,7.929596,0.2100912
22,1436471341624,-5.565322,7.8505874,0.3573346
23,1436471341644,-5.5485625,7.7973166,0.4237737
24,1436471341664,-5.5563436,7.7973166,0.4357447
25,1436471341685,-5.583278,7.914034,0.28670564
26,1436471341708,-5.6084175,8.059482,0.077811554
27,1436471341725,-5.6030307,8.173206,-0.07182605
28,1436471341746,-5.433641,8.2995,-0.16639702
29,1436471341769,-5.3767786,8.238448,-0.09935937
30,1436471341788,-5.5258174,8.119336,-0.089184016
31,1436471341811,-5.398925,8.192958,-0.27712885
32,1436471341827,-5.433641,8.414422,-0.44532153
33,1436471341846,-5.530606,8.508993,-0.5859809
34,1436471341865,-5.3642087,8.383297,-0.42676646
35,1436471341887,-5.647323,7.815273,0.19812019
36,1436471341908,-5.6946087,7.44896,0.7032967
37,1436471341928,-5.856816,7.293337,0.973243
38,1436471341949,-5.796961,7.061698,1.2324153
39,1436471341969,-5.9926867,6.8905125,1.2240356
40,1436471341988,-6.3422403,7.173627,0.8074445
41,1436471342007,-6.1542954,7.4363904,0.50397944
42,1436471342026,-6.3584013,7.3992805,0.40641573
43,1436471342049,-6.227319,7.3549876,0.39983168
44,1436471342069,-6.2901664,7.2622123,0.39025488
45,1436471342088,-6.482301,7.2149267,0.40043023
46,1436471342108,-6.4248405,7.2364745,0.31364042
47,1436471342128,-6.2883706,7.2867527,0.22445641
48,1436471342145,-6.325481,7.301717,0.2124854
49,1436471342165,-6.342839,7.1305313,0.29867667
50,1436471342186,-6.4218473,7.074866,0.25079262
51,1436471342206,-6.4326215,6.9892735,0.2693477
52,1436471342225,-6.5445504,6.895301,0.24839842
53,1436471342250,-6.4619503,6.5936313,0.51834464
54,1436471342270,-6.253655,6.566098,0.5931635
55,1436471342286,-6.3685765,6.7731967,0.22266077
56,1436471342306,-6.5804634,6.8079123,-0.21188685
57,1436471342326,-6.7743936,6.951565,-0.75357497
58,1436471342346,-6.8210807,6.9820905,-1.0660183
59,1436471342366,-7.2789717,6.8827314,-1.3455414
60,1436471342398,-7.8583684,6.8240733,-1.7250223
61,1436471342419,-7.4082584,6.785766,-1.8171991
62,1436471342426,-7.451354,6.6744356,-1.8531121
63,1436471342446,-7.5363483,6.645705,-1.8387469
64,1436471342466,-7.3310456,6.7372837,-1.7890673
65,1436471342486,-7.0365586,6.779781,-1.7010803
66,1436471342506,-6.7666125,7.0341644,-1.7423803
67,1436471342526,-6.5008564,7.2843585,-1.7687165
68,1436471342548,-6.215348,7.551911,-1.8088194
69,1436471342566,-6.167464,7.7081323,-1.8405426
70,1436471342586,-6.1195793,7.7087307,-1.7591397
71,1436471342606,-6.217143,7.747637,-1.8716671
72,1436471342626,-6.353613,7.691373,-1.922544
73,1436471342650,-6.403891,7.530363,-1.821389
74,1436471342666,-6.597223,7.349601,-1.6609775
75,1436471342689,-6.7229185,7.173627,-1.536479
76,1436471342710,-6.757634,6.9449806,-1.388637
77,1436471342730,-6.847417,6.7360864,-1.2162545
78,1436471342750,-7.035362,6.5128274,-1.0582372
79,1436471342770,-7.189788,6.461352,-1.0115502
80,1436471342788,-7.104195,6.508039,-1.0444705
81,1436471342808,-7.1329255,6.5984197,-1.043872
82,1436471342829,-7.062895,6.7001734,-1.1139023
83,1436471342850,-7.04015,6.758233,-1.103727
84,1436471342871,-7.267599,6.7510505,-1.1845313
85,1436471342890,-7.6734166,6.6510925,-1.228824
86,1436471342906,-7.378331,6.693589,-1.2922704
87,1436471342926,-6.9731126,6.8599863,-1.1797429
88,1436471342961,-6.977901,6.8330517,-0.88166475
89,1436471342965,-6.849811,6.727707,-0.545878
90,1436471342987,-6.8749504,6.687604,-0.5105635
91,1436471343010,-6.999449,6.593033,-0.50158525
92,1436471343030,-7.2807674,6.4541693,-0.44232875
93,1436471343046,-7.3627687,6.338649,-0.3393781
94,1436471343068,-7.3669586,6.1836243,-0.2184709
95,1436471343087,-7.3537903,6.0268044,-0.16519992
96,1436471343111,-7.519589,6.0728927,-0.11252748
97,1436471343130,-7.5746555,6.168062,-0.16759412
98,1436471343151,-7.523779,6.273407,-0.29807812
99,1436471343167,-7.4046674,6.3230867,-0.32202014
100,1436471343186,-7.253234,6.338649,-0.25139117
101,1436471343210,-7.367557,6.3009405,-0.13706805
102,1436471343230,-7.3525934,6.2482677,0.019752163
103,1436471343250,-7.350199,6.196194,0.06943185
104,1436471343269,-7.518392,6.1219735,-0.02873042
105,1436471343290,-7.52737,6.1507044,-0.051475335
106,1436471343307,-7.4256167,6.2351,-0.108337626
107,1436471343330,-7.4004774,6.2303114,-0.17836803
108,1436471343349,-7.460931,6.2087636,-0.22146365
109,1436471343368,-7.439383,6.217143,-0.19033903
110,1436471343389,-7.4088573,6.1967926,-0.15502456
111,1436471343410,-7.439383,6.1716533,-0.16160862
112,1436471343430,-7.586028,6.149507,-0.2669535
113,1436471343450,-7.7248917,6.165668,-0.3728969
114,1436471343471,-7.662044,6.165668,-0.38367084
115,1436471343490,-7.693767,6.1117983,-0.40222588
116,1436471343510,-7.771579,6.1261635,-0.41000703
117,1436471343531,-7.703344,6.108207,-0.3669114
118,1436471343549,-7.5920134,6.1100025,-0.2885013
119,1436471343569,-7.5148005,6.1123967,-0.2753332
120,1436471343629,-7.5171947,6.0441623,-0.24181437
121,1436471343640,-7.575853,5.997475,-0.19273324
122,1436471343641,-7.5704656,5.9968767,-0.15143326
123,1436471343650,-7.53575,6.0172276,-0.13108255
124,1436471343668,-7.557896,6.0441623,-0.15562311
125,1436471343687,-7.52737,6.066907,-0.18315643
126,1436471343707,-7.49445,6.0740895,-0.20709845
127,1436471343731,-7.5321584,6.0902505,-0.23163901
128,1436471343748,-7.5884223,6.0956373,-0.22864626
129,1436471343768,-7.566276,6.1219735,-0.25737667
130,1436471343788,-7.5453267,6.155493,-0.30585927
131,1436471343809,-7.627328,6.153697,-0.29927522
132,1436471343832,-7.555502,6.2003837,-0.2896984
133,1436471343851,-7.4830775,6.23091,-0.26755205
134,1436471343870,-7.4046674,6.325481,-0.2861071
135,1436471343891,-7.401076,6.4068837,-0.42078096
136,1436471343910,-7.6123643,6.397307,-0.5069722
137,1436471343930,-7.700351,6.453571,-0.427365
138,1436471343952,-7.5926123,6.4697313,-0.4165911
139,1436471343970,-7.4806833,6.43322,-0.41180268
140,1436471343994,-7.7985134,6.4392056,-0.39803603
141,1436471344010,-7.841609,6.3781533,-0.31543607
142,1436471344039,-7.896077,6.35062,-0.17417817
143,1436471344050,-7.6734166,6.363788,-0.06943185
144,1436471344070,-7.0712748,6.3464303,0.17357962
145,1436471344088,-6.9210386,6.4206505,0.4213795
146,1436471344109,-6.8186865,6.4745197,0.66259533
147,1436471344131,-7.025785,6.508039,0.61411273
148,1436471344151,-6.931214,6.510433,0.7398083
149,1436471344170,-6.933608,6.5110316,0.7398083
150,1436471344191,-6.951565,6.485294,0.7625532
151,1436471344211,-6.980295,6.4344172,0.83856916
152,1436471344231,-7.043741,6.371569,0.87687635
153,1436471344263,-7.144298,6.351817,0.80564886
154,1436471344269,-7.165247,6.2985463,0.7751228
155,1436471344297,-7.1963716,6.3338604,0.7404069
156,1436471344355,-7.2670007,6.3446345,0.705691
157,1436471344356,-7.290344,6.375759,0.6955156
158,1436471344357,-7.207744,6.423643,0.6913257
159,1436471344368,-7.20535,6.5140243,0.7074866
160,1436471344390,-7.267599,6.5631056,0.6619968
161,1436471344409,-6.967127,6.63134,0.6500258
162,1436471344428,-6.9342065,6.743868,0.57041854
163,1436471344451,-6.8647747,6.8162923,0.4854244
164,1436471344469,-6.8605847,6.8486137,0.43993455
165,1436471344488,-6.811504,6.947375,0.36870706
166,1436471344509,-6.736685,7.013814,0.29987377
167,1436471344528,-6.711546,7.083844,0.22026655
168,1436471344551,-6.8127007,7.1185603,0.12270284
169,1436471344568,-6.7989345,7.161656,0.090381116
170,1436471344591,-6.724714,7.1425023,0.089782566
171,1436471344610,-6.7091517,7.1251445,0.15203181
172,1436471344631,-6.7402763,7.053318,0.14784196
173,1436471344651,-6.8144965,7.076063,0.11552023
174,1436471344671,-6.7187285,7.1748238,0.076614454
175,1436471344691,-6.364985,7.270592,0.11671733
176,1436471344709,-6.271611,7.632715,-0.026934769
177,1436471344731,-6.408081,7.7667904,-0.20530279
178,1436471344751,-6.344036,7.7201033,-0.30645782
179,1436471344769,-6.4547677,7.5243773,-0.2741361
180,1436471344791,-6.669049,7.2508397,-0.14544775
181,1436471344809,-6.9264255,6.9485717,-0.017357962
182,1436471344828,-7.0251865,6.757634,0.05746084
183,1436471344848,-7.0886326,6.637326,0.16460137
184,1436471344869,-7.097611,6.5128274,0.25498247
185,1436471344894,-7.1604586,6.457162,0.3609259
186,1436471344914,-7.1610575,6.4242415,0.48961425
187,1436471344931,-7.1502833,6.4625487,0.5243302
188,1436471344951,-7.0826473,6.481104,0.5482722
189,1436471344969,-7.0503254,6.506243,0.54767364
190,1436471344998,-7.005434,6.531981,0.56084174
191,1436471345113,-6.9581485,6.539762,0.6368576
192,1436471345114,-6.8486137,6.5499372,0.7044938
193,1436471345115,-6.811504,6.597223,0.75477207
194,1436471345116,-6.8204823,6.6612678,0.7386112
195,1436471345117,-6.979098,6.751649,0.5805939
196,1436471345118,-7.0461354,6.8462195,0.3693056
197,1436471345141,-7.0168066,6.909666,0.25917232
198,1436471345177,-7.013814,6.913856,0.21428105
199,1436471345178,-7.0126166,6.899491,0.24181437
200,1436471345289,-7.0593038,6.873753,0.23523031
201,1436471345290,-7.0946183,6.9006877,0.24600422
202,1436471345291,-7.041347,6.8581905,0.2705448
203,1436471345292,-6.989872,6.839636,0.350152
204,1436471345293,-6.893505,6.767211,0.427365
205,1436471345294,-6.869563,6.75943,0.49440265
206,1436471345325,-6.967127,6.771401,0.5398925
207,1436471345331,-6.973711,6.7564373,0.5189432
208,1436471345352,-6.863578,6.7839704,0.5081693
209,1436471345369,-6.8132997,6.803723,0.4973954
210,1436471345389,-6.7827735,6.885724,0.44831428
211,1436471345412,-6.7731967,6.9407907,0.37828386
212,1436471345430,-6.827066,6.9838862,0.29269117
213,1436471345452,-6.807314,7.001843,0.29269117
214,1436471345472,-6.7654157,7.019799,0.30526072
215,1436471345492,-6.7229185,7.021595,0.28311434
216,1436471345512,-6.7612257,7.0126166,0.29867667
217,1436471345531,-6.779781,7.008427,0.29149407
218,1436471345552,-6.831256,7.019201,0.29448682
219,1436471345569,-6.719327,7.017405,0.30526072
220,1436471345592,-6.7869635,7.004237,0.3453636
221,1436471345613,-6.740875,7.0012445,0.36631286
222,1436471345632,-6.7372837,7.019201,0.3728969
223,1436471345650,-6.7121444,6.986879,0.3561375
224,1436471345670,-6.7426705,7.000047,0.35913026
225,1436471345694,-6.7708025,6.989872,0.33518824
226,1436471345714,-6.733692,6.9826894,0.31783026
227,1436471345735,-6.7199254,6.9820905,0.30765492
228,1436471345752,-6.7426705,7.004237,0.2681506
229,1436471345772,-6.7719994,7.004237,0.24420857
230,1436471345789,-6.7199254,7.016208,0.2220622
231,1436471345812,-6.6971807,7.049727,0.22385786
232,1436471345831,-6.685808,7.0449386,0.19931729
233,1436471345851,-6.654085,7.055712,0.16639702
234,1436471345919,-6.6786256,7.079654,0.12449849
235,1436471345920,-6.6391215,7.100005,0.09935937
236,1436471345921,-6.628946,7.123947,0.05746084
237,1436471345930,-6.5840545,7.137714,0.029927522
238,1436471345965,-6.6175733,7.1395097,0.0005985504
239,1436471345969,-6.627749,7.1448965,-0.038905777
240,1436471345990,-6.5846534,7.121553,-0.08080431
241,1436471346015,-6.669049,7.1251445,-0.091578215
242,1436471346052,-6.757634,7.117962,-0.08499416
243,1436471346053,-6.678027,7.0874357,-0.0688333
244,1436471346070,-6.6959834,7.093421,-0.046088383
245,1436471346092,-6.625953,7.097611,-0.05327099
246,1436471346109,-6.6534867,7.1143703,-0.11312603
247,1436471346133,-6.6905966,7.114969,-0.11552023
248,1436471346153,-6.739079,7.083844,-0.08200141
249,1436471346173,-6.715736,7.0886326,-0.090979666
250,1436471346193,-6.675633,7.0646906,-0.06943185
251,1436471346213,-6.6893997,7.0485296,-0.034117375
252,1436471347674,-6.681618,7.03596,-0.03232172
253,1436471347675,-6.783372,7.0622964,-0.009576807
254,1436471347676,-6.6905966,7.028179,-0.017956512
255,1436471347677,-6.787562,7.0503254,-0.01436521
256,1436471347678,-6.739678,7.047333,0.02873042
257,1436471347679,-6.715736,7.053318,0.034117375
258,1436471347680,-6.7666125,7.0503254,0.045489833
259,1436471347681,-6.746262,7.0706763,0.06943185
260,1436471347682,-6.758233,7.0862384,0.08379706
261,1436471347683,-6.7522473,7.097611,0.14425065
262,1436471347684,-6.7145386,7.0946183,0.17537527
263,1436471347685,-6.6445084,7.089231,0.219668
264,1436471347686,-6.6295447,7.065289,0.30107087
265,1436471347687,-6.640917,7.083844,0.3238158
266,1436471347688,-6.589442,7.067085,0.31663316
267,1436471347689,-6.6480994,7.1089835,0.2633622
268,1436471347690,-6.6666546,7.1347213,0.2657564
269,1436471347691,-6.6265516,7.15986,0.20949265
270,1436471347692,-6.6109896,7.150882,0.23223756
271,1436471347693,-6.582259,7.1490865,0.23044191
272,1436471347694,-6.591237,7.131728,0.22744916
273,1436471347695,-6.601413,7.109582,0.24540567
274,1436471347696,-6.603208,7.0982094,0.24720132
275,1436471347697,-6.6534867,7.0664864,0.25139117
276,1436471347698,-6.681618,7.0826473,0.21428105
277,1436471347699,-6.6983776,7.0754647,0.207697
278,1436471347700,-6.7767878,7.0347633,0.18375498
279,1436471347701,-6.712743,7.01142,0.2124854
280,1436471347702,-6.679823,7.012018,0.23822308
281,1436471347703,-6.619369,7.0365586,0.19752164
282,1436471347704,-6.615778,7.0994067,0.14425065
283,1436471347705,-6.6067996,7.147889,0.109534726
284,1436471347706,-6.627749,7.177218,0.093972415
285,1436471347707,-6.603208,7.216124,0.06584055
286,1436471347708,-6.573281,7.2508397,0.074818805
287,1436471347709,-6.554127,7.231686,0.06344634
288,1436471347710,-6.589442,7.1969705,0.055066638
289,1436471347711,-6.683414,7.165846,0.045489833
290,1436471347712,-6.6546836,7.119757,0.08798691
291,1436471347713,-6.727108,7.0784574,0.092775315
292,1436471347714,-6.6864066,7.065289,0.11791443
293,1436471347715,-6.699575,7.059902,0.12150574
294,1436471347716,-6.704962,7.043143,0.10654198
295,1436471347717,-6.727108,7.047333,0.12150574
296,1436471347718,-6.729502,7.0383544,0.13347675
297,1436471347719,-6.6870055,7.04015,0.12569559
298,1436471347720,-6.663662,7.043143,0.13227965
299,1436471347721,-6.7085533,7.0305734,0.12988544
300,1436471347722,-6.752846,7.01142,0.12449849
301,1436471347723,-6.7624226,6.981492,0.12449849
302,1436471347724,-6.766014,6.9437833,0.15861586
303,1436471347725,-6.739678,6.9581485,0.16160862
304,1436471347726,-6.7384806,6.96174,0.2100912
305,1436471347727,-6.687604,6.976105,0.20829555
306,1436471347728,-6.6840124,6.9844847,0.2801216
307,1436471347729,-6.640917,7.0485296,0.2837129
308,1436471347730,-6.6175733,7.1059904,0.32022446
309,1436471347731,-6.612785,7.1353197,0.362123
310,1436471347732,-6.678027,7.1395097,0.44352585
311,1436471347733,-6.7767878,7.1185603,0.52971715
312,1436471347734,-6.7342906,7.0383544,0.5686229
313,1436471347735,-6.5337763,6.87914,0.6278794
314,1436471347736,-6.483498,6.6349316,0.7380127
315,1436471347737,-6.4900823,6.417059,0.78769237
316,1436471347738,-6.591237,6.2740054,0.76434886
317,1436471347739,-6.6295447,6.215348,0.6733692
318,1436471347740,-6.5241995,6.1955953,0.45489833
319,1436471347741,-6.347627,6.1716533,0.28670564
320,1436471347742,-6.11539,6.0202203,0.2172738
321,1436471347743,-6.141726,5.8801594,0.091578215
322,1436471347744,-6.5744777,5.923255,0.035314474
323,1436471347745,-7.2364745,6.141726,-0.08738836
324,1436471347746,-7.2927384,6.3141084,-0.3345897
325,1436471347747,-7.2843585,6.7504516,-0.7392098
326,1436471347748,-7.2723875,6.909666,-1.002572
327,1436471347749,-7.2059484,6.8785415,-1.073201
328,1436471347750,-7.2149267,6.879739,-1.3102269
329,1436471347770,-6.597223,6.691794,-1.4945804
330,1436471347790,-5.963358,6.513426,-1.7034745
331,1436471347810,-5.430648,6.254852,-1.751957
332,1436471347830,-4.7818193,5.954978,-1.5987282
333,1436471347850,-4.83509,5.579687,-1.4047978
334,1436471347870,-4.5286326,5.4899044,-1.4640543
335,1436471347890,-3.705027,5.795764,-1.6430209
336,1436471347910,-3.2782607,6.0226145,-1.7986441
337,1436471347930,-3.0107086,5.93762,-1.7483658
338,1436471347950,-2.8754363,5.949591,-1.7411832
339,1436471347971,-2.7724855,6.791153,-2.2732944
340,1436471347990,-3.210026,8.015787,-3.1232362
341,1436471348010,-2.8748376,8.683171,-3.7780502
342,1436471348031,-1.8974048,8.971672,-3.9468415
343,1436471348051,-1.7010803,9.035119,-3.7511156
344,1436471348072,-3.1142578,8.729858,-3.537433
345,1436471348091,-2.3199813,7.755418,-3.9312792
346,1436471348111,-0.23762453,7.7667904,-3.9175124
347,1436471348133,-1.055843,7.872135,-4.048595
348,1436471348153,-2.7766755,8.133103,-4.658518
349,1436471348173,-1.917157,8.464102,-5.1200004
350,1436471348194,-0.58298814,8.5886,-5.325303
351,1436471348215,-0.15622166,8.999206,-5.565322
352,1436471348258,-0.7164649,9.337387,-5.7999535
353,1436471348259,-0.641646,9.621698,-6.1866174
354,1436471348272,0.04249708,9.743204,-6.3230867
355,1436471348291,0.44891283,9.852738,-6.0902505
356,1436471348313,-0.6679823,9.744401,-5.7083755
357,1436471348331,-1.2036849,9.743802,-5.505467
358,1436471348352,-0.58418524,10.231023,-5.310938
359,1436471348372,0.06404489,10.427347,-5.321113
360,1436471348392,0.7727286,10.242394,-5.2528787
361,1436471348412,1.0684125,9.557653,-5.2181625
362,1436471348432,0.76195467,8.535329,-5.433042
363,1436471348454,0.46148238,7.991845,-5.931635
364,1436471348476,1.4431051,8.1959505,-6.42903
365,1436471348494,0.18136078,8.119336,-5.839458
366,1436471348516,-4.939238,8.579621,-3.7989995
367,1436471348536,-11.282077,8.967483,-2.8574798
368,1436471348556,-11.080365,10.75655,-2.7730842
369,1436471348575,-6.670246,13.406332,-2.243367
370,1436471348594,-9.718663,12.584522,-2.5839422
371,1436471348616,-12.744335,12.426505,-3.7846344
372,1436471348632,-12.720992,14.3281,-4.5741224
373,1436471348654,-10.59135,14.1629,-3.0370448
374,1436471348675,-7.81647,11.139622,-0.90500826
375,1436471348694,-7.008427,8.87351,0.5967548
376,1436471348714,-6.8348475,6.731298,1.6705543
377,1436471348735,-6.501455,4.815338,2.4139538
378,1436471348755,-5.6335564,3.7714663,2.8886044
379,1436471348775,-3.881001,4.1659107,3.0974984
380,1436471348793,-2.100912,5.0146556,3.0011318
381,1436471348815,-1.7483658,4.6202106,2.939481
382,1436471348837,-3.2692823,3.8043866,2.8754363
383,1436471348856,-4.5100775,3.5859156,2.7024553
384,1436471348875,-4.7261543,3.857059,3.0268695
385,1436471348897,-4.6244006,3.8612487,3.41892
386,1436471348976,-5.2624555,3.7612908,4.052785
387,1436471348977,-6.8186865,3.7954082,4.183269
388,1436471348978,-8.400655,4.160524,4.0545807
389,1436471348979,-8.468291,4.2718544,3.738546
390,1436471349002,-7.419631,4.6495395,3.5990837
391,1436471349013,-7.357382,5.1756654,3.1501708
392,1436471349041,-7.819463,5.5605335,2.4744074
393,1436471349052,-7.3747396,6.078878,1.9728222
394,1436471349072,-7.203554,6.0699,1.5185224
395,1436471349093,-7.201759,5.9280434,1.1420342
396,1436471349113,-7.104195,5.8466406,0.6655881
397,1436471349137,-6.7725983,5.6096144,0.45250413
398,1436471349153,-6.8067155,5.3725886,0.2100912
399,1436471349174,-6.84203,5.3821654,-0.31184477
400,1436471349193,-7.143699,5.482722,-1.0749966
401,1436471349214,-7.790134,5.2863975,-1.7238252
402,1436471349236,-8.579621,4.779425,-2.3127987
403,1436471349255,-10.062231,4.5040917,-2.3888147
404,1436471349274,-11.131841,3.793014,-2.4301147
405,1436471349292,-10.006566,3.2632968,-1.5819688
406,1436471349313,-9.701904,3.3075895,-1.377863
407,1436471349334,-10.599131,3.4991257,-1.7926586
408,1436471349354,-10.852917,2.9514523,-1.2066777
409,1436471349373,-10.839748,2.2260091,-0.40162733
410,1436471349394,-10.899603,1.8902222,-0.017357962
