id,attr_time,attr_x,attr_y,attr_z
1,1436471341213,-1.9566613,9.328408,-1.1641805
2,1436471341237,-1.9231426,9.328408,-1.1456255
3,1436471341256,-1.934515,9.333197,-1.1150994
4,1436471341277,-1.9596541,9.343372,-1.073201
5,1436471341294,-1.941099,9.34397,-1.1139023
6,1436471341320,-1.934515,9.359533,-1.1534066
7,1436471341387,-1.9458874,9.329007,-1.1486182
8,1436471341388,-1.9572599,9.3343935,-1.0977415
9,1436471341389,-1.9776106,9.3343935,-1.0971429
10,1436471341415,-1.965041,9.339781,-1.1228806
11,1436471341416,-1.91596,9.3583355,-1.13964
12,1436471341435,-1.8830396,9.36073,-1.1659763
13,1436471341451,-1.875857,9.36073,-1.1186907
14,1436471341472,-1.8555063,9.357139,-1.1121067
15,1436471341496,-1.8489223,9.349358,-1.1456255
16,1436471341512,-1.8914193,9.376292,-1.1779473
17,1436471341536,-1.8926164,9.375095,-1.1659763
18,1436471341553,-1.9201498,9.338584,-1.1552023
19,1436471341573,-1.917157,9.339182,-1.1953052
20,1436471341596,-1.934515,9.346365,-1.1498153
21,1436471341616,-1.9782091,9.315839,-1.134253
22,1436471341635,-2.0027497,9.305663,-1.1330559
23,1436471341652,-1.9788077,9.371504,-1.1839328
24,1436471341675,-1.9488802,9.3738985,-1.2054806
25,1436471341696,-1.934515,9.397242,-1.1881226
26,1436471341716,-1.8752584,9.376891,-1.1653777
27,1436471341736,-1.83336,9.36911,-1.1893197
28,1436471341752,-1.804031,9.328408,-1.2378023
29,1436471341775,-1.8555063,9.336788,-1.216853
30,1436471341803,-1.910573,9.340978,-1.2108675
31,1436471341815,-1.9201498,9.336788,-1.1737574
32,1436471341832,-1.9129672,9.361927,-1.1450269
33,1436471341852,-1.9183542,9.3260145,-1.2084733
34,1436471341872,-1.982399,9.318831,-1.2126632
35,1436471341892,-2.0805612,9.267955,-1.2162545
36,1436471341912,-2.1499932,9.272743,-1.2234371
37,1436471341933,-2.1499932,9.3583355,-1.1773487
38,1436471341954,-2.043451,9.345168,-1.198298
39,1436471341975,-1.8567034,9.3026705,-1.2258313
40,1436471341995,-1.7896658,9.309255,-1.1420342
41,1436471342012,-1.7782934,9.363723,-1.1701661
42,1436471342033,-1.7914615,9.337985,-1.2204443
43,1436471342052,-1.9321208,9.353547,-1.2802993
44,1436471342074,-1.9680338,9.363124,-1.2210429
45,1436471342092,-1.9931729,9.316438,-1.2108675
46,1436471342115,-1.9422961,9.323022,-1.1671734
47,1436471342132,-1.869273,9.3661175,-1.1456255
48,1436471342154,-1.9219455,9.320028,-1.2216414
49,1436471342173,-2.0147207,9.32781,-1.2198458
50,1436471342195,-2.0655975,9.317635,-1.2737153
51,1436471342227,-2.0578163,9.2787285,-1.2737153
52,1436471342235,-2.03567,9.312846,-1.2737153
53,1436471342254,-2.0081367,9.309854,-1.1671734
54,1436471342272,-1.9093759,9.370906,-1.1288661
55,1436471342293,-1.8734628,9.375095,-1.127669
56,1436471342315,-1.8800468,9.309255,-1.2192472
57,1436471342334,-1.929128,9.311649,-1.2635399
58,1436471342355,-1.9602526,9.312846,-1.2395979
59,1436471342374,-2.0027497,9.351153,-1.1941081
60,1436471342395,-1.9812019,9.390059,-1.1629834
61,1436471342417,-1.95307,9.419987,-1.1665748
62,1436471342433,-1.9237411,9.351153,-1.2078748
63,1436471342457,-1.9045875,9.254189,-1.2455834
64,1436471342476,-2.007538,9.27394,-1.2006922
65,1436471342496,-2.0602105,9.276933,-1.1875241
66,1436471342516,-1.99437,9.302073,-1.2144588
67,1436471342536,-1.9255368,9.332599,-1.1821371
68,1436471342557,-1.9021933,9.370307,-1.1378443
69,1436471342575,-1.9069817,9.336788,-1.1994951
70,1436471342595,-2.0177135,9.324219,-1.1372458
71,1436471342615,-2.0979192,9.317635,-1.067814
72,1436471342634,-2.1559787,9.317036,-1.0851719
73,1436471342702,-2.1146786,9.330204,-1.0839748
74,1436471342703,-2.0458453,9.328408,-1.0474633
75,1436471342712,-2.0709844,9.282919,-0.997185
76,1436471342713,-2.1140802,9.317635,-1.0301052
77,1436471342739,-2.047641,9.294291,-1.0636241
78,1436471342764,-1.9991584,9.321226,-1.0827777
79,1436471342786,-2.0093338,9.3583355,-1.0947487
80,1436471342794,-1.9602526,9.378687,-1.0384849
81,1436471342816,-1.8662802,9.393052,-1.0809821
82,1436471342836,-1.8016368,9.380483,-1.086369
83,1436471342855,-1.7501614,9.374496,-1.0594343
84,1436471342874,-1.7489643,9.393052,-1.1246762
85,1436471342894,-1.7878702,9.359533,-1.1019313
86,1436471342913,-1.8962077,9.361329,-1.0821792
87,1436471342934,-1.9776106,9.324817,-1.0426749
88,1436471342954,-1.9668367,9.342773,-1.0989386
89,1436471342973,-1.982399,9.370307,-1.1468226
90,1436471342999,-1.9446903,9.338584,-1.1354501
91,1436471343020,-1.9237411,9.331401,-1.1127052
92,1436471343034,-1.922544,9.3343935,-1.1121067
93,1436471343056,-1.965041,9.305065,-1.0959458
94,1436471343080,-1.977012,9.366715,-1.0690111
95,1436471343097,-1.9369092,9.363723,-1.1228806
96,1436471343115,-1.9512744,9.359533,-1.1360487
97,1436471343137,-1.9919758,9.346964,-1.0594343
98,1436471343183,-1.9883845,9.322423,-1.0839748
99,1436471343184,-1.917157,9.323022,-1.1300632
100,1436471343200,-1.8740613,9.346964,-1.1492168
101,1436471343228,-1.8782512,9.375095,-1.1174936
102,1436471343234,-1.9297266,9.3499565,-1.0923545
103,1436471343254,-1.9626468,9.333796,-1.1474211
104,1436471343282,-1.9674352,9.333796,-1.1797429
105,1436471343296,-2.0057425,9.307459,-1.1677719
106,1436471343314,-1.9949685,9.379884,-1.1857284
107,1436471343340,-1.9662381,9.380483,-1.1839328
108,1436471343355,-1.9686323,9.394249,-1.1845313
109,1436471343375,-1.9069817,9.335591,-1.1965023
110,1436471343395,-1.8387469,9.32781,-1.1641805
111,1436471343414,-1.869273,9.339182,-1.134253
112,1436471343435,-1.9249382,9.320028,-1.1444284
113,1436471343454,-1.9542671,9.342773,-1.1671734
114,1436471343479,-1.9333179,9.351153,-1.1905168
115,1436471343494,-1.9351135,9.340978,-1.1953052
116,1436471343520,-1.9351135,9.341577,-1.1893197
117,1436471343537,-1.9177556,9.351153,-1.1569979
118,1436471343554,-1.9351135,9.329007,-1.216853
119,1436471343574,-1.9548657,9.336189,-1.1881226
120,1436471343594,-1.9045875,9.368511,-1.1444284
121,1436471343615,-1.8423382,9.344569,-1.1252748
122,1436471343635,-1.8848352,9.354146,-1.1575965
123,1436471343681,-1.9177556,9.350554,-1.2006922
124,1436471343682,-1.9405005,9.370307,-1.0965444
125,1436471343706,-1.9027919,9.372701,-1.0845734
126,1436471343736,-1.8890251,9.3421755,-1.1198878
127,1436471343737,-1.9249382,9.327211,-1.1408371
128,1436471343754,-1.9620483,9.330204,-1.1031284
129,1436471343774,-1.982399,9.332,-1.0690111
130,1436471343797,-1.9608512,9.355343,-1.0313023
131,1436471343816,-1.963844,9.381081,-1.0247183
132,1436471343838,-1.9297266,9.32781,-1.0827777
133,1436471343856,-1.9470845,9.344569,-1.0779893
134,1436471343875,-1.9812019,9.312846,-1.0785879
135,1436471343895,-2.043451,9.296685,-1.091756
136,1436471343915,-2.071583,9.294889,-1.0378864
137,1436471343937,-2.0003555,9.303867,-1.027711
138,1436471343956,-1.9740193,9.305663,-1.0055647
139,1436471343978,-1.9698294,9.343372,-1.0696096
140,1436471343997,-2.0416555,9.35235,-1.0217255
141,1436471344017,-2.054225,9.367314,-1.0660183
142,1436471344035,-2.0374656,9.387665,-1.0187328
143,1436471344056,-1.9758149,9.376891,-0.95349085
144,1436471344079,-1.8579005,9.378088,-1.0588357
145,1436471344097,-1.7735049,9.427169,-1.0115502
146,1436471344116,-1.7711107,9.483433,-1.039682
147,1436471344135,-1.6837224,9.440337,-1.091756
148,1436471344193,-1.6867151,9.3583355,-1.1354501
149,1436471344195,-1.845331,9.405622,-1.0773908
150,1436471344196,-1.9752164,9.363124,-1.0462662
151,1436471344223,-2.0350714,9.226056,-1.0307038
152,1436471344236,-2.0590134,9.274539,-0.985214
153,1436471344264,-1.9907787,9.345766,-1.0067618
154,1436471344275,-1.9129672,9.353547,-1.0247183
155,1436471344296,-1.8914193,9.3421755,-1.062427
156,1436471344316,-1.9590555,9.337387,-1.127669
157,1436471344335,-2.0147207,9.321824,-1.0941502
158,1436471344357,-1.9853917,9.325416,-1.1121067
159,1436471344378,-1.903989,9.344569,-1.091756
160,1436471344396,-1.8441339,9.372701,-1.0570401
161,1436471344415,-1.857302,9.394249,-0.9636662
162,1436471344437,-1.8890251,9.3583355,-1.0342951
163,1436471344456,-1.8866309,9.36073,-1.0959458
164,1436471344476,-1.8908207,9.361329,-1.1569979
165,1436471344497,-1.9949685,9.371504,-1.0893618
166,1436471344517,-2.1092918,9.329007,-1.0193313
167,1436471344537,-2.148796,9.299678,-1.0109516
168,1436471344557,-2.136825,9.290101,-1.0606314
169,1436471344576,-2.0608091,9.297882,-1.0420763
170,1436471344601,-2.0266917,9.3343935,-1.1085154
171,1436471344652,-2.0500352,9.32362,-1.0666169
172,1436471344653,-2.0883424,9.336788,-1.0348936
173,1436471344662,-2.067393,9.328408,-1.021127
174,1436471344675,-2.010531,9.3026705,-1.1408371
175,1436471344696,-2.0087352,9.32362,-1.1282675
176,1436471344715,-2.0428526,9.351752,-1.0247183
177,1436471344735,-2.0033484,9.361329,-0.9983821
178,1436471344759,-1.9548657,9.307459,-1.0313023
179,1436471344776,-1.9853917,9.300277,-1.0965444
180,1436471344797,-2.0566192,9.293693,-1.0935516
181,1436471344815,-2.0895395,9.337387,-1.1091139
182,1436471344837,-2.0871453,9.367912,-1.0869676
183,1436471344856,-2.0739772,9.338584,-1.0714053
184,1436471344876,-2.0667946,9.338584,-1.0360907
185,1436471344896,-2.0620062,9.313444,-1.1031284
186,1436471344917,-1.9698294,9.301474,-1.1246762
187,1436471344937,-1.9949685,9.293693,-1.1390414
188,1436471344956,-2.0638018,9.334992,-1.0755951
189,1436471344977,-1.9871874,9.323022,-1.1073183
190,1436471344996,-1.9632454,9.3499565,-1.0833763
191,1436471345015,-1.9919758,9.342773,-1.067814
192,1436471345039,-2.0590134,9.298481,-1.0737995
193,1436471345057,-2.0757728,9.296685,-1.0348936
194,1436471345155,-2.0883424,9.300277,-0.99299514
195,1436471345156,-2.1140802,9.312846,-1.033098
196,1436471345157,-2.1230583,9.3343935,-0.9983821
197,1436471345158,-2.111686,9.336788,-0.98940384
198,1436471345159,-2.0536265,9.333197,-1.0588357
199,1436471345175,-2.0213048,9.330803,-1.0815806
200,1436471345196,-1.9722236,9.345766,-0.9672575
201,1436471345216,-1.9470845,9.343372,-0.98102415
202,1436471345236,-1.9937714,9.332,-1.09834
203,1436471345256,-1.9961656,9.34038,-1.0708067
204,1436471345278,-2.0326772,9.34038,-1.0510546
205,1436471345296,-2.043451,9.308656,-1.0528502
206,1436471345317,-2.0440497,9.31105,-1.0570401
207,1436471345337,-2.055422,9.309854,-1.0121487
208,1436471345357,-2.0512323,9.317635,-1.0121487
209,1436471345379,-2.0512323,9.328408,-1.0959458
210,1436471345400,-2.0931308,9.334992,-1.0420763
211,1436471345416,-2.1230583,9.320627,-0.96426475
212,1436471345440,-2.0602105,9.298481,-1.0205284
213,1436471345458,-1.9997569,9.332,-1.0666169
214,1436471345479,-1.9883845,9.343372,-1.050456
215,1436471345499,-2.023699,9.3260145,-1.0486604
216,1436471345520,-2.0488381,9.34038,-0.99299514
217,1436471345536,-2.0799627,9.320627,-1.0115502
218,1436471345558,-2.059612,9.317036,-1.0444705
219,1436471345577,-2.0829554,9.316438,-1.074398
220,1436471345651,-2.0931308,9.3104515,-1.039682
221,1436471345652,-2.0721815,9.324219,-1.0540473
222,1436471345653,-2.0272903,9.351153,-1.0390835
223,1436471345657,-2.011728,9.357738,-1.0498575
224,1436471345683,-1.9895816,9.340978,-1.073201
225,1436471345698,-1.9955671,9.3499565,-1.0989386
226,1436471345728,-2.007538,9.354745,-1.1264719
227,1436471345736,-1.9859903,9.336788,-1.1127052
228,1436471345757,-1.9093759,9.366715,-1.0785879
229,1436471345779,-1.8752584,9.345168,-1.1366472
230,1436471345798,-1.9596541,9.321824,-1.1162965
231,1436471345817,-2.0201077,9.348161,-1.1085154
232,1436471345837,-2.0266917,9.335591,-1.1001357
233,1436471345857,-1.9859903,9.354146,-1.1707647
234,1436471345876,-1.982399,9.3733,-1.1228806
235,1436471345896,-1.9482816,9.389461,-1.086369
236,1436471345925,-1.9081788,9.355343,-1.0989386
237,1436471345936,-1.9213469,9.362526,-1.1318588
238,1436471345956,-1.9752164,9.330803,-1.1390414
239,1436471345977,-1.9979613,9.332599,-1.1534066
240,1436471345997,-1.99437,9.305065,-1.1486182
241,1436471346018,-2.010531,9.333796,-1.0989386
242,1436471346040,-2.0242975,9.342773,-1.0935516
243,1436471346058,-1.970428,9.351153,-1.1133038
244,1436471346175,-1.9428947,9.342773,-1.1168951
245,1436471346177,-1.917157,9.358934,-1.0821792
246,1436471346178,-1.9620483,9.346365,-1.1510124
247,1436471346179,-1.9452889,9.320627,-1.1504139
248,1436471346180,-1.9806033,9.320028,-1.1510124
249,1436471346181,-1.9818004,9.337387,-1.1109096
250,1436471346204,-2.0326772,9.318831,-1.115698
251,1436471346227,-2.0608091,9.346964,-1.0845734
252,1436471346237,-2.005144,9.351153,-1.1306617
253,1436471346257,-1.9722236,9.336189,-1.1605892
254,1436471346278,-2.0326772,9.335591,-1.1121067
255,1436471346303,-2.0602105,9.303867,-1.0480618
256,1436471346320,-2.1027076,9.291298,-1.1097125
257,1436471346337,-2.1559787,9.304466,-1.1258733
258,1436471346358,-2.0979192,9.330204,-1.0809821
259,1436471346377,-1.9734207,9.289502,-1.1115081
260,1436471346398,-1.9931729,9.283517,-1.0911574
261,1436471346417,-2.0572178,9.321226,-1.0648212
262,1436471346437,-2.1188686,9.308656,-1.110311
263,1436471346457,-2.1589713,9.308058,-1.1270704
264,1436471346478,-2.107496,9.31105,-1.0606314
265,1436471346498,-2.058415,9.323022,-1.027711
266,1436471346519,-2.098518,9.291897,-0.97982705
267,1436471346537,-2.1535845,9.284116,-1.0319009
268,1436471346569,-2.1218612,9.268554,-1.1456255
269,1436471346577,-2.0398598,9.285313,-1.1540052
270,1436471346635,-1.9381063,9.365519,-1.1192893
271,1436471346636,-1.9141643,9.395446,-1.0432734
272,1436471346658,-1.9997569,9.31524,-0.9804256
273,1436471346659,-2.106299,9.278131,-1.0486604
274,1436471346677,-2.1338322,9.2787285,-1.127669
275,1436471346703,-2.078167,9.32781,-1.1605892
276,1436471346718,-1.9752164,9.3421755,-1.1234791
277,1436471346738,-1.9578584,9.330803,-1.0468647
278,1436471346758,-1.9937714,9.343372,-0.98581254
279,1436471346782,-2.0518308,9.321824,-1.0229226
280,1436471346799,-2.0799627,9.321824,-1.0690111
281,1436471346820,-2.0937295,9.305065,-1.0576386
282,1436471346839,-2.03567,9.338584,-1.0839748
283,1436471346860,-1.9644425,9.347562,-1.0881647
284,1436471346878,-1.903989,9.339781,-1.0576386
285,1436471346898,-1.9327193,9.340978,-0.99898064
286,1436471346917,-1.9997569,9.357139,-0.997185
287,1436471346938,-2.0560207,9.312846,-1.0223241
288,1436471346960,-2.0925324,9.308058,-1.0654198
289,1436471346977,-2.111686,9.298481,-1.1031284
290,1436471346997,-2.12246,9.326612,-1.0947487
291,1436471347018,-2.0667946,9.336189,-1.0887632
292,1436471347130,-1.9590555,9.3421755,-0.9935937
293,1436471347131,-1.9249382,9.350554,-1.0372878
294,1436471347133,-1.9853917,9.351752,-1.043872
295,1436471347134,-2.0590134,9.304466,-1.0336965
296,1436471347138,-2.1051018,9.322423,-1.0546459
297,1436471347139,-2.0709844,9.333197,-1.091756
298,1436471347164,-2.0171149,9.339781,-1.0606314
299,1436471347178,-2.0033484,9.321226,-1.0055647
300,1436471347218,-2.0386627,9.309854,-1.0145429
301,1436471347219,-2.106299,9.284116,-1.0498575
302,1436471347237,-2.1679497,9.280524,-1.033098
303,1436471347258,-2.12246,9.299678,-1.0648212
304,1436471347277,-2.0494366,9.348759,-1.0845734
305,1436471347298,-2.0446482,9.350554,-1.009156
306,1436471347318,-2.0500352,9.335591,-1.0049661
307,1436471347338,-2.1134815,9.313444,-1.039682
308,1436471347359,-2.1266496,9.251794,-1.06123
309,1436471347384,-2.1242554,9.289502,-1.0989386
310,1436471347399,-2.1278467,9.293094,-1.0654198
311,1436471347424,-2.0811598,9.3583355,-1.0552444
312,1436471347437,-1.9937714,9.356541,-1.0648212
313,1436471347460,-1.8357542,9.357139,-1.0767922
314,1436471347477,-1.6124948,9.352949,-1.1204864
315,1436471347499,-1.4999673,9.333197,-1.1264719
316,1436471347521,-1.4784195,9.340978,-1.0887632
317,1436471347570,-1.6801311,9.31524,-1.01574
318,1436471347571,-1.8046296,9.271546,-0.8984242
319,1436471347580,-1.988983,9.261371,-0.801459
320,1436471347602,-2.1829133,9.234436,-0.7823054
321,1436471347617,-2.2619221,9.297284,-0.8936358
322,1436471347638,-2.2140381,9.227253,-1.1767502
323,1436471347662,-2.007538,9.479243,-1.5191209
324,1436471347679,-1.881244,9.539697,-1.3910311
325,1436471347699,-1.809418,9.662399,-1.1923125
326,1436471347718,-1.9243397,9.598953,-0.45489833
327,1436471347739,-2.0679917,9.544485,-0.10175357
328,1436471347761,-1.9686323,9.660006,-0.20949265
329,1436471347777,-1.3784616,9.231443,-0.3645172
330,1436471347802,-1.4317327,8.915408,-1.186327
331,1436471347821,-1.9746178,8.730456,-1.2036849
332,1436471347840,-2.260725,8.800487,-1.0301052
333,1436471347861,-2.6635494,8.624513,-0.8283938
334,1436471347880,-2.7766755,8.4425535,-0.8583213
335,1436471347901,-2.5611973,8.403648,-0.130484
336,1436471347921,-2.48159,8.716091,-0.31663316
337,1436471347942,-2.404377,8.670003,0.30166942
338,1436471347962,-2.4534583,8.151658,0.39085343
339,1436471347981,-2.2331917,7.340024,-0.0712275
340,1436471348048,-2.7820623,7.5764513,-0.9032126
341,1436471348049,-3.5535939,8.012196,-0.27353755
342,1436471348050,-4.0252514,8.143877,-0.74399817
343,1436471348083,-4.8853683,7.7799582,-1.0408791
344,1436471348084,-5.1720743,7.369353,-0.18315643
345,1436471348122,1.06123,7.2472486,-1.7393875
346,1436471348123,-6.1806316,7.3112936,3.2357635
347,1436471348141,-9.281721,7.417835,-0.61890113
348,1436471348169,-3.7271736,8.643666,-1.941099
349,1436471348178,-2.5677812,9.467272,-1.264737
350,1436471348200,-2.618658,9.552266,0.22625206
351,1436471348220,-2.8766334,8.779537,0.17118542
352,1436471348239,-4.097078,8.96449,1.4107834
353,1436471348259,-5.0481744,8.84059,1.7052702
354,1436471348282,-4.923077,7.773973,0.46866497
355,1436471348303,-5.046977,6.0651116,-0.85532856
356,1436471348321,-5.5701103,4.6722846,-0.12988544
357,1436471348342,-5.5300074,4.437653,1.2539631
358,1436471348359,-5.9902925,5.192425,1.1976994
359,1436471348380,-6.5511346,5.683236,-0.39743748
360,1436471348399,-6.793547,5.3139305,0.83138657
361,1436471348419,-6.527791,5.0020857,2.2212207
362,1436471348442,-6.9707184,4.8817773,1.9883845
363,1436471348462,-7.4974427,5.523423,1.6005238
364,1436471348479,-7.8128786,6.0166287,1.252766
365,1436471348508,-7.227496,5.710171,1.4389153
366,1436471348565,-7.00304,5.6102133,1.6436194
367,1436471348574,-7.578247,7.1071877,3.2597055
368,1436471348575,-9.973047,10.071808,9.231443
369,1436471348580,-11.562798,10.563816,15.000272
370,1436471348607,-9.252393,8.965088,9.768343
371,1436471348621,-2.4642322,10.198701,8.620922
372,1436471348652,-1.7549498,7.1712327,9.011775
373,1436471348659,-5.00448,7.0329676,8.537724
374,1436471348684,-8.656237,5.4581814,5.7185507
375,1436471348699,-9.956287,2.8712463,8.316259
376,1436471348721,-10.336966,-1.8902222,14.824897
377,1436471348745,-9.405023,-3.0579941,8.92738
378,1436471348767,-8.164826,-1.5334862,5.253477
379,1436471348782,-6.55712,-0.3298013,4.7081976
380,1436471348802,-5.106832,-0.5662287,5.450999
381,1436471348822,-3.6816838,-1.4718355,5.985504
382,1436471348839,-4.203021,-2.7928362,5.294777
383,1436471348860,-5.116409,-2.8461072,3.946243
384,1436471348879,-6.5990186,-1.8429368,2.6060886
385,1436471348902,-7.8182654,-0.28909984,1.8231846
386,1436471348922,-8.817246,0.47405192,2.1679497
387,1436471348941,-9.831789,0.34835634,3.0400376
388,1436471348962,-10.465654,0.24600422,4.1395745
389,1436471348989,-10.433931,0.53689975,3.9983168
390,1436471348999,-9.94312,0.04309563,3.8660371
391,1436471349091,-9.739613,-1.1043255,4.382586
392,1436471349092,-8.146272,-0.35314476,5.3408656
393,1436471349093,-7.709928,-1.0755951,6.1662664
394,1436471349094,-7.949947,-1.9907787,6.057929
395,1436471349129,-7.6410947,-1.6693572,5.707777
396,1436471349130,-6.9886746,-1.5304934,5.0637364
397,1436471349141,-5.8622026,-1.8429368,4.313154
398,1436471349168,-4.168904,-1.6490064,3.2094274
399,1436471349179,-4.5842977,-2.28347,2.3864205
400,1436471349201,-12.554595,-7.6129627,0.97503865
401,1436471349220,-12.013506,-8.010999,0.7116765
402,1436471349241,-9.391854,-6.495469,1.6573862
403,1436471349264,-8.397064,-5.9944825,2.3744495
404,1436471349283,-8.786121,-6.7719994,2.5342624
405,1436471349302,-8.605359,-6.907272,2.1853075
406,1436471349322,-7.620744,-5.916671,1.4065934
407,1436471349343,-7.5243773,-5.3821654,0.9576807
408,1436471349362,-7.787141,-5.2439003,0.33758244
409,1436471349382,-8.495825,-5.4659624,0.5770026
410,1436471349403,-9.235035,-5.805341,1.6591818
411,1436471349420,-10.059837,-5.3606176,2.9047651
412,1436471349443,-11.344925,-4.9883194,1.9596541
