id,attr_time,attr_x,attr_y,attr_z
1,1436898151064,-0.0290161,0.015882496,0.008552114
2,1436898151066,-0.022907447,0.025961773,-0.0018325958
3,1436898151067,-0.02321288,0.029626964,-0.0067195175
4,1436898151068,-0.022296581,0.03604105,-0.00061086525
5,1436898151087,-0.025045475,0.031154128,0.0061086523
6,1436898151110,-0.023823744,0.01863139,0.004886922
7,1436898151126,-0.021685716,-0.002443461,-0.0027488936
8,1436898151146,-0.022602014,-0.0106901415,-0.0018325958
9,1436898151171,-0.032375857,-0.007330383,0.004276057
10,1436898151188,-0.029626964,-0.0027488936,0.010995574
11,1436898151208,-0.028710667,0.00030543262,0.0125227375
12,1436898151231,-0.025045475,0.00030543262,0.017715093
13,1436898151247,-0.024129177,-0.002443461,0.01038471
14,1436898151269,-0.017715093,-0.02107485,0.002443461
15,1436898151287,-0.025961773,-0.030848695,-0.00030543262
16,1436898151308,-0.027488936,-0.018020526,-0.002443461
17,1436898151327,-0.01863139,-0.004886922,-0.007941248
18,1436898151350,-0.011911872,0.01038471,-0.013133603
19,1436898151366,-0.014049901,0.03634648,-0.015271631
20,1436898151387,-0.02321288,0.04917465,-0.022296581
21,1436898151410,-0.021685716,0.03359759,-0.011301007
22,1436898151427,-0.01985312,0.01985312,0.0
23,1436898151448,-0.022296581,0.004276057,-0.0033597588
24,1436898151470,-0.020158553,-0.004886922,-0.009162978
25,1436898151490,-0.02321288,-0.02107485,-0.009773844
26,1436898151510,-0.023823744,-0.014660766,-0.01282817
27,1436898151528,-0.017104227,0.015882496,-0.0125227375
28,1436898151550,-0.011911872,0.04337143,-0.004276057
29,1436898151568,-0.0067195175,0.062308256,-0.004581489
30,1436898151588,0.0027488936,0.04642576,-0.008857546
31,1436898151608,-0.009468411,0.032375857,0.00061086525
32,1436898151627,-0.039095376,0.021380283,0.0012217305
33,1436898151648,-0.029626964,-0.02076942,-0.00061086525
34,1436898151668,-0.00061086525,-0.02565634,0.0021380284
35,1436898151688,0.010079277,-0.0015271631,-0.008246681
36,1436898151716,-0.0076358155,0.01863139,-0.0125227375
37,1436898151727,-0.025350908,0.028710667,-0.01038471
38,1436898151791,-0.017715093,0.034513887,-0.0067195175
39,1436898151792,-0.0033597588,0.053450707,-0.0070249503
40,1436898151793,-0.0009162979,0.043676864,-0.0070249503
41,1436898151808,-0.0036651916,0.030848695,-0.010079277
42,1436898151829,-0.014660766,0.019547688,-0.011301007
43,1436898151847,-0.027488936,0.011301007,-0.007941248
44,1436898151867,-0.023823744,-0.005497787,-0.0018325958
45,1436898151900,-0.01160644,-0.016187929,0.004886922
46,1436898151908,-0.003970624,-0.008246681,0.006414085
47,1436898151928,-0.013439035,0.008857546,0.011911872
48,1436898151948,-0.02565634,0.02076942,0.0021380284
49,1436898151970,-0.023823744,0.023518313,-0.0015271631
50,1436898151989,-0.013744468,0.016493361,-0.008246681
51,1436898152010,-0.0012217305,0.019547688,-0.005192355
52,1436898152027,-0.0021380284,0.016493361,-0.00030543262
53,1436898152048,-0.016798794,0.011911872,0.00580322
54,1436898152070,-0.023823744,-0.00061086525,0.0070249503
55,1436898152088,-0.029321533,-0.003970624,0.01985312
56,1436898152110,-0.025045475,-0.009773844,0.024129177
57,1436898152127,-0.027183503,-0.003970624,0.022296581
58,1436898152149,-0.027488936,0.014660766,0.027794369
59,1436898152169,-0.021685716,0.007330383,0.02107485
60,1436898152188,-0.011911872,-0.007941248,-0.0036651916
61,1436898152208,-0.011911872,-0.027183503,-0.0061086523
62,1436898152230,-0.015271631,-0.024740042,0.003970624
63,1436898152256,-0.02076942,-0.0021380284,0.003970624
64,1436898152270,-0.018936822,0.024129177,0.00061086525
65,1436898152288,-0.015882496,0.032986723,0.0067195175
66,1436898152308,-0.016187929,0.028405234,0.01282817
67,1436898152329,-0.030848695,0.031154128,0.017715093
68,1436898152351,-0.042455133,0.017104227,0.025961773
69,1436898152369,-0.043676864,0.010995574,0.029932396
70,1436898152389,-0.034208454,0.0125227375,0.03726278
71,1436898152409,-0.03970624,0.008246681,0.045814894
72,1436898152433,-0.04642576,-0.013439035,0.042455133
73,1436898152500,-0.05100725,-0.028405234,0.0421497
74,1436898152501,-0.05681047,-0.034513887,0.04795292
75,1436898152502,-0.055588737,-0.029626964,0.057421334
76,1436898152509,-0.054367006,-0.028710667,0.051618114
77,1436898152527,-0.06688975,-0.02076942,0.05009095
78,1436898152548,-0.07147124,-0.02076942,0.03390302
79,1436898152567,-0.050701816,-0.028405234,0.02565634
80,1436898152592,-0.032986723,-0.019547688,0.026267206
81,1436898152608,-0.022296581,0.0143553335,0.004581489
82,1436898152628,-0.032986723,0.02443461,-0.01160644
83,1436898152648,-0.0421497,0.021685716,-0.005192355
84,1436898152668,-0.047647487,0.035124753,0.003970624
85,1436898152688,-0.0421497,0.05589417,-0.015577064
86,1436898152710,-0.026267206,0.060170226,-0.02687807
87,1436898152730,-0.006414085,0.060170226,-0.02565634
88,1436898152751,-0.00580322,0.076358154,-0.026572637
89,1436898152771,-0.007941248,0.09712757,-0.029626964
90,1436898152790,-0.016493361,0.10048734,-0.026572637
91,1436898152811,-0.01160644,0.083383106,-0.014660766
92,1436898152831,0.0027488936,0.07544186,-0.0012217305
93,1436898152850,0.004276057,0.062002823,0.004886922
94,1436898152871,-0.015577064,0.04734206,0.009773844
95,1436898152889,-0.02443461,0.022907447,0.014049901
96,1436898152911,-0.017104227,0.0125227375,0.017104227
97,1436898152930,-0.01038471,0.0,0.013133603
98,1436898152948,-0.0027488936,-0.015271631,0.008246681
99,1436898152968,-0.0021380284,-0.022296581,-0.005497787
100,1436898152988,-0.01282817,-0.030543262,-0.009773844
101,1436898153019,-0.01160644,-0.028099801,-0.008246681
102,1436898153028,0.0061086523,-0.0030543262,-0.016493361
103,1436898153048,0.009773844,0.05009095,-0.014966198
104,1436898153068,0.011301007,0.064446285,-0.0106901415
105,1436898153088,0.002443461,0.05497787,-0.008857546
106,1436898153108,-0.010995574,0.03604105,-0.0012217305
107,1436898153128,-0.013439035,0.022602014,0.004276057
108,1436898153151,-0.018325957,0.017104227,0.004276057
109,1436898153172,-0.017715093,0.019547688,0.0070249503
110,1436898153275,-0.022602014,0.03145956,0.008552114
111,1436898153279,-0.025350908,0.037873644,0.005192355
112,1436898153280,-0.02321288,0.013744468,-0.0070249503
113,1436898153281,-0.02107485,0.0009162979,0.0027488936
114,1436898153282,-0.02076942,0.008552114,0.014660766
115,1436898153296,-0.015271631,0.019242255,0.01985312
116,1436898153308,-0.022602014,0.03604105,0.007330383
117,1436898153328,-0.027488936,0.04184427,-0.003970624
118,1436898153348,-0.027183503,0.032986723,-0.007941248
119,1436898153372,-0.027488936,0.027183503,-0.0033597588
120,1436898153388,-0.026572637,0.029626964,0.0015271631
121,1436898153412,-0.029932396,0.015577064,-0.0061086523
122,1436898153430,-0.035430185,0.005192355,-0.002443461
123,1436898153450,-0.04062254,0.016798794,0.0009162979
124,1436898153472,-0.040317107,0.009162978,-0.00061086525
125,1436898153492,-0.029626964,-0.006414085,0.0027488936
126,1436898153512,-0.020158553,-0.013744468,-0.006414085
127,1436898153532,-0.03268129,0.004581489,-0.010079277
128,1436898153552,-0.043982297,0.02107485,0.00580322
129,1436898153571,-0.03848451,0.02687807,0.004581489
130,1436898153592,-0.014660766,0.02687807,0.00030543262
131,1436898153612,-0.019547688,0.007330383,-0.0030543262
132,1436898153631,-0.026572637,-0.013133603,-0.0027488936
133,1436898153651,-0.04153884,-0.0143553335,0.006414085
134,1436898153668,-0.04153884,-0.009773844,0.0015271631
135,1436898153692,-0.03023783,0.007941248,0.005497787
136,1436898153712,-0.023518313,0.018020526,0.009468411
137,1436898153732,-0.02687807,0.0106901415,0.009773844
138,1436898153753,-0.032070424,0.007330383,0.004886922
139,1436898153771,-0.042455133,0.005192355,0.0076358155
140,1436898153792,-0.034513887,0.016493361,0.002443461
141,1436898153811,-0.027794369,0.03573562,-0.005497787
142,1436898153832,-0.025961773,0.03756821,0.010079277
143,1436898153853,-0.017104227,0.028099801,0.006414085
144,1436898153873,-0.015577064,0.015882496,0.006414085
145,1436898153893,-0.020158553,0.0015271631,0.0012217305
146,1436898153911,-0.018325957,-0.00580322,-0.00061086525
147,1436898153931,-0.011301007,0.002443461,-0.0021380284
148,1436898153984,-0.012217305,0.016798794,0.00061086525
149,1436898153985,-0.0012217305,0.048563786,0.007330383
150,1436898154000,0.004581489,0.05497787,0.008246681
151,1436898154009,-0.004886922,0.043982297,0.0021380284
152,1436898154042,-0.0143553335,0.015577064,0.005497787
153,1436898154150,-0.03359759,-0.00061086525,0.022602014
154,1436898154151,-0.04153884,-0.01282817,0.027488936
155,1436898154152,-0.03176499,-0.016187929,0.02076942
156,1436898154153,-0.022907447,-0.00061086525,0.02076942
157,1436898154154,-0.030543262,0.015577064,0.0027488936
158,1436898154155,-0.032986723,0.004886922,-0.013439035
159,1436898154176,-0.036957346,-0.01038471,-0.016187929
160,1436898154189,-0.022296581,-0.016187929,-0.017104227
161,1436898154216,-0.00061086525,-0.029626964,-0.03359759
162,1436898154232,0.0027488936,-0.07452556,-0.054061573
163,1436898154249,-0.0036651916,-0.1704314,-0.070554934
164,1436898154272,0.01038471,-0.25717425,-0.07819075
165,1436898154289,0.03481932,-0.23548855,-0.121256754
166,1436898154313,0.03970624,-0.20952678,-0.12644911
167,1436898154332,0.03023783,-0.21410827,-0.09865474
168,1436898154353,0.02076942,-0.18997909,-0.071776666
169,1436898154373,-0.013133603,-0.17470746,-0.040011674
170,1436898154392,-0.018936822,-0.18753563,-0.02076942
171,1436898154413,-0.016187929,-0.20891592,-0.01863139
172,1436898154433,-0.024740042,-0.17379116,-0.0061086523
173,1436898154450,-0.029321533,-0.10445796,0.004581489
174,1436898154473,-0.033292156,-0.04153884,0.015271631
175,1436898154492,-0.03390302,0.04337143,0.0061086523
176,1436898154512,-0.03176499,0.093462385,-0.014660766
177,1436898154531,-0.039095376,0.116675265,-0.0030543262
178,1436898154553,-0.05681047,0.1432479,0.0012217305
179,1436898154573,-0.07971791,0.16920967,0.0076358155
180,1436898154593,-0.0852157,0.16707164,-0.009468411
181,1436898154614,-0.09437868,0.12980886,-0.0143553335
182,1436898154632,-0.08857546,0.09315695,-0.0143553335
183,1436898154652,-0.07849618,0.11209377,-0.032986723
184,1436898154672,-0.094989546,0.13683382,-0.035124753
185,1436898154693,-0.093767814,0.15454891,-0.033292156
186,1436898154710,-0.06291912,0.20066923,-0.04153884
187,1436898154778,-0.059864793,0.28955013,-0.040011674
188,1436898154779,-0.069027774,0.32375857,-0.040927973
189,1436898154780,-0.07819075,0.3109304,-0.04550946
190,1436898154790,-0.09010262,0.26511553,-0.04337143
191,1436898154816,-0.08032878,0.23732115,-0.06994407
192,1436898154833,-0.07269296,0.19211712,-0.06963864
193,1436898154863,-0.057421334,0.16310102,-0.061086524
194,1436898154870,-0.05375614,0.17195857,-0.067500606
195,1436898154891,-0.076358154,0.18020524,-0.057726767
196,1436898154911,-0.08246681,0.20525073,-0.04886922
197,1436898154932,-0.07971791,0.23548855,-0.015271631
198,1436898154953,-0.06994407,0.26175576,0.029626964
199,1436898154970,-0.07391469,0.2556471,0.057726767
200,1436898154992,-0.08827003,0.1554652,0.058643065
201,1436898155014,-0.12217305,0.009468411,0.065973446
202,1436898155033,-0.109650314,-0.079107046,0.06872234
203,1436898155053,-0.07422013,-0.13255776,0.057726767
204,1436898155073,-0.051923547,-0.14966199,0.043982297
205,1436898155093,-0.049480084,-0.11911872,0.023518313
206,1436898155114,-0.027794369,-0.07391469,-0.0012217305
207,1436898155133,0.004276057,0.032070424,0.0067195175
208,1436898155151,0.04184427,0.19792034,0.0076358155
209,1436898155176,0.042760566,0.38148534,-0.02107485
210,1436898155190,0.014966198,0.44318274,-0.04550946
211,1436898155211,-0.028710667,0.35918877,-0.040927973
212,1436898155237,-0.050396383,0.15454891,-0.03726278
213,1436898155254,-0.051923547,-0.028405234,-0.0061086523
214,1436898155270,-0.057726767,-0.113926366,0.008246681
215,1436898155293,-0.047036625,-0.1469131,-0.03604105
216,1436898155313,-0.028710667,-0.17470746,-0.11056661
217,1436898155341,0.008857546,-0.16737708,-0.16615535
218,1436898155395,0.058643065,-0.13316862,-0.19028452
219,1436898155396,0.11148291,-0.076358154,-0.18448131
220,1436898155397,0.17989981,-0.037873644,-0.19272798
221,1436898155422,0.19700404,-0.0729984,-0.19517145
222,1436898155494,0.16401732,-0.21197024,-0.14385876
223,1436898155495,0.12797627,-0.34300083,-0.10293079
224,1436898155496,0.089186326,-0.3921755,-0.07574729
225,1436898155497,0.06291912,-0.45173484,-0.07391469
226,1436898155516,0.050701816,-0.5326745,-0.056505036
227,1436898155530,0.04153884,-0.58093286,-0.022907447
228,1436898155550,0.03176499,-0.54153204,0.0030543262
229,1436898155580,0.019547688,-0.4841107,0.030543262
230,1436898155590,0.0061086523,-0.39370266,-0.0033597588
231,1436898155612,-0.0033597588,-0.33383787,-0.018325957
232,1436898155631,0.011911872,-0.3378085,-0.016493361
233,1436898155651,0.032070424,-0.3268129,-0.024740042
234,1436898155675,0.034208454,-0.2968805,-0.018020526
235,1436898155691,-0.007330383,-0.28802297,0.00030543262
236,1436898155711,-0.020158553,-0.28069258,-0.0036651916
237,1436898155731,-0.02443461,-0.22907446,0.011301007
238,1436898155751,-0.025350908,-0.17745635,0.05955936
239,1436898155771,-0.035124753,-0.03726278,0.0720821
240,1436898155791,-0.08674286,0.1337795,0.07880162
241,1436898155811,-0.10293079,0.21227567,0.083383106
242,1436898155832,-0.102319926,0.22724187,0.0842994
243,1436898155852,-0.09682214,0.22296582,0.094989546
244,1436898155872,-0.09010262,0.18967366,0.1001819
245,1436898155907,-0.09101892,0.086132,0.07788532
246,1436898155912,-0.09010262,0.0009162979,0.062002823
247,1436898155935,-0.07849618,-0.026267206,0.04520403
248,1436898155950,-0.05497787,-0.042455133,0.034208454
249,1436898155970,-0.04428773,-0.00580322,0.0106901415
250,1436898155990,-0.033292156,0.04795292,0.0
251,1436898156010,-0.014660766,0.098043874,-0.003970624
252,1436898156031,-0.00580322,0.1160644,0.00061086525
253,1436898156052,-0.01160644,0.08979719,0.016493361
254,1436898156071,-0.020463986,0.01160644,0.016798794
255,1436898156091,-0.029626964,-0.09437868,0.03359759
256,1436898156110,-0.03604105,-0.15699236,0.053450707
257,1436898156133,-0.036957346,-0.17165314,0.059253927
258,1436898156154,-0.046120327,-0.15118915,0.041233405
259,1436898156172,-0.043982297,-0.12370021,0.024740042
260,1436898156192,-0.038179077,-0.062002823,0.018325957
261,1436898156210,-0.019547688,-0.0030543262,0.008246681
262,1436898156230,-0.027794369,0.0729984,0.008246681
263,1436898156251,-0.048258353,0.08399397,0.011301007
264,1436898156273,-0.04428773,0.0711658,-0.005497787
265,1436898156291,-0.040011674,0.03359759,-0.009162978
266,1436898156311,-0.03481932,0.013133603,-0.0106901415
267,1436898156333,-0.014966198,-0.0036651916,-0.01985312
268,1436898156355,-0.021685716,0.00580322,-0.015271631
269,1436898156376,-0.031154128,-0.03634648,-0.002443461
270,1436898156395,-0.042760566,-0.0693332,0.007941248
271,1436898156414,-0.0421497,-0.073303826,0.024740042
272,1436898156432,-0.053145275,-0.058337633,0.045814894
273,1436898156452,-0.062002823,-0.03726278,0.05222898
274,1436898156475,-0.06963864,-0.0030543262,0.054367006
275,1436898156495,-0.07849618,0.030543262,0.05131268
276,1436898156513,-0.07513642,0.055588737,0.040011674
277,1436898156532,-0.057726767,0.11178834,0.04153884
278,1436898156555,-0.051618114,0.15607607,0.029321533
279,1436898156571,-0.04917465,0.1740966,0.01282817
280,1436898156592,-0.06047566,0.1704314,0.011911872
281,1436898156612,-0.047647487,0.13805555,0.03023783
282,1436898156637,-0.033292156,0.118202426,0.030848695
283,1436898156657,-0.03145956,0.050701816,0.023823744
284,1436898156677,-0.043982297,-0.025350908,0.02687807
285,1436898156695,-0.04886922,-0.10293079,0.036957346
286,1436898156712,-0.06291912,-0.12186762,0.06383542
287,1436898156731,-0.06688975,-0.110872045,0.058948494
288,1436898156751,-0.064751714,-0.106595986,0.053145275
289,1436898156773,-0.064446285,-0.096516706,0.04886922
290,1436898156795,-0.04642576,-0.08307768,0.041233405
291,1436898156824,-0.032986723,-0.077579886,0.030848695
292,1436898156840,-0.028710667,-0.07880162,0.029932396
293,1436898156856,-0.035124753,-0.07666359,0.029321533
294,1436898156873,-0.046120327,-0.051923547,0.018020526
295,1436898156892,-0.048563786,-0.0143553335,0.0067195175
296,1436898156911,-0.036651913,0.021380283,0.0015271631
297,1436898156935,-0.03573562,0.049480084,0.00061086525
298,1436898156954,-0.04184427,0.070249505,-0.0015271631
299,1436898156972,-0.04062254,0.07696902,-0.006414085
300,1436898156995,-0.039095376,0.093462385,-0.01160644
301,1436898157015,-0.03634648,0.084910266,-0.010995574
302,1436898157032,-0.028405234,0.074830994,0.0036651916
303,1436898157055,-0.030543262,0.0720821,0.008246681
304,1436898157075,-0.03634648,0.040011674,0.016187929
305,1436898157095,-0.035430185,-0.008246681,0.012217305
306,1436898157114,-0.026267206,-0.044593163,0.0125227375
307,1436898157135,-0.019242255,-0.04795292,0.013744468
308,1436898157155,-0.026267206,-0.05589417,0.025350908
309,1436898157175,-0.037873644,-0.052839845,0.021991149
310,1436898157193,-0.043066,0.0,0.014660766
311,1436898157215,-0.034513887,0.033292156,0.004886922
312,1436898157235,-0.011911872,0.051618114,-0.0076358155
313,1436898157256,0.011301007,0.06658431,-0.002443461
314,1436898157275,0.017715093,0.08827003,0.004581489
315,1436898157296,-0.013439035,0.053450707,0.0018325958
316,1436898157316,-0.025045475,0.010995574,0.002443461
317,1436898157334,-0.01038471,-0.010079277,-0.005497787
318,1436898157357,0.013133603,-0.015577064,-0.009162978
319,1436898157376,0.016798794,-0.01038471,-0.015882496
320,1436898157394,0.013439035,0.03359759,-0.023518313
321,1436898157415,0.0009162979,0.048563786,-0.031154128
322,1436898157435,-0.0027488936,0.062308256,-0.022296581
323,1436898157464,-0.010995574,0.080634214,-0.032986723
324,1436898157544,-0.01160644,0.08460484,-0.03481932
325,1436898157545,-0.019242255,0.07544186,-0.026267206
326,1436898157546,-0.010995574,0.05955936,-0.02076942
327,1436898157547,-0.019547688,0.07727446,-0.0125227375
328,1436898157556,-0.028405234,0.06872234,-0.025350908
329,1436898157572,-0.023823744,0.015882496,-0.025961773
330,1436898157593,-0.015882496,-0.0030543262,-0.01282817
331,1436898157613,-0.021991149,-0.0033597588,-0.009162978
332,1436898157635,-0.022602014,0.016798794,-0.016798794
333,1436898157653,-0.019547688,0.029321533,-0.008552114
334,1436898157675,-0.029626964,0.023823744,-0.00061086525
335,1436898157693,-0.027183503,-0.00061086525,0.00061086525
336,1436898157717,-0.03145956,-0.007941248,0.014049901
337,1436898157734,-0.028405234,-0.013744468,0.020158553
338,1436898157756,-0.027488936,-0.021685716,0.012217305
339,1436898157776,-0.03023783,-0.027488936,0.005192355
340,1436898157796,-0.034513887,-0.048258353,0.0033597588
341,1436898157816,-0.037873644,-0.042760566,0.0018325958
342,1436898157836,-0.033292156,-0.0009162979,0.01863139
343,1436898157856,-0.030543262,0.03268129,0.018325957
344,1436898157876,-0.023823744,0.04153884,0.010995574
345,1436898157896,-0.02687807,0.044898596,0.004886922
346,1436898157916,-0.03940081,0.025045475,0.008552114
347,1436898157933,-0.03726278,-0.00030543262,0.004886922
348,1436898157956,-0.027794369,-0.005497787,-0.0033597588
349,1436898157974,-0.026267206,0.0070249503,-0.008552114
350,1436898157994,-0.02565634,0.002443461,-0.006414085
351,1436898158014,-0.019547688,0.0061086523,0.005497787
352,1436898158036,-0.023823744,0.03023783,0.005192355
353,1436898158056,-0.03940081,0.032070424,-0.0027488936
354,1436898158076,-0.03726278,0.0030543262,-0.002443461
355,1436898158096,-0.023823744,-0.005192355,0.007330383
356,1436898158115,-0.019242255,0.015882496,0.004581489
357,1436898158134,-0.024129177,0.0125227375,-0.004886922
358,1436898158154,-0.021991149,-0.01740966,-0.013439035
359,1436898158176,-0.005497787,-0.01863139,-0.018936822
360,1436898158203,-0.01038471,0.0290161,-0.017715093
361,1436898158289,-0.022602014,0.0076358155,-0.01740966
362,1436898158290,-0.029626964,-0.03481932,-0.01282817
363,1436898158309,-0.026572637,-0.052839845,0.004276057
364,1436898158311,-0.018936822,-0.026267206,0.017104227
