id,attr_time,attr_x,attr_y,attr_z
1,1436898151014,0.19877024,-0.0151521135,-0.034301408
2,1436898151033,0.1880801,-0.0047674053,-0.028192759
3,1436898151053,0.17647366,-0.0059891357,-0.033385113
4,1436898151073,0.16395092,-0.007821731,-0.05507083
5,1436898151091,0.1618129,-0.012097788,-0.10058029
6,1436898151130,0.15662055,-0.0047674053,-0.12196057
7,1436898151131,0.16242376,-0.0093488945,-0.118600816
8,1436898151149,0.1645618,-0.007821731,-0.118600816
9,1436898151170,0.16242376,0.0028684107,-0.10760524
10,1436898151192,0.14837386,0.011725957,-0.10821611
11,1436898151211,0.1254664,0.019972637,-0.09966399
12,1436898151231,0.11050022,0.023026964,-0.08347606
13,1436898151251,0.09889378,0.02608129,-0.07034246
14,1436898151274,0.07842979,0.029746482,-0.07736741
15,1436898151291,0.045443065,0.035244267,-0.053543665
16,1436898151313,-0.016865194,0.06700926,-0.04468612
17,1436898151332,-0.10208088,0.10702094,-0.052627366
18,1436898151351,-0.19432154,0.13267727,-0.032774247
19,1436898151374,-0.2746503,0.13542616,-0.029719919
20,1436898151395,-0.37208334,0.13359357,-0.05048934
21,1436898151414,-0.4514958,0.15527928,-0.072480485
22,1436898151434,-0.489064,0.15711188,-0.0978314
23,1436898151454,-0.49853244,0.16352597,-0.13295615
24,1436898151474,-0.49761614,0.1732998,-0.16411027
25,1436898151492,-0.48539886,0.1815465,-0.16838634
26,1436898151512,-0.47745755,0.1629151,-0.18121451
27,1436898151544,-0.46126965,0.15986077,-0.18701772
28,1436898151607,-0.42614493,0.16627486,-0.19190463
29,1436898151608,-0.39407447,0.16566399,-0.18854488
30,1436898151609,-0.35161933,0.16138794,-0.18854488
31,1436898151610,-0.31130224,0.1461163,-0.19465354
32,1436898151634,-0.26396018,0.12534688,-0.18823946
33,1436898151652,-0.21050948,0.11099156,-0.19495897
34,1436898151671,-0.1677489,0.107326366,-0.20870343
35,1436898151696,-0.13873279,0.10030142,-0.20595455
36,1436898151715,-0.09994286,0.087167814,-0.19190463
37,1436898151732,-0.08161691,0.08197546,-0.17327325
38,1436898151752,-0.06084749,0.09083301,-0.17082979
39,1436898151772,-0.034580275,0.09816339,-0.16502658
40,1436898151794,-0.0022044182,0.0954145,-0.1521984
41,1436898151811,0.014899805,0.09907969,-0.12073884
42,1436898151832,0.050940856,0.08411349,-0.092639044
43,1436898151851,0.08270585,0.052348495,-0.08805755
44,1436898151877,0.10439157,0.030662779,-0.08805755
45,1436898151897,0.12729901,0.01783461,-0.088362984
46,1436898151912,0.15173362,0.008366198,-0.08317063
47,1436898151935,0.1599803,0.0037847082,-0.07736741
48,1436898151952,0.13829458,0.0050064386,-0.08164346
49,1436898151972,0.13157506,0.011725957,-0.07614568
50,1436898151991,0.12821531,0.009587929,-0.06850986
51,1436898152012,0.13890545,0.0098933615,-0.06820443
52,1436898152076,0.13126963,0.021499801,-0.07767284
53,1436898152077,0.13218594,0.028219318,-0.08347606
54,1436898152078,0.13707286,0.026692156,-0.07003702
55,1436898152099,0.13829458,0.023943262,-0.070647895
56,1436898152113,0.12210666,0.04135292,-0.06576097
57,1436898152132,0.12882617,0.04501811,-0.05537626
58,1436898152151,0.12760444,0.04623984,-0.06087405
59,1436898152172,0.12790987,0.0486833,-0.07614568
60,1436898152194,0.12424469,0.037076864,-0.08897385
61,1436898152212,0.11324911,0.042880084,-0.08775212
62,1436898152232,0.096144885,0.079532,-0.07492395
63,1436898152254,0.10133724,0.09052757,-0.06240121
64,1436898152272,0.115998,0.056013685,-0.070647895
65,1436898152293,0.13768372,0.034938835,-0.076756544
66,1436898152321,0.1645618,0.03921489,-0.07339679
67,1436898152334,0.17800082,0.04043662,-0.07125875
68,1436898152356,0.20610063,0.038909458,-0.06820443
69,1436898152374,0.2189288,0.023332397,-0.06850986
70,1436898152395,0.22381572,0.0022575452,-0.06453924
71,1436898152420,0.22534288,-0.008432596,-0.069426164
72,1436898152435,0.23450586,-0.01576298,-0.06331751
73,1436898152453,0.23878193,-0.014235816,-0.051711068
74,1436898152474,0.22564831,-0.0151521135,-0.0529328
75,1436898152494,0.22381572,-0.016679278,-0.05537626
76,1436898152514,0.21373644,-0.01698471,-0.06087405
77,1436898152539,0.20854409,-0.024315093,-0.05079477
78,1436898152604,0.20762779,-0.024315093,-0.05781972
79,1436898152605,0.21282014,-0.028591149,-0.07034246
80,1436898152606,0.22045596,-0.027674852,-0.062095776
81,1436898152626,0.2189288,-0.030118313,-0.070647895
82,1436898152639,0.19388333,-0.03683783,-0.10332918
83,1436898152680,0.17280847,-0.037448697,-0.08775212
84,1436898152681,0.16486722,-0.025231391,-0.07125875
85,1436898152694,0.16334006,-0.002629377,-0.092639044
86,1436898152717,0.170365,-0.0029348093,-0.10546721
87,1436898152733,0.15020646,0.011420525,-0.11035413
88,1436898152753,0.14745757,0.014169418,-0.11035413
89,1436898152775,0.14929016,-0.01240322,-0.10180202
90,1436898152795,0.15387166,-0.011792355,-0.10180202
91,1436898152813,0.16822699,0.0059227366,-0.1100487
92,1436898152834,0.17708454,0.018445475,-0.0950825
93,1436898152854,0.19021814,0.017529177,-0.095693365
94,1436898152875,0.190829,0.012947687,-0.113103025
95,1436898152895,0.1871638,0.01783461,-0.0978314
96,1436898152916,0.16731068,0.015085716,-0.073702216
97,1436898152933,0.16334006,0.00011951686,-0.04132636
98,1436898152954,0.16639438,-0.024620526,-0.046518713
99,1436898152974,0.1917453,-0.033478074,-0.022694968
100,1436898152994,0.21923423,-0.04844427,-0.0010092556
101,1436898153012,0.24641773,-0.065548494,0.021898195
102,1436898153087,0.2601622,-0.07929296,0.019454733
103,1436898153089,0.26230022,-0.08753964,-0.015059151
104,1436898153102,0.26138395,-0.087234214,-0.050183907
105,1436898153103,0.2497775,-0.07807123,-0.06912073
106,1436898153123,0.25680244,-0.097313486,-0.042853523
107,1436898153134,0.2516101,-0.103116706,-0.0074233413
108,1436898153154,0.23236784,-0.072878875,-0.015364587
109,1436898153173,0.222594,-0.058523547,-0.040104628
110,1436898153197,0.22015053,-0.077154934,-0.07522938
111,1436898153216,0.21831793,-0.1180829,-0.13326158
112,1436898153242,0.22656462,-0.135798,-0.16685916
113,1436898153254,0.23420043,-0.13549258,-0.17357868
114,1436898153275,0.23175697,-0.12296983,-0.1793819
115,1436898153295,0.21098755,-0.07929296,-0.13295615
116,1436898153313,0.1786117,-0.05882898,-0.067898996
117,1436898153333,0.17005958,-0.05424749,0.016400404
118,1436898153353,0.16364549,-0.03103461,0.08695534
119,1436898153378,0.16425636,-0.017290141,0.15842657
120,1436898153399,0.18380405,-0.011792355,0.19294046
121,1436898153415,0.20518433,-0.008432596,0.16820042
122,1436898153436,0.21587446,-0.00079678104,0.12941048
123,1436898153454,0.22717547,0.010809659,0.116582304
124,1436898153474,0.24641773,0.02608129,0.104670435
125,1436898153494,0.26443827,0.041658353,0.07870866
126,1436898153515,0.28123707,0.07708854,0.032893762
127,1436898153538,0.276961,0.10182858,-0.012921125
128,1436898153600,0.25374812,0.1461163,-0.019946076
129,1436898153601,0.19357789,0.18398996,-0.0068124756
130,1436898153602,0.12210666,0.23163743,-0.024222136
131,1436898153630,0.05063542,0.28020123,-0.012310259
132,1436898153633,0.02131389,0.285699,-0.014448285
133,1436898153664,-0.012589127,0.263097,-0.046518713
134,1436898153676,-0.034274846,0.23285916,-0.059652317
135,1436898153694,-0.043743253,0.17299438,-0.06881529
136,1436898153719,-0.042826965,0.14306198,-0.004674442
137,1436898153736,-0.0006772578,0.06884186,0.06740765
138,1436898153755,0.030476868,0.014169418,0.08481732
139,1436898153776,0.086065605,-0.0032402421,0.09734005
140,1436898153795,0.1337131,-0.00415654,0.1211638
141,1436898153813,0.15478794,0.017529177,0.1642298
142,1436898153841,0.16792154,0.037382293,0.17889057
143,1436898153853,0.1599803,0.054181088,0.15323423
144,1436898153876,0.14226522,0.07036902,0.11138995
145,1436898153897,0.107445896,0.091443874,0.06740765
146,1436898153918,0.09370142,0.099995986,0.044500202
147,1436898153933,0.090341665,0.085640654,0.011818916
148,1436898153953,0.08392758,0.08991671,-0.0074233413
149,1436898153973,0.08209498,0.09327647,-0.030025356
150,1436898153995,0.06529619,0.092665605,-0.072175056
151,1436898154016,0.02131389,0.0944982,-0.082254335
152,1436898154033,-0.023584709,0.09969056,-0.05873602
153,1436898154054,-0.06268008,0.09785796,-0.041020926
154,1436898154085,-0.10880041,0.0917493,0.023425356
155,1436898154093,-0.15033925,0.055708252,0.081152126
156,1436898154113,-0.1704978,0.06487124,0.13215937
157,1436898154133,-0.14820123,0.045628976,0.15751027
158,1436898154154,-0.10482979,-0.0069054333,0.13399197
159,1436898154185,-0.043437824,-0.05974528,0.11047365
160,1436898154193,0.014288947,-0.08631791,0.09550746
161,1436898154214,0.06590705,-0.0908994,0.07198915
162,1436898154234,0.11141652,-0.078682095,0.034115493
163,1436898154254,0.14073804,-0.056690954,0.007848293
164,1436898154272,0.17922255,-0.0151521135,-0.0055907443
165,1436898154292,0.2012137,-0.0004913483,-0.0037581474
166,1436898154312,0.22717547,0.020583503,-0.02361127
167,1436898154333,0.26321653,0.0486833,-0.062095776
168,1436898154357,0.29498154,0.081364594,-0.11371389
169,1436898154373,0.30933684,0.104272045,-0.11340846
170,1436898154393,0.33285517,0.097247094,-0.08744669
171,1436898154418,0.33254975,0.05448652,-0.082559764
172,1436898154434,0.3145292,-0.0014076462,-0.09019558
173,1436898154453,0.31330746,-0.06432676,-0.096915096
174,1436898155665,0.30628252,-0.098840654,-0.105772644
175,1436898155666,0.31025314,-0.111974254,-0.12287687
176,1436898155667,0.3172781,-0.13030022,-0.16319397
177,1436898155668,0.32613564,-0.1431284,-0.2120632
178,1436898155669,0.3359095,-0.13640887,-0.21847728
179,1436898155670,0.33743668,-0.10830906,-0.20076218
180,1436898155671,0.32552478,-0.08540162,-0.1775493
181,1436898155672,0.3096423,-0.07471147,-0.14273
182,1436898155673,0.2693252,-0.052414894,-0.09141731
183,1436898155674,0.2601622,-0.04936057,-0.03582857
184,1436898155675,0.25802416,-0.07379518,-0.026360162
185,1436898155676,0.26596543,-0.06768652,-0.0068124756
186,1436898155677,0.27726644,-0.050887734,-0.008950502
187,1436898155678,0.2873457,-0.01820644,-0.02361127
188,1436898155679,0.28490224,0.01905634,-0.030025356
189,1436898155680,0.2855131,0.03921489,-0.0379666
190,1436898155681,0.27146322,0.04257465,-0.06820443
191,1436898155682,0.2592459,0.037382293,-0.09660967
192,1436898155683,0.2406145,0.029746482,-0.12990183
193,1436898155684,0.23145154,0.023943262,-0.14028654
194,1436898155685,0.22656462,0.0037847082,-0.13509417
195,1436898155686,0.22412115,-0.013624951,-0.12104428
196,1436898155687,0.22381572,-0.038059562,-0.1240986
197,1436898155688,0.22931351,-0.047527973,-0.111575864
198,1436898155689,0.2357276,-0.05730182,-0.099969424
199,1436898155690,0.24244711,-0.07471147,-0.09141731
200,1436898155691,0.2705469,-0.079903826,-0.07461852
201,1436898155692,0.2855131,-0.08815051,-0.07981087
202,1436898155693,0.29131633,-0.08845594,-0.061484914
203,1436898155694,0.31178033,-0.048749704,-0.04041006
204,1436898155695,0.31514007,-0.033783507,-0.049878474
205,1436898155696,0.331328,-0.03897586,-0.072175056
206,1436898155697,0.33926925,-0.041113887,-0.10638351
207,1436898155698,0.34843224,-0.043251917,-0.13937023
208,1436898155699,0.34690505,-0.046917107,-0.16227767
209,1436898155700,0.3481268,-0.05791268,-0.17785475
210,1436898155701,0.34262902,-0.06951912,-0.20228934
211,1436898155702,0.33621493,-0.07440604,-0.21359035
212,1436898155703,0.32247046,-0.095786326,-0.20198393
213,1436898155704,0.31422377,-0.1086145,-0.16013965
214,1436898155705,0.30811512,-0.11166882,-0.13662134
215,1436898155706,0.30261734,-0.10830906,-0.1259312
216,1436898155707,0.2864294,-0.098840654,-0.11493562
217,1436898155708,0.28215337,-0.08631791,-0.09966399
218,1436898155709,0.27909902,-0.085707046,-0.09722053
219,1436898155710,0.27665555,-0.08204186,-0.10088572
220,1436898155711,0.25710788,-0.06341047,-0.106994376
221,1436898155712,0.25802416,-0.045389947,-0.11676822
222,1436898155713,0.2461123,-0.03989216,-0.13326158
223,1436898155714,0.23603302,-0.044168215,-0.15525272
224,1436898155715,0.2509992,-0.042946484,-0.14853321
225,1436898155716,0.276961,-0.041113887,-0.12623663
226,1436898155717,0.2968141,-0.032561775,-0.12165514
227,1436898155718,0.31116945,-0.021260766,-0.108521536
228,1436898155719,0.29253805,-0.0050728377,-0.09630423
229,1436898155720,0.2900946,-0.0032402421,-0.072480485
230,1436898155721,0.2760447,-0.026147688,-0.07767284
231,1436898155722,0.26321653,-0.03103461,-0.078283705
232,1436898155723,0.2519155,-0.028591149,-0.08653039
233,1436898155724,0.23511672,-0.013014086,-0.09080645
234,1436898155725,0.222594,0.0059227366,-0.07920001
235,1436898155726,0.20151913,0.019361772,-0.07889457
236,1436898155727,0.17677909,0.04226922,-0.08072717
237,1436898155733,0.15264992,0.054181088,-0.08072717
238,1436898155753,0.122412086,0.059984308,-0.082254335
239,1436898155773,0.107445896,0.06303864,-0.081032604
240,1436898155793,0.09919921,0.058457147,-0.07981087
241,1436898155813,0.106224164,0.046850707,-0.077978276
242,1436898155833,0.12271752,0.03921489,-0.07858914
243,1436898155853,0.14990103,0.025164992,-0.08714125
244,1436898155874,0.16517265,0.024554128,-0.089890145
245,1436898155895,0.16822699,0.021194369,-0.081032604
246,1436898155916,0.1599803,0.019972637,-0.07492395
247,1436898155955,0.1645618,-0.0059891357,-0.08622496
248,1436898155956,0.1749465,-0.0069054333,-0.08622496
249,1436898155975,0.1749465,0.029135616,-0.072175056
250,1436898155994,0.17250304,0.04715614,-0.06270664
251,1436898156014,0.18166602,0.031579077,-0.059346884
252,1436898156040,0.1880801,0.009282496,-0.05507083
253,1436898156057,0.18258232,0.012336822,-0.06331751
254,1436898156079,0.17433563,0.035855133,-0.08133803
255,1436898156095,0.1654781,0.05540282,-0.10668894
256,1436898156115,0.14562497,0.06578753,-0.1100487
257,1436898156135,0.09492315,0.07464508,-0.101191156
258,1436898156155,0.08056782,0.052653927,-0.09630423
259,1436898156175,0.067434214,0.0495996,-0.10088572
260,1436898156195,0.073237434,0.051432196,-0.10241289
261,1436898156215,0.090341665,0.05662455,-0.11035413
262,1436898156241,0.12455012,0.057235416,-0.09752596
263,1436898156257,0.14531954,0.055708252,-0.09386077
264,1436898156278,0.14898473,0.058151715,-0.09813683
265,1436898156299,0.15234448,0.056929983,-0.09874769
266,1436898156315,0.15387166,0.048988733,-0.10058029
267,1436898156336,0.17280847,0.037382293,-0.10943784
268,1436898156355,0.18197145,0.035244267,-0.11554649
269,1436898156383,0.17738996,0.030357348,-0.12134971
270,1436898156420,0.1871638,0.024554128,-0.13020726
271,1436898156421,0.20548975,0.011115092,-0.12257144
272,1436898156438,0.21740164,0.004090141,-0.09874769
273,1436898156460,0.22473201,0.010198793,-0.10821611
274,1436898156475,0.2525264,0.010198793,-0.12379317
275,1436898156498,0.22015053,0.030051915,-0.12990183
276,1436898156519,0.21923423,0.007144467,-0.07981087
277,1436898156538,0.21159841,-0.040503025,-0.06362294
278,1436898156556,0.24702859,-0.041113887,-0.06240121
279,1436898156576,0.2497775,-0.025231391,-0.08133803
280,1436898156596,0.24855576,-0.013624951,-0.09722053
281,1436898156619,0.24733403,-0.014541249,-0.084086925
282,1436898156639,0.22534288,-0.014235816,-0.072480485
283,1436898156659,0.22320485,-0.032561775,-0.07492395
284,1436898156678,0.20518433,-0.032867208,-0.07706198
285,1436898156699,0.20701693,-0.032561775,-0.07309135
286,1436898156719,0.21495818,-0.038364995,-0.06912073
287,1436898156739,0.22289942,-0.039586727,-0.08347606
288,1436898156759,0.21098755,-0.025536822,-0.08805755
289,1436898156780,0.20762779,-0.015457546,-0.10455091
290,1436898156802,0.19938111,-0.0032402421,-0.11798995
291,1436898156820,0.19296703,0.0028684107,-0.12165514
292,1436898156840,0.19541049,0.008366198,-0.12929095
293,1436898156861,0.19296703,0.0098933615,-0.13967566
294,1436898156910,0.2048789,-0.014541249,-0.11524105
295,1436898156911,0.20182458,0.0028684107,-0.10607807
296,1436898156919,0.19296703,0.01905634,-0.084086925
297,1436898156936,0.19571592,0.018750908,-0.076756544
298,1436898156956,0.19143987,-0.007516299,-0.08653039
299,1436898156979,0.1899127,-0.0029348093,-0.09966399
300,1436898156996,0.18838553,0.0050064386,-0.10180202
301,1436898157020,0.19327246,0.0022575452,-0.10455091
302,1436898157038,0.19693765,-0.0050728377,-0.1381485
303,1436898157065,0.2152636,-0.0023239441,-0.14608975
304,1436898157078,0.21709621,-0.009959759,-0.15067124
305,1436898157100,0.2180125,-0.0215662,-0.14853321
306,1436898157122,0.2161799,-0.022787929,-0.14670062
307,1436898157140,0.18472034,-0.020955333,-0.13417788
308,1436898157160,0.1599803,-0.008738029,-0.12806922
309,1436898157179,0.15875857,0.0028684107,-0.13509417
310,1436898157200,0.1440978,0.011725957,-0.13081811
311,1436898157220,0.13585113,0.010504226,-0.118906245
312,1436898157241,0.13126963,0.012642255,-0.08805755
313,1436898157260,0.13065878,0.015696581,-0.06331751
314,1436898157278,0.13524026,0.011420525,-0.04743501
315,1436898157297,0.13646199,0.01447485,-0.03399598
316,1436898157319,0.13951632,0.01447485,-0.008339636
317,1436898157340,0.14990103,0.014169418,0.015789539
318,1436898157358,0.16120203,-0.013014086,0.019454733
319,1436898157457,0.12424469,-0.051804032,-0.0031472817
320,1436898157458,0.110805646,-0.053636625,0.024341658
321,1436898157484,0.108973056,-0.07471147,0.04175131
322,1436898157485,0.08820364,-0.09639719,0.09917265
323,1436898157486,0.071404845,-0.11686117,0.18255575
324,1436898157487,0.03872356,-0.10556017,0.25188893
325,1436898157548,0.0075694174,-0.053636625,0.25708133
326,1436898157549,-0.032747686,-0.0059891357,0.24975093
327,1436898157550,-0.069094166,-0.0062945685,0.26502258
328,1436898157560,-0.10147002,-0.028285718,0.3212222
329,1436898157577,-0.11551991,-0.042030185,0.40643787
330,1436898157597,-0.10818955,-0.050887734,0.4977622
331,1436898157617,-0.080700606,-0.09242657,0.5496858
332,1436898157638,-0.042826965,-0.12022094,0.6138266
333,1436898157657,-0.033663988,-0.14373925,0.6730805
334,1436898157680,-0.058098584,-0.14282295,0.7109542
335,1436898157699,-0.11399275,-0.12724589,0.70698357
336,1436898157722,-0.16438913,-0.11869377,0.6901848
337,1436898157740,-0.22058874,-0.10372757,0.64711875
338,1436898157761,-0.29083824,-0.084179886,0.63276345
339,1436898157780,-0.3671964,-0.06096701,0.6236004
340,1436898157800,-0.44202742,-0.023093361,0.65261656
341,1436898157819,-0.49700525,0.04379638,0.65536547
342,1436898157839,-0.5663384,0.081364594,0.623295
343,1436898157867,-0.6231489,0.110075265,0.59397346
344,1436898157931,-0.66316056,0.16566399,0.5692334
345,1436898157932,-0.6992017,0.21789297,0.52280766
346,1436898157933,-0.71630585,0.27867407,0.52341855
347,1436898157951,-0.7172222,0.29608372,0.5499912
348,1436898157961,-0.7046994,0.29241854,0.52494574
349,1436898157981,-0.6601063,0.27225998,0.41682255
350,1436898158008,-0.6243707,0.22827768,0.33343947
351,1436898158023,-0.59566,0.16810745,0.3178624
352,1436898158043,-0.5138041,0.11923824,0.35145998
353,1436898158062,-0.39468536,0.04593441,0.25952476
354,1436898158080,-0.2914491,-0.040503025,0.20240887
355,1436898158098,-0.2050117,-0.08753964,0.2851811
356,1436898158124,-0.13079154,-0.06738109,0.34474045
357,1436898158137,-0.07001047,0.02027807,0.31205916
358,1436898158158,-0.10544065,0.22736138,0.2662443
359,1436898158178,-0.15797505,0.43658274,0.20424147
360,1436898158203,-0.15583703,0.48728454,0.16239719
361,1436898158219,-0.1405654,0.383132,0.080235824
362,1436898158237,-0.14300886,0.33365193,-0.10516178
363,1436898158261,-0.121934,0.36724952,-0.2215316
364,1436898158277,-0.13201329,0.47048575,-0.26123786
365,1436898158421,-0.15828049,0.5868556,-0.23863584
366,1436898158422,-0.1704978,0.6427497,-0.22947286
367,1436898158423,-0.19859761,0.6592431,-0.21084146
368,1436898158424,-0.20531711,0.6790962,-0.17327325
369,1436898158425,-0.2034845,0.70353085,-0.20351109
370,1436898158426,-0.19768131,0.7154427,-0.2682628
371,1436898158449,-0.21325836,0.6995602,-0.32537872
372,1436898158450,-0.2474668,0.69131356,-0.40112597
373,1436898158471,-0.28411874,0.70811236,-0.5040568
374,1436898158505,-0.3268793,0.7465968,-0.6396689
375,1436898158506,-0.40751353,0.800353,-0.7783353
376,1436898158518,-0.48387167,0.8846524,-0.8458359
377,1436898158544,-0.62375987,0.9439063,-0.8922617
378,1436898158558,-0.7315775,1.0080472,-0.84430873
