id,attr_time,attr_x,attr_y,attr_z
1,1436182170026,-0.019547688,0.040011674,-0.00580322
2,1436182170047,-0.019242255,0.03481932,-0.0018325958
3,1436182170071,-0.011911872,0.023823744,-0.008857546
4,1436182170088,-0.007330383,0.026572637,-0.016493361
5,1436182170107,-0.010079277,0.026267206,-0.013439035
6,1436182170128,-0.017104227,0.03573562,-0.01282817
7,1436182170148,-0.011911872,0.034513887,0.00061086525
8,1436182170168,-0.00580322,0.025045475,-0.0021380284
9,1436182170188,0.0018325958,0.006414085,-0.01160644
10,1436182170206,0.0018325958,0.014049901,-0.028099801
11,1436182170228,-0.0015271631,0.02321288,-0.028710667
12,1436182170250,-0.015271631,0.03145956,-0.016187929
13,1436182170265,-0.013439035,0.03756821,-0.009468411
14,1436182170289,-0.0061086523,0.024129177,-0.0125227375
15,1436182170305,-0.00030543262,0.018325957,-0.018936822
16,1436182170326,-0.0018325958,0.01985312,-0.029626964
17,1436182170347,-0.009468411,0.03023783,-0.025045475
18,1436182170368,-0.015271631,0.0290161,-0.018325957
19,1436182170389,-0.016493361,0.032986723,-0.0143553335
20,1436182170408,-0.008857546,0.021685716,-0.016187929
21,1436182170429,-0.0061086523,0.018936822,-0.01740966
22,1436182170448,0.0,0.025350908,-0.0290161
23,1436182170467,-0.0012217305,0.025045475,-0.029626964
24,1436182170487,0.0036651916,0.02565634,-0.028405234
25,1436182170509,0.002443461,0.014049901,-0.029626964
26,1436182170526,0.003970624,0.009773844,-0.040011674
27,1436182170596,0.0018325958,0.014966198,-0.044593163
28,1436182170597,-0.007330383,0.029932396,-0.03726278
29,1436182170598,-0.0125227375,0.04428773,-0.027183503
30,1436182170606,-0.0143553335,0.03634648,-0.01863139
31,1436182170635,-0.005497787,0.02687807,-0.022907447
32,1436182170648,-0.007330383,0.026572637,-0.026267206
33,1436182170666,-0.01863139,0.03145956,-0.025961773
34,1436182170688,-0.025961773,0.044593163,-0.014660766
35,1436182170706,-0.018020526,0.038789943,-0.010079277
36,1436182170730,-0.007941248,0.024740042,-0.010995574
37,1436182170750,-0.006414085,0.011301007,-0.01985312
38,1436182170767,-0.0125227375,0.015882496,-0.02687807
39,1436182170786,-0.015577064,0.027794369,-0.02321288
40,1436182170809,-0.016798794,0.03481932,-0.013439035
41,1436182170829,-0.0009162979,0.032375857,-0.021685716
42,1436182170856,-0.0009162979,0.02321288,-0.02565634
43,1436182170869,-0.00061086525,0.018325957,-0.031154128
44,1436182170890,-0.011911872,0.032375857,-0.028710667
45,1436182170909,-0.011301007,0.043066,-0.022907447
46,1436182170927,-0.007330383,0.036651913,-0.01985312
47,1436182170946,-0.00580322,0.022296581,-0.027488936
48,1436182171091,-0.004886922,0.02076942,-0.032070424
49,1436182171092,-0.004886922,0.025350908,-0.03359759
50,1436182171093,-0.021685716,0.03268129,-0.021991149
51,1436182171094,-0.013744468,0.033292156,-0.016187929
52,1436182171095,-0.018325957,0.025045475,-0.0125227375
53,1436182171096,-0.01282817,0.014660766,-0.022907447
54,1436182171097,-0.00580322,0.020158553,-0.03756821
55,1436182171106,-0.009773844,0.03634648,-0.03634648
56,1436182171126,-0.0106901415,0.045814894,-0.028710667
57,1436182171153,-0.01038471,0.0421497,-0.016493361
58,1436182171166,-0.005497787,0.01740966,-0.01985312
59,1436182171187,0.007941248,0.0061086523,-0.031154128
60,1436182171206,0.0018325958,0.010995574,-0.04153884
61,1436182171229,-0.010995574,0.027488936,-0.030848695
62,1436182171308,-0.019547688,0.044593163,-0.017104227
63,1436182171309,-0.007941248,0.04428773,-0.008552114
64,1436182171310,0.0036651916,0.021685716,-0.015882496
65,1436182171311,0.011301007,0.007941248,-0.028710667
66,1436182171332,0.00580322,0.014660766,-0.038179077
67,1436182171350,0.0015271631,0.036651913,-0.022602014
68,1436182171369,0.0061086523,0.02107485,-0.023518313
69,1436182171385,0.01985312,0.0076358155,-0.030543262
70,1436182171407,0.030848695,-0.009162978,-0.04642576
71,1436182171428,0.024129177,-0.0033597588,-0.05467244
72,1436182171449,-0.0027488936,0.0143553335,-0.048258353
73,1436182171467,-0.009162978,0.04886922,-0.01985312
74,1436182171489,-0.009162978,0.04550946,-0.011301007
75,1436182171506,0.0027488936,0.018020526,-0.014049901
76,1436182171530,0.004581489,0.01282817,-0.032070424
77,1436182171549,-0.005497787,0.019547688,-0.032070424
78,1436182171569,-0.015271631,0.0421497,-0.024740042
79,1436182171590,-0.020158553,0.05131268,-0.013744468
80,1436182171610,-0.015882496,0.042455133,-0.0027488936
81,1436182171630,-0.007941248,0.024129177,-0.006414085
82,1436182171649,0.004581489,0.009773844,-0.027488936
83,1436182171669,0.005192355,0.0125227375,-0.037873644
84,1436182171688,-0.0012217305,0.030543262,-0.04184427
85,1436182171710,-0.010995574,0.042760566,-0.03145956
86,1436182171731,-0.004886922,0.046731193,-0.016798794
87,1436182171750,0.0015271631,0.021685716,-0.020158553
88,1436182171770,0.010079277,0.014660766,-0.034513887
89,1436182171790,0.0106901415,0.020158553,-0.04550946
90,1436182171807,0.009162978,0.026267206,-0.04184427
91,1436182171827,0.0012217305,0.03359759,-0.030543262
92,1436182171846,-0.0106901415,0.027488936,-0.018020526
93,1436182171873,-0.01160644,0.018936822,-0.018325957
94,1436182171893,-0.011911872,0.018936822,-0.018020526
95,1436182171913,-0.008857546,0.025961773,-0.016798794
96,1436182171931,-0.0012217305,0.029321533,-0.022602014
97,1436182171952,-0.0030543262,0.029626964,-0.024129177
98,1436182172030,-0.004581489,0.022602014,-0.025045475
99,1436182172031,-0.01282817,0.029932396,-0.018020526
100,1436182172032,-0.01863139,0.03970624,-0.0106901415
101,1436182172033,-0.005192355,0.034208454,-0.00061086525
102,1436182172050,0.003970624,0.009773844,-0.020463986
103,1436182172070,-0.0027488936,0.011911872,-0.03023783
104,1436182172087,-0.0076358155,0.03940081,-0.0290161
105,1436182172111,-0.012217305,0.04520403,-0.016493361
106,1436182172138,-0.01038471,0.029932396,-0.007941248
107,1436182172150,-0.0076358155,0.021685716,-0.008857546
108,1436182172174,-0.0027488936,0.014660766,-0.024129177
109,1436182172188,-0.0067195175,0.02107485,-0.026572637
110,1436182172211,-0.014049901,0.025961773,-0.019547688
111,1436182172228,-0.014049901,0.028099801,-0.011911872
112,1436182172251,-0.026267206,0.03359759,-0.006414085
113,1436182172271,-0.017104227,0.025350908,-0.0036651916
114,1436182172291,-0.002443461,0.011911872,-0.017104227
115,1436182172311,-0.0067195175,0.016798794,-0.029932396
116,1436182172331,-0.013133603,0.016187929,-0.030543262
117,1436182172351,-0.028405234,0.035124753,-0.0143553335
118,1436182172371,-0.022907447,0.038179077,-0.005497787
119,1436182172391,-0.010995574,0.025350908,-0.007330383
120,1436182172409,-0.004886922,0.006414085,-0.02321288
121,1436182172429,-0.00580322,0.018020526,-0.030543262
122,1436182172451,-0.015882496,0.032986723,-0.026267206
123,1436182172468,-0.016187929,0.040927973,-0.01160644
124,1436182172490,-0.014049901,0.02565634,-0.0106901415
125,1436182172511,-0.0125227375,0.01160644,-0.016187929
126,1436182172532,-0.008246681,0.014660766,-0.03023783
127,1436182172553,-0.015271631,0.038179077,-0.026267206
128,1436182172573,-0.0143553335,0.03726278,-0.017104227
129,1436182172591,-0.009162978,0.025961773,-0.015271631
130,1436182172608,-0.0021380284,0.021380283,-0.019242255
131,1436182172630,-0.00061086525,0.016187929,-0.028099801
132,1436182172650,-0.0106901415,0.029932396,-0.029321533
133,1436182172670,-0.01282817,0.038789943,-0.014660766
134,1436182172735,-0.0106901415,0.03756821,-0.005497787
135,1436182172736,-0.011301007,0.019242255,-0.0106901415
136,1436182172737,-0.009162978,0.013439035,-0.01740966
137,1436182172757,-0.015271631,0.018936822,-0.02107485
138,1436182172769,-0.02076942,0.03268129,-0.015577064
139,1436182172789,-0.023823744,0.0421497,-0.01740966
140,1436182172809,-0.046731193,0.046120327,-0.0061086523
141,1436182172830,-0.043066,0.03604105,0.0030543262
142,1436182172850,-0.02107485,0.024129177,0.004581489
143,1436182172870,-0.008552114,0.0027488936,-0.025961773
144,1436182172889,-0.008552114,0.031154128,-0.030543262
145,1436182172909,0.0,0.03359759,-0.016798794
146,1436182172930,-0.011301007,0.00061086525,-0.0036651916
147,1436182172948,-0.005192355,-0.021685716,-0.0061086523
148,1436182172971,0.0021380284,-0.014049901,-0.023518313
149,1436182172991,0.02076942,-0.015271631,-0.04917465
150,1436182173011,0.01985312,0.008552114,-0.04184427
151,1436182173031,-0.004276057,0.032070424,-0.01863139
152,1436182173051,-0.044898596,0.022296581,-0.0018325958
153,1436182173071,-0.063224554,0.0027488936,0.025961773
154,1436182173091,-0.044898596,0.032375857,0.05955936
155,1436182173111,-0.029932396,0.004276057,0.07574729
156,1436182173132,-0.040317107,-0.055283304,0.070249505
157,1436182173150,-0.05681047,-0.018936822,0.058337633
158,1436182173171,-0.076358154,-0.0033597588,0.052534413
159,1436182173190,-0.081855945,0.06688975,0.06963864
160,1436182173208,-0.09285152,0.076358154,0.102319926
161,1436182173228,-0.11178834,0.05589417,0.1459968
162,1436182173248,-0.12583824,0.0027488936,0.17470746
163,1436182173274,-0.14172074,-0.025961773,0.19975294
164,1436182173291,-0.16676621,-0.028099801,0.20219639
165,1436182173312,-0.1872302,-0.004581489,0.22082779
166,1436182173330,-0.1994475,0.018020526,0.269697
167,1436182173351,-0.20586158,-0.021991149,0.29749137
168,1436182173370,-0.19883664,-0.061086524,0.32925636
169,1436182173391,-0.1853976,-0.081855945,0.3417791
170,1436182173408,-0.17684549,-0.054367006,0.35216382
171,1436182173460,-0.14477506,-0.035124753,0.35460728
172,1436182173461,-0.10354166,-0.01160644,0.3481932
173,1436182173478,-0.07788532,-0.0143553335,0.3417791
174,1436182173488,-0.03634648,0.007941248,0.28955013
175,1436182173511,-0.029626964,0.14508049,0.31215215
176,1436182173529,0.043066,0.01985312,0.28252518
177,1436182173549,0.083383106,-0.020463986,0.25992316
178,1436182173571,0.1020145,-0.058337633,0.26297748
179,1436182173590,0.13347405,-0.022602014,0.25167647
180,1436182173610,0.15668693,0.04550946,0.2669481
181,1436182173631,0.17287487,0.006414085,0.32162055
182,1436182173649,0.19975294,-0.10751228,0.3662137
183,1436182173668,0.19242255,-0.26053402,0.34422258
184,1436182173692,0.18784106,-0.28680122,0.30024028
185,1436182173712,0.21105394,-0.19975294,0.28130344
186,1436182173732,0.24220806,-0.11575896,0.24770586
187,1436182173752,0.26725355,-0.070249505,0.2098322
188,1436182173772,0.27550024,-0.008246681,0.1740966
189,1436182173792,0.2742785,0.06291912,0.14660765
190,1436182173812,0.2593123,0.057726767,0.10170906
191,1436182173832,0.25534168,0.10598512,0.052839845
192,1436182173854,0.24465153,0.17837265,0.031154128
193,1436182173869,0.21135938,0.23762658,0.02321288
194,1436182173892,0.14385876,0.38606682,0.093767814
195,1436182173909,0.06505715,0.3744604,0.16707164
196,1436182173929,-0.038179077,0.28313604,0.25289822
197,1436182173949,-0.13500121,0.27214047,0.33200526
198,1436182173974,-0.16065755,0.18845193,0.35185838
199,1436182173994,-0.15851954,0.14813483,0.32925636
200,1436182174014,-0.12186762,0.06872234,0.25289822
201,1436182174032,-0.08093964,0.044593163,0.183565
202,1436182174049,-0.05955936,0.04520403,0.14935656
203,1436182174069,-0.044593163,0.032375857,0.122783914
204,1436182174102,-0.06505715,0.044593163,0.15790866
205,1436182174118,-0.10751228,0.047647487,0.21044308
206,1436182174172,-0.16890424,0.05589417,0.28038713
207,1436182174174,-0.20738874,0.052534413,0.32284227
208,1436182174175,-0.2312125,0.05100725,0.33841935
209,1436182174209,-0.28008172,0.102319926,0.36987892
210,1436182174210,-0.3555236,0.22357668,0.46944994
211,1436182174229,-0.42943826,0.2687807,0.5635232
212,1436182174249,-0.52931476,0.2950479,0.70249504
213,1436182174289,-0.61117065,0.2501493,0.8564331
214,1436182174290,-0.68325275,0.2843578,0.95203346
215,1436182174309,-0.7623598,0.29168814,1.1023064
216,1436182174332,-0.8335256,0.30634892,1.2452488
217,1436182174350,-0.89736104,0.3820962,1.3573426
218,1436182174375,-1.0968086,0.46486846,1.4575244
219,1436182174389,-1.144456,0.37323865,1.6869044
220,1436182174413,-1.3133603,0.52412236,1.8677205
221,1436182174433,-1.4129313,0.70432764,1.9700404
222,1436182174453,-1.6438384,1.2449434,1.9892827
223,1436182174473,-1.8264871,2.0540345,1.9840903
224,1436182174493,-1.9049833,2.5262332,2.3548856
225,1436182174513,-1.7486018,1.3417655,2.47095
226,1436182174533,-1.2770138,0.0290161,2.0076087
227,1436182174553,-0.9819659,0.056505036,1.3448198
228,1436182174572,-0.7476991,0.37598756,0.7837401
229,1436182174594,-0.14110987,1.2305881,0.15057829
230,1436182174611,0.1160644,1.196685,-0.7174612
231,1436182174633,0.46853364,1.2852604,-1.5042557
232,1436182174652,0.9285152,1.3335189,-1.6734654
233,1436182174673,1.3112222,0.6377433,-1.8973475
234,1436182174693,1.6887369,0.26358834,-2.4346035
235,1436182174713,2.058005,0.25167647,-2.8292224
236,1436182174733,2.3014348,0.24801129,-3.0674598
237,1436182174753,2.5595255,-0.19272798,-3.206737
238,1436182174773,2.7818804,-0.49877146,-3.2910366
239,1436182174793,2.9852984,-0.7852673,-3.3454034
240,1436182174814,3.0454686,-0.93370754,-3.4116824
241,1436182174833,2.950479,-0.7620544,-3.4422257
242,1436182174853,2.803566,-0.4654793,-3.3215797
243,1436182174877,2.7375927,-0.50854534,-3.198185
244,1436182174944,2.620612,-0.75594574,-3.0836477
245,1436182174945,2.499966,-1.2027937,-2.9132164
246,1436182174946,2.3359487,-1.8185458,-2.7519479
247,1436182174952,2.0332649,-2.257147,-2.5363126
248,1436182174971,1.6676621,-2.4678955,-2.0851886
249,1436182174995,1.3335189,-2.526844,-1.4196508
250,1436182175010,0.6939429,-2.3774874,-0.27091873
251,1436182175030,-0.13805555,-1.4795157,0.9957104
252,1436182175052,-0.68294734,-0.36865717,1.7873917
253,1436182175071,-0.7171558,0.11301007,1.7470746
254,1436182175091,-0.70341134,0.2947425,-0.23579398
255,1436182175111,-0.9184359,2.883895,2.7333164
256,1436182175132,-0.5751296,-1.505172,2.3011293
257,1436182175153,-0.33475417,-1.361924,2.0161607
258,1436182175174,-0.30573806,0.30879238,1.7928895
259,1436182175197,-0.37110063,-0.6814202,1.7186694
260,1436182175210,-0.6377433,-0.44012842,1.2592987
261,1436182175232,-0.5561928,0.5002986,1.0629056
262,1436182175253,-0.2724459,1.2663237,0.8738427
263,1436182175272,0.12767084,0.81397796,1.0351112
264,1436182175292,0.27214047,-0.49968776,1.25319
265,1436182175313,0.10842858,-0.8530733,0.9379836
266,1436182175333,-0.0070249503,-0.4288274,0.45937067
267,1436182175351,-0.0027488936,0.42149702,0.29657507
268,1436182175373,0.054061573,0.6444628,0.3817908
269,1436182175391,0.06658431,0.40866885,0.59437186
270,1436182175411,0.026267206,-0.1255328,0.64873886
271,1436182175431,0.006414085,-0.23273966,0.5858198
272,1436182175453,-0.030848695,0.07360926,0.52778757
273,1436182175473,-0.098043874,0.35308012,0.5858198
274,1436182175493,-0.17898351,0.3567453,0.7425067
275,1436182175513,-0.23915374,0.23548855,0.8793405
276,1436182175533,-0.30390546,0.2434298,1.0769554
277,1436182175552,-0.34208453,0.19272798,1.1844677
278,1436182175572,-0.35216382,0.13805555,1.1905763
279,1436182175593,-0.38637227,0.16982053,1.1563679
280,1436182175617,-0.46028697,0.3145956,1.1866057
281,1436182175677,-0.53786683,0.50915617,1.2568552
282,1436182175690,-0.6957755,0.57848936,1.3680327
283,1436182175691,-0.83199847,0.52687126,1.5115861
284,1436182175692,-0.9761627,0.5342017,1.6581937
285,1436182175711,-1.2067643,0.5323691,1.8570304
286,1436182175733,-1.4141531,0.6310238,2.0738876
287,1436182175750,-1.475545,0.73853606,2.2192733
288,1436182175772,-1.707063,1.1145236,2.204002
289,1436182175793,-1.8035797,2.149024,1.9828686
290,1436182175859,-1.9611828,3.3518176,2.2495112
291,1436182175860,-2.2021692,2.9883528,2.7162123
292,1436182175861,-1.720502,0.269697,2.6038132
293,1436182175902,-1.0445796,-0.7654142,1.8112154
294,1436182175903,-0.70188415,-0.10445796,1.0458013
295,1436182175911,0.10751228,1.1646146,0.8216137
296,1436182175931,0.5925393,1.3906348,-0.74067414
297,1436182175951,0.92057395,1.6939293,-1.6780468
298,1436182175971,1.2779301,2.9614747,-2.0796907
299,1436182175991,1.8747455,2.9746084,-2.1798725
300,1436182176011,2.2565362,1.6374242,-2.577546
301,1436182176031,2.6355782,0.86132,-3.2449162
302,1436182176051,2.987131,0.8539896,-3.5604281
303,1436182176071,3.2488868,0.84207773,-3.690237
304,1436182176091,3.5298848,0.39920044,-3.7641516
305,1436182176111,3.6679404,-0.24770586,-3.7739255
306,1436182176131,3.6798522,-0.7901542,-3.7959166
307,1436182176151,3.5344663,-1.2247849,-3.919617
308,1436182176171,3.3698382,-1.8802432,-4.093408
309,1436182176191,3.1713068,-2.6465738,-4.062865
310,1436182176211,2.773023,-3.7977493,-3.706425
311,1436182176235,2.4043655,-4.6050076,-3.143818
312,1436182176255,1.6804903,-4.6196685,-2.0622811
313,1436182176276,0.7330383,-2.9410107,-0.90408057
314,1436182176293,-0.47800204,-0.89827734,0.73761976
315,1436182176311,-0.7012733,0.7492262,2.0751092
316,1436182176331,-1.2211196,-0.044898596,0.46853364
317,1436182176351,-1.6881261,2.257758,3.313333
318,1436182176372,-0.7812967,0.9596693,2.9721649
319,1436182176424,-0.5439755,-1.2592987,3.1685581
320,1436182176425,-0.6398814,-0.514654,2.2220223
321,1436182176436,-0.61941737,-1.1026118,1.7953329
322,1436182176452,-0.537256,-0.42210788,1.4147639
323,1436182176471,-0.22357668,0.6765333,1.1172725
324,1436182176492,-0.046731193,1.0891727,1.0797043
325,1436182176513,-0.027183503,-0.112704635,0.9993755
326,1436182176532,-0.12644911,-0.44012842,0.8527679
327,1436182176551,-0.096516706,-0.49541172,0.7632761
328,1436182176572,-0.06169739,-0.5012149,0.6450737
329,1436182176595,-0.054367006,-0.025961773,0.5699373
330,1436182176612,-0.047647487,0.2669481,0.6236934
331,1436182176631,-0.022907447,0.22418754,0.7806858
332,1436182176655,-0.035124753,-0.11056661,0.80909103
333,1436182176675,-0.08093964,-0.05955936,0.7150178
334,1436182176695,-0.19883664,0.2883284,0.70188415
335,1436182176715,-0.27763826,0.3484986,0.73426
336,1436182176735,-0.33292156,0.41905355,0.8561276
337,1436182176755,-0.35796702,0.40530908,0.95905846
338,1436182176773,-0.37048978,0.36102137,1.0088439
339,1436182176793,-0.41325033,0.41233405,1.0445796
340,1436182176812,-0.50579643,0.5311473,1.1148291
341,1436182176831,-0.5934556,0.66523224,1.2092078
342,1436182176852,-0.77121735,0.75808376,1.3982705
343,1436182176872,-0.98990715,0.68844515,1.740966
344,1436182176892,-1.1407908,0.2938262,1.9694295
345,1436182176912,-1.303281,0.14538592,2.2220223
346,1436182176933,-1.5534303,0.30604348,2.3921483
347,1436182176952,-1.6441438,0.5045747,2.5573874
348,1436182176972,-1.7968601,0.9615019,2.564107
349,1436182176992,-2.0186043,1.7705929,2.3704627
350,1436182177013,-2.2192733,2.8371637,2.2721133
351,1436182177034,-2.2724187,3.5149186,2.5360072
352,1436182177052,-1.758681,1.9813415,2.218968
353,1436182177122,-1.069625,0.2565634,1.2770138
354,1436182177123,-0.73853606,0.106595986,0.9550878
355,1436182177124,-0.02107485,1.2425,0.44226643
356,1436182177132,0.36865717,0.47433686,-1.2965615
357,1436182177158,0.71959925,0.441961,-1.7684549
358,1436182177173,1.1533136,0.93584555,-1.9813415
359,1436182177192,1.6426166,0.3115413,-2.2437081
360,1436182177213,1.8524488,-0.59895337,-2.5686884
361,1436182177234,2.1514673,-0.883922,-3.1771102
362,1436182177254,2.488054,-0.8032878,-3.6783252
363,1436182177273,2.720183,-0.32436943,-4.0173554
364,1436182177295,2.931237,-0.038179077,-4.1248674
365,1436182177313,3.1758883,0.077579886,-4.1163154
366,1436182177333,3.451694,0.017715093,-3.8802161
367,1436182177355,3.5414913,-0.2574797,-3.7012324
368,1436182177373,3.568064,-0.7122689,-3.6129625
369,1436182177395,3.4220672,-1.4462235,-3.554014
370,1436182177415,3.152981,-2.1343632,-3.4031303
371,1436182177435,2.6380215,-2.741258,-3.157257
372,1436182177456,2.068695,-3.4229834,-2.5085182
373,1436182177473,1.6475036,-3.610519,-1.5989398
374,1436182177494,0.6065892,-2.9113839,-0.16126843
375,1436182177513,-0.539394,-0.63713247,1.2516629
376,1436182177534,-0.8350528,0.54641896,1.8961257
377,1436182177554,-1.9156734,0.053145275,0.9990701
378,1436182177573,-1.1701124,3.7363572,3.5482109
379,1436182177592,-0.6954701,-2.3167064,3.1151073
380,1436182177616,-0.48502702,-1.5589281,2.944676
381,1436182177636,-0.7669413,-1.2861768,2.0592268
