id,attr_time,attr_x,attr_y,attr_z
1,1436964110437,-0.005192355,0.029321533,-0.025961773
2,1436964110456,-0.005497787,0.030848695,-0.016493361
3,1436964110476,-0.004581489,0.019547688,-0.0106901415
4,1436964110502,-0.0067195175,0.007941248,-0.019242255
5,1436964110522,-0.01038471,0.007941248,-0.034513887
6,1436964110536,-0.012217305,0.032986723,-0.035430185
7,1436964110556,-0.014049901,0.029321533,-0.031154128
8,1436964110577,-0.0070249503,0.022602014,-0.027794369
9,1436964110596,-0.0125227375,0.015577064,-0.023518313
10,1436964110619,-0.008857546,0.018936822,-0.028099801
11,1436964110638,-0.004276057,0.021991149,-0.034513887
12,1436964110658,-0.0067195175,0.024129177,-0.03726278
13,1436964110678,-0.00580322,0.025350908,-0.039095376
14,1436964110698,-0.006414085,0.018325957,-0.043066
15,1436964110718,-0.004581489,0.021685716,-0.040011674
16,1436964110739,-0.008552114,0.016187929,-0.034208454
17,1436964110759,-0.011911872,0.022907447,-0.027183503
18,1436964110780,-0.0067195175,0.020158553,-0.025045475
19,1436964110799,-0.005192355,0.017715093,-0.028710667
20,1436964110820,-0.008246681,0.024740042,-0.023518313
21,1436964110840,-0.014049901,0.02107485,-0.025350908
22,1436964110859,-0.003970624,0.02107485,-0.03145956
23,1436964110880,-0.0036651916,0.025961773,-0.03573562
24,1436964110900,-0.0015271631,0.032375857,-0.032070424
25,1436964110917,0.0021380284,0.027183503,-0.03023783
26,1436964110940,0.0009162979,0.03176499,-0.034208454
27,1436964110957,-0.009468411,0.027794369,-0.022907447
28,1436964110979,-0.0036651916,0.023518313,-0.024129177
29,1436964110997,-0.0067195175,0.026267206,-0.029626964
30,1436964111021,-0.00580322,0.028710667,-0.0290161
31,1436964111041,-0.003970624,0.03604105,-0.03634648
32,1436964111061,-0.0030543262,0.032375857,-0.03481932
33,1436964111080,-0.0076358155,0.028099801,-0.02565634
34,1436964111097,-0.01038471,0.029932396,-0.025350908
35,1436964111152,-0.0076358155,0.028710667,-0.026267206
36,1436964111153,-0.0036651916,0.026572637,-0.03268129
37,1436964111325,-0.0012217305,0.02565634,-0.027794369
38,1436964111326,-0.00580322,0.029626964,-0.02565634
39,1436964111327,-0.009468411,0.025045475,-0.02321288
40,1436964111328,-0.009162978,0.023518313,-0.02565634
41,1436964111329,-0.0030543262,0.019547688,-0.027183503
42,1436964111330,-0.004276057,0.01985312,-0.027183503
43,1436964111331,-0.005192355,0.023823744,-0.032070424
44,1436964111332,-0.002443461,0.032986723,-0.02565634
45,1436964111333,-0.009162978,0.025045475,-0.016493361
46,1436964111347,-0.010079277,0.010079277,-0.020158553
47,1436964111357,-0.0021380284,0.013133603,-0.033292156
48,1436964111378,-0.002443461,0.0290161,-0.04062254
49,1436964111397,-0.006414085,0.03359759,-0.03390302
50,1436964111422,-0.0027488936,0.029932396,-0.026267206
51,1436964111438,0.004276057,0.033292156,-0.023823744
52,1436964111458,0.0036651916,0.02565634,-0.029626964
53,1436964111478,-0.00030543262,0.027488936,-0.027183503
54,1436964111500,-0.004581489,0.02565634,-0.027183503
55,1436964111520,-0.003970624,0.028405234,-0.025045475
56,1436964111540,0.0027488936,0.029932396,-0.025045475
57,1436964111560,0.0030543262,0.03268129,-0.024129177
58,1436964111580,0.0009162979,0.036957346,-0.024740042
59,1436964111600,0.002443461,0.037873644,-0.022907447
60,1436964111620,-0.00030543262,0.03940081,-0.022907447
61,1436964111640,-0.004886922,0.03756821,-0.02107485
62,1436964111658,-0.012217305,0.03848451,-0.01160644
63,1436964111680,-0.01282817,0.031154128,-0.015882496
64,1436964111700,-0.003970624,0.028099801,-0.02565634
65,1436964111719,0.00030543262,0.03145956,-0.030543262
66,1436964111740,0.0012217305,0.03023783,-0.028099801
67,1436964111760,-0.00580322,0.024740042,-0.024129177
68,1436964111781,-0.002443461,0.02687807,-0.02443461
69,1436964111801,0.003970624,0.029626964,-0.0290161
70,1436964111819,0.004581489,0.024129177,-0.03481932
71,1436964111840,-0.0021380284,0.022296581,-0.032375857
72,1436964111870,-0.0061086523,0.032070424,-0.026267206
73,1436964111883,-0.005497787,0.028099801,-0.02565634
74,1436964111900,-0.0030543262,0.022602014,-0.031154128
75,1436964111920,-0.0070249503,0.023823744,-0.021380283
76,1436964111938,-0.007941248,0.02321288,-0.020158553
77,1436964111958,-0.0070249503,0.03268129,-0.020158553
78,1436964111978,-0.012217305,0.032986723,-0.017715093
79,1436964112059,-0.0027488936,0.02565634,-0.02076942
80,1436964112060,-0.0076358155,0.02565634,-0.018325957
81,1436964112061,-0.0143553335,0.028099801,-0.014049901
82,1436964112062,-0.012217305,0.025045475,-0.01740966
83,1436964112078,-0.01740966,0.030848695,-0.014049901
84,1436964112099,-0.024129177,0.022296581,0.0027488936
85,1436964112117,-0.014049901,-0.021380283,0.04734206
86,1436964112145,-0.01282817,0.0036651916,0.077579886
87,1436964112158,-0.036957346,-0.08032878,0.15393804
88,1436964112179,-0.07147124,-0.13439035,0.23182335
89,1436964112206,-0.1282817,-0.17501289,0.2751948
90,1436964112218,-0.18203785,-0.23396139,0.40622538
91,1436964112238,-0.24709499,-0.30634892,0.5699373
92,1436964112259,-0.24678956,-0.45356745,0.59895337
93,1436964112280,-0.16890424,-0.48288897,0.5488624
94,1436964112301,-0.11301007,-0.3662137,0.43860126
95,1436964112321,-0.0720821,-0.21533,0.33475417
96,1436964112341,-0.01160644,-0.056505036,0.23090707
97,1436964112361,0.052534413,0.009162978,0.15393804
98,1436964112379,0.095294975,0.023823744,0.124005646
99,1436964112400,0.10323623,-0.103847094,0.103847094
100,1436964112421,0.102319926,-0.20097467,0.09101892
101,1436964112438,0.1469131,-0.20219639,0.12217305
102,1436964112460,0.20250183,-0.25228736,0.16523905
103,1436964112480,0.30818152,-0.23335053,0.1872302
104,1436964112500,0.38148534,-0.19303341,0.17287487
105,1436964112519,0.35430184,-0.13805555,0.160963
106,1436964112541,0.2501493,-0.08552113,0.13805555
107,1436964112560,0.19517145,0.057421334,0.07696902
108,1436964112580,0.17379116,0.2864958,0.10629055
109,1436964112601,0.13347405,0.34697145,0.17165314
110,1436964112619,0.07696902,0.25473082,0.18142697
111,1436964112640,0.020463986,0.12950343,0.12767084
112,1436964112660,-0.056199603,0.23060162,0.04734206
113,1436964112679,-0.09254608,0.50732356,0.045814894
114,1436964112702,-0.102319926,0.6197228,0.12064589
115,1436964112763,-0.094989546,0.4896085,0.16646078
116,1436964112764,-0.089186326,0.28527406,0.23823744
117,1436964112765,-0.098043874,0.25900686,0.30970868
118,1436964112784,-0.096516706,0.42302418,0.40622538
119,1436964112799,-0.12614368,0.43004912,0.5564982
120,1436964112818,-0.16707164,0.25320363,0.68233645
121,1436964112838,-0.18020524,0.13713925,0.70249504
122,1436964112858,-0.19303341,0.21838433,0.77549344
123,1436964112880,-0.22571471,0.29229903,0.83108217
124,1436964112900,-0.25167647,0.13164146,0.8396343
125,1436964112919,-0.31581733,0.02076942,0.84513205
126,1436964112939,-0.3924809,0.0888809,0.8961393
127,1436964112961,-0.45723262,0.3042109,0.94806284
128,1436964112979,-0.5366451,0.33475417,1.0445796
129,1436964113002,-0.6591236,0.39828414,1.17897
130,1436964113022,-0.80848014,0.64476824,1.2996159
131,1436964113042,-1.0626001,0.89461213,1.4483615
132,1436964113062,-1.1704178,0.86498517,1.6215417
133,1436964113079,-1.2907583,0.81306165,1.7385225
134,1436964113100,-1.4587462,1.2113458,1.8084666
135,1436964113122,-1.6151277,1.7366899,1.8170186
136,1436964113142,-1.6077974,2.1154263,2.118786
137,1436964113166,-1.4944818,1.4486669,2.5986207
138,1436964113180,-1.2223413,0.01038471,2.8567114
139,1436964113199,-0.8872818,-1.3426818,2.2262983
140,1436964113221,-0.874759,-0.9275989,1.8463402
141,1436964113238,-0.4373795,-0.768163,1.1478158
142,1436964113259,0.11942416,-0.1572978,0.22937989
143,1436964113279,0.24251351,0.18570304,-1.2003502
144,1436964113301,0.55680364,0.8762862,-2.889698
145,1436964113322,0.7067711,1.9410243,-2.6914723
146,1436964113342,1.0751228,1.8713857,-2.5017986
147,1436964113362,1.65911,1.0054842,-3.4132094
148,1436964113379,1.9578232,0.3539964,-4.3924265
149,1436964113400,2.076331,0.6612616,-4.7268753
150,1436964113429,2.244319,0.95203346,-5.1639495
151,1436964113486,2.4966063,0.6072,-5.4116554
152,1436964113487,2.6774223,-0.3933972,-5.7036486
153,1436964113488,2.8215866,-1.3857478,-5.8963766
154,1436964113509,2.948952,-1.7253889,-5.6743274
155,1436964113519,2.5277603,-1.72264,-5.3771415
156,1436964113540,2.3866506,-1.5815301,-4.379904
157,1436964113560,1.6261233,-1.6242907,-2.4758368
158,1436964113579,0.34330627,-0.25778514,-1.3420709
159,1436964113601,-0.6386596,1.5253305,0.41172317
160,1436964113619,-1.3362677,2.3759604,2.7351491
161,1436964113642,-1.0204504,2.1013765,3.2888985
162,1436964113663,-0.2764165,-0.64476824,1.8579466
163,1436964113681,-1.251052,-1.7953329,0.75533485
164,1436964113699,-0.44868052,2.4572055,4.0301833
165,1436964113722,0.26542094,-3.3438764,2.7473664
166,1436964113742,0.344528,-4.1383066,1.7950275
167,1436964113762,0.27458394,-1.9694295,1.8225164
168,1436964113780,-0.1572978,0.14569137,1.8603901
169,1436964113800,-0.15851954,0.09865474,1.2385293
170,1436964113822,-0.007330383,0.5849035,0.75686204
171,1436964113842,0.024740042,0.8240572,1.044885
172,1436964113862,-0.0125227375,0.3155119,1.0589349
173,1436964113881,-0.10415252,-0.14721853,0.79137594
174,1436964113900,-0.040317107,-0.074830994,0.6206391
175,1436964113922,-0.01740966,0.28496864,0.57787853
176,1436964113942,-0.004886922,0.37598756,0.6374379
177,1436964113961,0.018020526,0.3555236,0.6585127
178,1436964113980,-0.009773844,0.22968534,0.61911196
179,1436964114000,-0.043676864,0.30879238,0.6432411
180,1436964114023,-0.03359759,0.4718934,0.7296785
181,1436964114043,-0.015577064,0.46273044,0.79779
182,1436964114059,-0.0125227375,0.3915646,0.89766645
183,1436964114079,-0.020158553,0.41386122,1.0079277
184,1436964114099,-0.081855945,0.5183192,1.1569787
185,1436964114119,-0.2706133,0.50732356,1.457219
186,1436964114139,-0.47250426,0.376293,1.7996091
187,1436964114160,-0.59712076,0.2519819,2.0992384
188,1436964114189,-0.8213083,0.160963,2.3066273
189,1436964114227,-1.0543534,0.07971791,2.5066855
190,1436964114228,-1.2699889,0.20738874,2.6340508
191,1436964114245,-1.4773777,0.6704246,2.6823094
192,1436964114274,-1.7095064,1.0482447,2.5237896
193,1436964114287,-1.6942347,2.1569653,2.037541
194,1436964114307,-1.4767667,4.5146,2.1887302
195,1436964114323,-1.6166549,4.5701885,3.1062498
196,1436964114340,-1.7599027,1.278541,2.8667905
197,1436964114360,-1.5693128,-1.3787229,2.2983804
198,1436964114384,-0.43554693,-1.6136005,1.0858129
199,1436964114402,0.29993483,-0.6087272,-0.05222898
200,1436964114421,0.26939157,0.24831672,-1.5522085
201,1436964114441,0.68416905,0.6921103,-3.0723467
202,1436964114461,0.7654142,0.6206391,-3.0411925
203,1436964114481,1.073901,0.22296582,-3.0757065
204,1436964114501,1.5488489,-0.3576616,-4.085467
205,1436964114522,1.8585575,-0.30848694,-5.329799
206,1436964114543,2.1218405,1.0619892,-5.765346
207,1436964114562,2.6499333,2.1633792,-5.9040127
208,1436964114581,3.2308662,2.1230621,-5.9858685
209,1436964114604,3.737579,1.0998629,-5.912259
210,1436964114622,3.79836,-0.43554693,-5.6737165
211,1436964114643,3.3221905,-1.6093245,-5.1633387
212,1436964114663,2.9104674,-2.4834726,-4.1636577
213,1436964114681,2.2495112,-4.1444154,-2.7229319
214,1436964114706,1.1447614,-3.8240163,-1.3439035
215,1436964114725,-0.2669481,-1.0650436,0.33353242
216,1436964114745,-0.8750645,-0.007330383,2.2174408
217,1436964114764,-1.0412198,0.41996986,3.449556
218,1436964114780,-0.47952923,-0.36285394,1.4624114
219,1436964114801,-0.9315695,-1.1187997,0.5564982
220,1436964114821,-1.0170907,3.1758883,4.3041563
221,1436964114846,0.19853121,-2.0977113,2.8325822
222,1436964114865,0.30970868,-3.8179078,1.9883664
223,1436964114884,0.52687126,-2.2583687,2.0882428
224,1436964114903,-0.10842858,-0.4886922,1.8719965
225,1436964114923,-0.10842858,-0.48899764,1.4101825
226,1436964114991,-0.13775012,0.3295618,1.0354166
227,1436964114992,-0.13622294,0.8240572,0.8903361
228,1436964114993,-0.090713486,0.7480045,1.0186177
229,1436964115000,-0.04428773,0.051923547,0.91538155
230,1436964115027,0.032986723,-0.1572978,0.7266242
231,1436964115043,0.081855945,-0.003970624,0.5714644
232,1436964115061,0.11484267,0.30482176,0.52595496
233,1436964115080,0.18325958,0.3979787,0.5626069
234,1436964115105,0.19456059,0.2950479,0.58276546
235,1436964115124,0.18936823,0.16554448,0.53023106
236,1436964115141,0.17684549,0.27488935,0.50854534
237,1436964115163,0.17256944,0.643852,0.5992588
238,1436964115182,0.1133155,0.9251554,0.75502944
239,1436964115206,-0.039095376,0.85154617,1.1117748
240,1436964115223,-0.24587326,0.48197266,1.4724907
241,1436964115243,-0.43860126,0.1282817,1.7330247
242,1436964115262,-0.6649268,0.2003638,1.9666806
243,1436964115283,-0.9819659,0.52534413,2.255009
244,1436964115305,-1.328021,0.6096435,2.6337454
245,1436964115323,-1.4963144,0.33567044,2.8588493
246,1436964115344,-1.8897116,0.23823744,2.931237
247,1436964115363,-2.1084013,0.9324858,2.5286767
248,1436964115384,-1.9422461,3.061351,2.3558018
249,1436964115405,-1.8014416,4.6282206,2.5027149
250,1436964115421,-1.892766,3.3906076,2.9743028
251,1436964115442,-1.9120082,-0.14355333,2.8188376
252,1436964115460,-1.4199562,-2.2595906,1.9226984
253,1436964115484,0.087659165,-2.269059,0.8723156
254,1436964115504,0.21685717,-0.79351395,-0.376293
255,1436964115523,0.29260445,-0.046120327,-2.7134633
256,1436964115544,0.4465425,0.9798279,-3.6596937
257,1436964115562,0.45723262,1.0231993,-3.3053918
258,1436964115583,0.9947941,0.44990227,-3.4144313
259,1436964115601,1.4859297,-0.93554014,-4.5497246
260,1436964115623,1.7208074,-1.0574077,-5.6767707
261,1436964115643,2.117259,-0.21746802,-6.1785965
262,1436964115722,2.7177396,1.1267409,-6.5591655
263,1436964115723,3.5097263,1.7125608,-6.5500026
264,1436964115724,4.0463715,1.3219124,-6.243959
265,1436964115725,3.9477167,0.40775254,-5.359426
266,1436964115743,3.5460727,-1.2589933,-4.666705
267,1436964115763,2.9571986,-2.21683,-4.065308
268,1436964115781,1.706452,-2.5097399,-2.271808
269,1436964115806,0.24037547,-0.9138544,0.124311075
270,1436964115821,-0.5317582,0.64476824,1.822211
271,1436964115846,-1.1291844,0.981355,3.486208
272,1436964115862,-0.4596761,0.09865474,2.4593434
273,1436964115885,-1.0122037,-2.5143213,0.64873886
274,1436964115907,-1.2513574,1.2003502,3.9370265
275,1436964115924,0.1863139,-1.6685784,3.1493158
276,1436964115944,0.51159966,-5.416237,2.2782218
277,1436964115965,0.45173484,-4.1960335,2.2073615
278,1436964115985,-0.18570304,-2.3182335,1.9611828
279,1436964116005,-0.34972036,-0.5112942,1.4504995
280,1436964116025,-0.23457226,1.3005321,0.6649268
281,1436964116044,-0.20708331,1.72264,0.70524395
282,1436964116065,-0.20463985,1.2040154,1.2183707
283,1436964116083,-0.10842858,-0.008246681,1.0848967
284,1436964116104,-0.019242255,-0.40530908,0.7797695
285,1436964116125,-0.018020526,-0.27916542,0.70096785
286,1436964116144,0.012217305,-0.008552114,0.61850107
287,1436964116278,0.08399397,0.08827003,0.6114761
288,1436964116283,0.09437868,0.34300083,0.5684101
289,1436964116284,0.070554934,0.5131268,0.52687126
290,1436964116289,0.060170226,0.57940567,0.6258314
291,1436964116290,0.059253927,0.6542367,0.7519751
292,1436964116291,0.016493361,0.58093286,0.88331115
293,1436964116292,-0.109650314,0.56016344,1.2357804
294,1436964116436,-0.31398472,0.43035457,1.6337591
295,1436964116437,-0.43676865,0.086437434,1.8274034
296,1436964116438,-0.66706485,-0.029321533,1.9947804
297,1436964116448,-0.95325524,-0.06627888,2.283109
298,1436964116449,-1.1597277,0.13500121,2.454762
299,1436964116450,-1.2944235,0.36713,2.5503623
300,1436964116451,-1.4853189,0.60231316,2.69697
301,1436964116452,-1.7458528,1.0567969,2.6258042
302,1436964116484,-1.8753563,1.559539,2.4749205
303,1436964116485,-1.5366315,2.5427265,2.2482896
304,1436964116526,-1.5421293,4.160298,2.638327
305,1436964116527,-1.4541647,2.9345965,3.076012
306,1436964116550,-1.4929546,0.7696902,2.5689938
307,1436964116567,-0.9263771,-1.2131784,1.7742581
308,1436964116582,0.08827003,-0.2565634,0.9285152
309,1436964116601,0.33414328,0.11881329,-1.0302242
310,1436964116621,0.9184359,0.4783075,-3.0002646
311,1436964116642,1.1490375,0.73548174,-3.3111951
312,1436964116663,1.3093897,0.3417791,-3.062573
313,1436964116685,1.7650951,-0.6407976,-3.6554177
314,1436964116705,2.039679,-1.1624765,-4.6025643
315,1436964116725,2.3051,-0.6563747,-5.601023
316,1436964116745,2.6267207,0.84665924,-5.993199
317,1436964116762,3.0665436,1.7712038,-6.252206
318,1436964116781,3.4330628,1.3997977,-6.2803054
319,1436964116802,3.7006216,0.42241332,-5.839261
320,1436964116825,3.4938438,-1.3423764,-5.05155
321,1436964116845,3.40649,-2.424524,-4.5152106
322,1436964116865,2.5625796,-3.1080823,-3.0402763
323,1436964116883,1.2339478,-3.4196236,-1.5176947
324,1436964116902,-0.049785517,-1.5632042,-0.6169739
325,1436964116923,-0.9416488,-0.3555236,2.4397957
326,1436964116943,-1.2125676,0.8436049,3.6560285
327,1436964116963,-0.8335256,0.09407325,1.568091
328,1436964116987,-1.7308867,-0.9868528,1.6249015
329,1436964117007,-0.29749137,3.415653,4.59615
330,1436964117027,0.37843102,-3.4855971,3.0192015
331,1436964117044,0.3744604,-4.477337,2.2876904
332,1436964117062,-0.025961773,-2.6529877,2.1972823
333,1436964117081,-0.2910773,-0.62949663,1.59558
334,1436964117102,-0.18203785,0.01740966,1.0238101
335,1436964117124,-0.24495697,1.2699889,0.8029824
336,1436964117144,-0.28099802,1.1420126,1.0888673
337,1436964117162,-0.21533,0.2144137,0.98899084
338,1436964117185,-0.106901415,-0.2312125,0.74464476
339,1436964117204,-0.017715093,-0.08674286,0.5861252
340,1436964117227,0.04642576,0.038179077,0.5137377
341,1436964117246,0.0870483,0.0070249503,0.5006041
342,1436964117263,0.1282817,0.10445796,0.45723262
343,1436964117288,0.12767084,0.25595254,0.37140608
344,1436964117306,0.112704635,0.47678033,0.36071593
345,1436964117326,0.07727446,0.8863655,0.52595496
346,1436964117346,0.0,1.0439687,0.77182823
347,1436964117366,-0.1554652,0.89980453,1.3225232
348,1436964117386,-0.3567453,0.37232238,1.8854356
349,1436964117406,-0.44929138,-0.28619036,2.0674734
350,1436964117426,-0.57971114,-0.37934732,2.0448713
351,1436964117446,-0.82802784,-0.026572637,2.3316727
352,1436964117467,-1.0054842,0.44073927,2.5460863
353,1436964117483,-1.2318097,0.37110063,2.581822
354,1436964117505,-1.450805,0.31429017,2.6151142
355,1436964117526,-1.6166549,0.6026186,2.6013696
356,1436964117546,-1.7244726,1.4410311,2.3976462
357,1436964117565,-1.3500122,2.6532931,2.2736404
358,1436964117586,-1.4972308,4.3854017,2.978579
359,1436964117606,-1.5155567,2.9969049,3.218038
360,1436964117626,-1.3921618,0.8979719,2.1572707
361,1436964117646,-0.6918049,-0.91629785,1.570229
362,1436964117669,0.13408493,0.17501289,0.7867944
363,1436964117687,0.36682457,0.22021692,-1.3808609
364,1436964117706,0.9966267,-0.08032878,-3.2940907
365,1436964117727,1.087951,0.28527406,-3.138931
366,1436964117752,1.318858,0.019242255,-2.8005116
367,1436964117763,1.7305813,-0.86009824,-3.8472292
368,1436964117809,1.9639318,-1.0906999,-4.96328
369,1436964117810,2.2269092,-0.09590584,-5.592777
370,1436964117834,2.4840834,1.3154984,-5.885687
371,1436964117843,2.8127291,1.3313808,-6.333451
372,1436964117874,3.0833423,0.55833083,-6.445239
373,1436964117884,3.2937853,-0.2275473,-6.102849
374,1436964117905,3.2717943,-1.5109752,-5.3227744
375,1436964117925,3.1630602,-1.9025398,-4.8096476
376,1436964117944,2.4162774,-3.042109,-3.2339206
377,1436964117967,1.2647965,-3.3539557,-1.6493362
378,1436964117987,0.056199603,-0.9147707,-0.5723807
379,1436964118004,-0.8784242,0.09437868,2.1670444
380,1436964118023,-1.3836098,1.2162327,3.9865067
381,1436964118047,-1.0595458,0.3475823,3.1881058
382,1436964118067,-0.67073005,-1.6505579,0.057726767
383,1436964118087,-1.5796975,3.1334333,3.3551774
384,1436964118107,-0.2883284,-0.5552765,4.0640864
385,1436964118127,0.4596761,-4.397008,2.0143282
386,1436964118148,0.5183192,-3.1923819,2.4831672
387,1436964118167,0.40744713,-1.7052304,2.0201313
388,1436964118186,-0.1826487,-0.77091193,1.7922786
389,1436964118207,-0.41141775,0.30634892,1.1441506
390,1436964118224,-0.2773328,1.5534303,0.5112942
391,1436964118247,-0.18081611,1.1774428,0.79412484
