id,attr_time,attr_x,attr_y,attr_z
1,1437228625029,0.114716,0.0177612,0.0888367
2,1437228625052,0.0239258,0.118164,-0.0233154
3,1437228625069,-0.0743408,0.128845,-0.0510864
4,1437228625088,-0.0476379,0.0765076,0.0354309
5,1437228625109,0.0388794,0.0935974,0.0931091
6,1437228625128,0.0986938,0.0498047,0.124084
7,1437228625149,0.184143,0.0508728,0.230896
8,1437228625168,0.211914,0.108551,0.271484
9,1437228625185,0.215118,0.0134888,0.322754
10,1437228625207,0.263184,0.025238,0.280029
11,1437228625227,0.124329,0.107483,0.301392
12,1437228625247,-0.119202,0.0562134,0.224487
13,1437228625267,-0.305054,0.043396,0.171082
14,1437228625286,-0.306122,0.0722351,0.176422
15,1437228625306,-0.148041,0.0946655,0.200989
16,1437228625328,0.116852,0.109619,0.238373
17,1437228625346,0.332611,0.128845,0.284302
18,1437228625366,0.355042,0.13739,0.265076
19,1437228625386,0.286682,0.182251,0.222351
20,1437228625406,0.23114,0.203613,0.195648
21,1437228625427,0.0709228,0.222839,0.153992
22,1437228625445,-0.200378,0.247406,0.0834961
23,1437228625463,-0.456726,0.220703,0.00872803
24,1437228625484,-0.538971,0.214294,-0.00836182
25,1437228625503,-0.409729,0.204681,0.0418396
26,1437228625524,-0.230286,0.218567,0.105927
27,1437228625543,-0.0198669,0.259155,0.170013
28,1437228625563,0.130737,0.246338,0.205261
29,1437228625583,0.149963,0.239929,0.203125
30,1437228625603,0.0762634,0.234589,0.204193
31,1437228625623,0.0559692,0.248474,0.207397
32,1437228625643,0.0367432,0.274109,0.222351
33,1437228625662,0.0367432,0.270905,0.25119
34,1437228625683,0.00149536,0.216431,0.257599
35,1437228625703,-0.0647278,0.135254,0.240509
36,1437228625718,-0.127747,0.0733032,0.198853
37,1437228625739,-0.144836,0.123505,0.191376
38,1437228625759,-0.134155,0.192932,0.199921
39,1437228625779,-0.153381,0.254883,0.178558
40,1437228625799,-0.198242,0.281586,0.153992
41,1437228625819,-0.32962,0.270905,0.111267
42,1437228625838,-0.339233,0.265564,0.092041
43,1437228625858,-0.209991,0.251678,0.108063
44,1437228625878,-0.101044,0.198273,0.0963135
45,1437228625898,-0.0796814,0.164093,0.0653381
46,1437228625917,-0.12561,0.100006,0.0130005
47,1437228625940,-0.197174,0.0658264,-0.0393372
48,1437228625959,-0.21106,0.061554,-0.0393372
49,1437228625979,-0.143768,0.0562134,-0.0339966
50,1437228625999,-0.0166626,0.0797119,-0.010498
51,1437228626021,0.0196533,0.0754395,-0.0126343
52,1437228626038,0.0132446,0.0604858,-0.0510864
53,1437228626058,0.00469971,0.0401917,-0.084198
54,1437228626078,-0.0316162,0.015625,-0.121582
55,1437228626095,-0.0700684,-0.00787353,-0.149353
56,1437228626120,-0.110657,-0.0110779,-0.163239
57,1437228626136,-0.115997,0.00708008,-0.172852
58,1437228626157,-0.109589,0.0134888,-0.169647
59,1437228626177,-0.105316,0.0113525,-0.177124
60,1437228626196,-0.0839539,0.0198975,-0.180328
61,1437228626219,-0.0892944,0.0316467,-0.169647
62,1437228626237,-0.0732727,0.0401917,-0.146149
63,1437228626256,-0.0380249,0.0466003,-0.104492
64,1437228626275,0.0292664,0.0241699,-0.0500183
65,1437228626296,0.0687866,0.00708008,-0.00622559
66,1437228626314,0.026062,0.0017395,0.0194092
67,1437228626335,-0.0027771,-0.00894165,0.0375671
68,1437228626356,-0.0145264,-0.0228271,0.0567932
69,1437228626374,-0.011322,-0.0377808,0.0717468
70,1437228626397,-0.0422974,-0.0345764,0.0760193
71,1437228626414,-0.0839539,-0.0452576,0.0770874
72,1437228626434,-0.0860901,-0.0473938,0.0813599
73,1437228626453,-0.0828857,-0.021759,0.0995178
74,1437228626474,-0.0807495,0.00708008,0.110199
75,1437228626496,-0.104248,0.033783,0.105927
76,1437228626513,-0.105316,0.0444641,0.0867004
77,1437228626533,-0.113861,0.053009,0.0599976
78,1437228626553,-0.151245,0.0626221,0.0236816
79,1437228626573,-0.187561,0.061554,-0.0115662
80,1437228626593,-0.200378,0.0551453,-0.0414734
81,1437228626612,-0.206787,0.0722351,-0.0639038
82,1437228626631,-0.218536,0.0775757,-0.0735168
83,1437228626652,-0.282623,0.0604858,-0.118378
84,1437228626672,-0.279419,0.0594177,-0.135468
85,1437228626692,-0.249512,0.0668945,-0.155762
86,1437228626712,-0.259125,0.0572815,-0.170715
87,1437228626729,-0.285828,0.0540771,-0.180328
88,1437228626750,-0.239899,0.0369873,-0.174988
89,1437228626770,-0.0999756,0.061554,-0.141876
90,1437228626791,-0.00918579,0.0700989,-0.115173
91,1437228626810,-0.0187988,0.0668945,-0.103424
92,1437228626830,-0.0284119,0.0369873,-0.10022
93,1437228626849,0.00683594,0.0145569,-0.0788574
94,1437228626869,0.0751953,0.015625,-0.0606995
95,1437228626893,0.138214,0.0188293,-0.0478821
96,1437228626909,0.136078,0.0348511,-0.0639038
97,1437228626929,0.0292664,0.0134888,-0.0799255
98,1437228626948,-0.0412292,-0.0270996,-0.0959473
99,1437228626968,-0.00384521,-0.0591431,-0.0852661
100,1437228626989,0.0378113,-0.0527344,-0.0542908
101,1437228627008,0.0420837,-0.0431213,-0.019043
102,1437228627028,0.0228577,-0.0292358,0.00125122
103,1437228627045,-0.0166626,-0.0335083,0.00979614
104,1437228627068,-0.0358887,-0.0324402,0.0258179
105,1437228627089,-0.02948,-0.04953,0.0429077
106,1437228627107,-0.0305481,-0.0484619,0.0557251
107,1437228627127,-0.0198669,-0.0324402,0.06427
108,1437228627147,-0.0262756,-0.0238953,0.054657
109,1437228627166,-0.0220032,-0.0164185,0.0439758
110,1437228627186,-0.0220032,-0.0238953,0.036499
111,1437228627205,-0.00918579,-0.021759,0.0172729
112,1437228627225,-0.0252075,-0.0110779,0.00552368
113,1437228627246,-0.02948,0.000671387,0.00231934
114,1437228627264,-0.0145264,0.025238,0.00552368
115,1437228627287,-0.0145264,0.0348511,0.0130005
116,1437228627305,-0.011322,0.0177612,0.00338745
117,1437228627325,0.0185852,0.015625,0.0108643
118,1437228627345,0.0196533,0.0113525,0.00125122
119,1437228627363,-0.0145264,-0.000396729,-0.00836182
120,1437228627386,-0.00170898,0.00814819,-0.00622559
121,1437228627403,0.00576782,0.00387573,-0.00195312
122,1437228627424,0.00149536,-0.00894165,-0.010498
123,1437228627443,0.000427246,-0.00466919,-0.0201111
124,1437228627463,-0.00598145,0.0231018,-0.0254517
125,1437228627484,0.000427246,0.0263062,-0.0222473
126,1437228627502,0.0100403,0.015625,-0.0297241
127,1437228627522,0.0217896,0.00708008,-0.0265198
128,1437228627542,0.0281982,-0.000396729,-0.028656
129,1437228627564,0.00897217,-0.00787353,-0.0233154
130,1437228627581,0.00363159,-0.0174866,-0.0297241
131,1437228627602,0.00683594,0.0134888,-0.019043
132,1437228627621,0.0271301,0.0241699,-0.00622559
133,1437228627641,0.00363159,0.0166931,-0.00622559
134,1437228627735,0.000427246,0.0017395,-0.010498
135,1437228627736,0.00576782,-0.0153503,-0.00622559
136,1437228627737,-0.00918579,-0.0228271,-0.0179749
137,1437228627738,-0.0455017,-0.0238953,-0.0222473
138,1437228627739,-0.0444336,-0.0270996,-0.0201111
139,1437228627762,-0.0155945,-0.021759,0.00338745
140,1437228627779,-0.0316162,-0.0335083,0.00872803
141,1437228627799,-0.0487061,-0.0335083,0.00979614
142,1437228627819,-0.0519104,-0.0228271,0.0108643
143,1437228627839,-0.0818176,-0.0249634,-0.00195312
144,1437228627857,-0.121338,-0.0377808,-0.019043
145,1437228627878,-0.140564,-0.0452576,-0.0318604
146,1437228627898,-0.19397,-0.0634155,-0.0457458
147,1437228627918,-0.200378,-0.0826416,-0.0542908
148,1437228627938,-0.152313,-0.058075,-0.0307922
149,1437228627958,-0.136292,-0.0644836,-0.0297241
150,1437228627978,-0.1427,-0.0516663,-0.038269
151,1437228627996,-0.12561,-0.0356445,-0.0275879
152,1437228628017,-0.0839539,-0.0270996,-0.0158386
153,1437228628036,-0.00598145,-0.0057373,0.0130005
154,1437228628059,0.026062,-0.0057373,0.0300903
155,1437228628077,-0.00704956,0.0177612,0.0151367
156,1437228628096,-0.0455017,0.0166931,0.0258179
157,1437228628116,-0.0102539,-0.00253296,0.026886
158,1437228628136,-0.00918579,-0.0153503,0.0226135
159,1437228628158,-0.0252075,-0.0142822,0.0172729
160,1437228628174,-0.0401611,-0.0100098,0.0247498
161,1437228628195,-0.0508423,-0.00680542,0.0247498
162,1437228628214,-0.0123901,0.0017395,0.0439758
163,1437228628235,0.0303345,0.00814819,0.0535889
164,1437228628257,0.0271301,0.025238,0.054657
165,1437228628274,0.0239258,0.0359192,0.0514526
166,1437228628294,0.0399475,0.025238,0.0471802
167,1437228628313,0.0324707,0.0145569,0.0332947
168,1437228628334,0.026062,-0.000396729,0.0183411
169,1437228628353,0.00897217,-0.00360107,-0.00408936
170,1437228628374,-0.0241394,-0.0174866,-0.0339966
171,1437228628393,-0.0422974,-0.030304,-0.0628357
172,1437228628413,-0.0348206,-0.0345764,-0.0735168
173,1437228628433,-0.00170898,-0.0270996,-0.0788574
174,1437228628455,0.016449,-0.0100098,-0.0724487
175,1437228628472,0.0111084,0.00280762,-0.0671082
176,1437228628490,0.0207214,0.00601196,-0.0457458
177,1437228628511,0.0335388,0.00708008,-0.0158386
178,1437228628530,0.0249939,0.00708008,0.00872803
179,1437228628554,-0.000640869,0.0220337,0.0300903
180,1437228628571,0.00683594,0.0444641,0.0503845
181,1437228628591,0.0185852,0.061554,0.0578613
182,1437228628611,0.00469971,0.0519409,0.0599976
183,1437228628630,0.0132446,0.015625,0.0503845
184,1437228628650,0.0516968,-0.00360107,0.0503845
185,1437228628670,0.0484924,-0.0409851,0.0493164
186,1437228628692,0.0324707,-0.0644836,0.0471802
187,1437228628710,0.035675,-0.0740967,0.0471802
188,1437228628730,0.0346069,-0.0634155,0.054657
189,1437228628749,0.00576782,-0.0356445,0.054657
190,1437228628769,-0.0252075,-0.0132141,0.0429077
191,1437228628789,-0.039093,-0.00787353,0.0258179
192,1437228628807,-0.0230713,-0.00787353,0.00765991
193,1437228628828,-0.00384521,-0.00146484,-0.0115662
194,1437228628847,-0.00598145,0.00494385,-0.0350647
195,1437228628867,0.00683594,0.0134888,-0.0414734
196,1437228628890,0.0271301,0.00921631,-0.0393372
197,1437228628908,0.00897217,-0.00680542,-0.046814
198,1437228628927,-0.00598145,-0.00787353,-0.0425415
199,1437228628947,-0.0252075,-0.00146484,-0.0350647
200,1437228628967,-0.0358887,-0.00466919,-0.0361328
201,1437228628989,-0.0551147,-0.0228271,-0.038269
202,1437228629007,-0.0529785,-0.0281677,-0.0489502
203,1437228629027,-0.0369568,-0.0153503,-0.0425415
204,1437228629046,-0.00704956,0.0220337,-0.0318604
205,1437228629066,0.0100403,0.0327148,-0.0179749
206,1437228629088,0.00790405,0.0188293,-0.0243835
207,1437228629105,0.00897217,0.00280762,-0.0275879
208,1437228629124,0.00149536,-0.0057373,-0.0339966
209,1437228629145,0.0121765,-0.00680542,-0.0307922
210,1437228629164,0.0271301,0.0134888,-0.0201111
211,1437228629184,0.0153809,0.0134888,-0.010498
212,1437228629204,0.00469971,0.00280762,-0.0072937
213,1437228629224,0.0217896,-0.0100098,0.0065918
214,1437228629244,0.0207214,-0.00466919,0.0162048
215,1437228629264,-0.00384521,-0.0110779,0.0258179
216,1437228629284,0.00149536,-0.012146,0.0151367
217,1437228629303,-0.00811768,0.000671387,0.0183411
218,1437228629323,-0.00598145,-0.012146,0.0065918
219,1437228629342,-0.000640869,-0.0100098,0.0119324
220,1437228629363,0.00790405,0.00280762,0.0183411
221,1437228629383,0.00683594,0.0166931,0.0194092
222,1437228629402,-0.0177307,0.0198975,0.0140686
223,1437228629422,-0.0134583,0.0188293,0.0108643
224,1437228629441,0.00149536,0.0284424,0.0108643
225,1437228629462,0.0239258,0.0380554,0.0151367
226,1437228629483,0.0217896,0.0359192,0.0130005
227,1437228629502,0.0239258,0.0444641,0.0151367
228,1437228629520,0.0281982,0.0476685,0.0194092
229,1437228629540,0.00149536,0.0401917,0.0204773
230,1437228629561,-0.0273438,0.0134888,0.0108643
231,1437228629583,-0.0241394,-0.000396729,0.00231934
232,1437228629600,-0.00491333,-0.00466919,0.0130005
233,1437228629620,-0.0027771,-0.0132141,0.00445557
234,1437228629640,0.000427246,-0.0132141,0.00125122
235,1437228629659,-0.000640869,0.00494385,0.00552368
236,1437228629682,0.0249939,0.0145569,0.0258179
237,1437228629699,0.0591736,0.015625,0.0429077
238,1437228629718,0.0880127,0.015625,0.0610657
239,1437228629739,0.0484924,0.00921631,0.0429077
240,1437228629756,-0.0230713,-0.00466919,0.0130005
241,1437228629778,-0.0422974,-0.00146484,0.000183105
242,1437228629797,-0.00704956,0.0145569,0.00552368
243,1437228629818,0.0111084,0.0188293,0.00979614
244,1437228629838,-0.00811768,0.00280762,0.00445557
245,1437228629857,-0.0134583,-0.0185547,-0.00408936
246,1437228629877,-0.00704956,-0.00787353,-0.00515747
247,1437228629897,-0.0166626,-0.00894165,-0.00836182
248,1437228629919,-0.0316162,-0.00146484,-0.0222473
249,1437228629936,-0.0262756,0.00601196,-0.0179749
250,1437228629956,-0.000640869,0.0209656,-0.0169067
251,1437228629976,0.0185852,0.033783,0.00552368
252,1437228629996,0.0121765,0.0231018,0.00445557
253,1437228630018,-0.00170898,0.0231018,0.0065918
254,1437228630036,-0.00704956,0.0209656,0.00338745
255,1437228630055,-0.00170898,0.0220337,0.0130005
256,1437228630073,0.0185852,0.033783,0.0172729
257,1437228630095,0.026062,0.0369873,0.0172729
258,1437228630116,0.0346069,0.0348511,0.0140686
259,1437228630134,0.053833,0.0305786,0.0194092
260,1437228630154,0.0623779,0.0198975,0.00445557
261,1437228630174,0.0239258,-0.000396729,-0.0137024
262,1437228630193,-0.00918579,-0.0174866,-0.0275879
263,1437228630216,-0.0102539,-0.0409851,-0.028656
264,1437228630233,0.0132446,-0.0463257,-0.0169067
265,1437228630253,0.0410156,-0.0142822,0.00552368
266,1437228630273,0.0207214,0.00921631,0.00979614
267,1437228630292,-0.0187988,-0.0196228,-0.00088501
268,1437228630313,-0.0102539,-0.0420532,-0.00408936
269,1437228630333,0.0314026,-0.0260315,0.00872803
270,1437228630352,0.053833,0.00814819,0.0172729
271,1437228630372,0.0452881,0.0273743,0.0258179
272,1437228630390,0.0249939,0.0327148,0.0279541
273,1437228630414,0.0153809,0.0145569,0.0300903
274,1437228630430,0.0132446,0.000671387,0.0279541
275,1437228630451,-0.000640869,-0.00253296,0.0247498
276,1437228630470,-0.00598145,0.00494385,0.00979614
277,1437228630491,-0.0155945,0.0198975,0.00231934
278,1437228630510,-0.0198669,0.0198975,-0.00302124
279,1437228630529,-0.02948,0.0188293,-0.00836182
280,1437228630550,-0.0593872,0.0241699,-0.00836182
281,1437228630570,-0.0615234,0.0231018,-0.00195312
282,1437228630589,-0.0508423,0.0263062,0.00872803
283,1437228630609,-0.0422974,0.00601196,0.0065918
284,1437228630629,-0.0348206,-0.00466919,-0.00515747
285,1437228630649,0.00149536,-0.0281677,-0.0265198
286,1437228630669,0.0100403,-0.0249634,-0.0457458
287,1437228630689,0.0484924,-0.00360107,-0.0425415
288,1437228630709,0.0559692,0.0113525,-0.0553589
289,1437228630727,0.0378113,0.0241699,-0.0596313
290,1437228630746,0.0367432,0.0198975,-0.038269
291,1437228630766,0.00897217,-0.021759,-0.0265198
292,1437228630785,0.026062,-0.0388489,-0.00302124
293,1437228630806,0.04422,-0.0335083,0.0311584
294,1437228630825,0.000427246,-0.0196228,0.0397034
295,1437228630845,-0.0155945,-0.0110779,0.0567932
296,1437228630865,0.0153809,-0.00253296,0.0781555
297,1437228630884,0.0207214,-0.00680542,0.0856323
298,1437228630904,0.000427246,-0.0142822,0.0770874
299,1437228630924,0.0207214,-0.0100098,0.0802917
300,1437228630945,0.0271301,0.00387573,0.0792236
301,1437228630966,0.0185852,0.0102844,0.0717468
302,1437228630986,0.0271301,0.00387573,0.0599976
303,1437228631005,0.0292664,-0.0100098,0.0418396
304,1437228631023,0.0346069,0.00921631,0.0375671
305,1437228631045,0.0581055,0.0284424,0.0450439
306,1437228631064,0.0581055,0.0380554,0.0418396
307,1437228631084,0.0420837,0.0305786,0.0290222
308,1437228631104,0.035675,0.0166931,0.0130005
309,1437228631124,0.035675,0.00814819,0.00765991
310,1437228631144,0.0399475,0.00601196,-0.0072937
311,1437228631164,0.0581055,0.0113525,-0.0115662
312,1437228631182,0.0249939,0.00601196,-0.038269
313,1437228631201,-0.0187988,-0.0367126,-0.0713806
314,1437228631223,-0.00704956,-0.0441895,-0.0895386
315,1437228631244,0.0324707,-0.0377808,-0.0895386
316,1437228631262,0.0484924,-0.0335083,-0.0927429
317,1437228631283,0.0367432,-0.0260315,-0.106628
318,1437228631302,0.0367432,-0.0260315,-0.0906067
319,1437228631322,0.0378113,-0.0484619,-0.0767212
320,1437228631340,0.0271301,-0.0516663,-0.0478821
321,1437228631361,0.0153809,-0.0473938,-0.0222473
322,1437228631380,-0.00704956,-0.0420532,0.00979614
323,1437228631401,-0.011322,-0.0367126,0.0311584
324,1437228631421,-0.0155945,-0.0100098,0.0493164
325,1437228631443,-0.011322,0.00601196,0.0567932
326,1437228631461,-0.0262756,0.0017395,0.0557251
327,1437228631480,-0.0401611,-0.00360107,0.0525208
328,1437228631500,-0.0326843,-0.0057373,0.0664062
329,1437228631519,-0.0369568,-0.0057373,0.0653381
330,1437228631539,-0.0529785,-0.021759,0.0653381
331,1437228631558,-0.0465698,-0.00253296,0.0610657
332,1437228631579,-0.0497742,0.025238,0.0578613
333,1437228631598,-0.066864,0.025238,0.0279541
334,1437228631619,-0.0711365,0.0017395,0.00872803
335,1437228631641,-0.0593872,-0.021759,-0.0158386
336,1437228631657,-0.0401611,-0.0324402,-0.0222473
337,1437228631678,-0.0444336,-0.0249634,-0.0265198
338,1437228631697,-0.0476379,-0.0100098,-0.0179749
339,1437228631717,-0.0476379,0.00280762,-0.0115662
340,1437228631740,-0.0529785,0.0017395,-0.00942993
341,1437228631757,-0.0529785,-0.00680542,-0.0201111
342,1437228631777,-0.0497742,0.015625,-0.0233154
343,1437228631796,-0.0134583,0.0348511,-0.0158386
344,1437228631817,0.0239258,0.025238,-0.0158386
345,1437228631835,0.04422,0.0113525,-0.0126343
346,1437228631856,0.0495605,-0.000396729,-0.00195312
347,1437228631874,0.0410156,0.0134888,0.0108643
348,1437228631895,0.0100403,0.0166931,0.0215454
349,1437228631915,-0.0027771,0.00601196,0.0226135
350,1437228631936,-0.0166626,0.0198975,0.0226135
351,1437228631955,-0.0380249,0.043396,0.0162048
352,1437228631973,-0.0123901,0.0786438,0.0322266
353,1437228631995,0.081604,0.0733032,0.0482483
354,1437228632014,0.149963,0.0423279,0.0632019
355,1437228632034,0.139282,0.0188293,0.0354309
356,1437228632054,0.108307,0.0113525,0.0140686
357,1437228632076,0.0516968,-0.00466919,-0.0147705
358,1437228632094,-0.00170898,-0.030304,-0.0446777
359,1437228632114,0.00790405,-0.0132141,-0.046814
360,1437228632133,0.0324707,0.0220337,-0.0307922
361,1437228632151,0.0645142,0.0583496,-0.0169067
362,1437228632173,0.0826721,0.071167,-0.019043
363,1437228632191,0.105103,0.0423279,-0.0265198
364,1437228632212,0.124329,0.0145569,-0.0350647
365,1437228632233,0.139282,-0.000396729,-0.0361328
366,1437228632252,0.121124,0.0209656,-0.0425415
367,1437228632272,0.0858765,0.0455322,-0.0329285
368,1437228632290,0.091217,0.0572815,-0.0243835
369,1437228632311,0.10083,0.0754395,-0.0137024
370,1437228632330,0.116852,0.0968018,-0.00302124
371,1437228632351,0.111511,0.0903931,-0.00408936
372,1437228632371,0.111511,0.0658264,-0.0126343
373,1437228632390,0.136078,0.0498047,0.00445557
374,1437228632410,0.13501,0.0455322,0.0183411
375,1437228632430,0.139282,0.0583496,0.0354309
376,1437228632450,0.136078,0.0519409,0.0525208
377,1437228632468,0.111511,0.0359192,0.0439758
378,1437228632489,0.0826721,0.043396,0.0343628
379,1437228632507,0.0602417,0.0444641,0.0130005
380,1437228632528,0.0613098,0.0241699,-0.0072937
381,1437228632549,0.0730591,0.00280762,-0.0158386
382,1437228632569,0.0858765,-0.012146,-0.0072937
383,1437228632589,0.131805,-0.0345764,0.0140686
384,1437228632608,0.130737,-0.0228271,0.0482483
385,1437228632628,0.101898,-0.00253296,0.0760193
386,1437228632648,0.0570374,0.0177612,0.092041
387,1437228632670,0.0217896,0.0273743,0.102722
388,1437228632687,0.0410156,0.0113525,0.110199
389,1437228632707,0.063446,0.00921631,0.102722
390,1437228632726,0.0805359,0.0134888,0.0867004
391,1437228632747,0.0837402,0.0102844,0.0557251
392,1437228632769,0.0655823,0.00387573,0.0279541
393,1437228632783,0.0549011,-0.0153503,0.0151367
394,1437228632806,0.0367432,-0.0206909,-0.00408936
395,1437228632825,0.0388794,-0.0270996,-0.00942993
396,1437228632845,0.0484924,-0.0185547,-0.00622559
397,1437228632865,0.0388794,-0.0206909,-0.00942993
398,1437228632885,0.0175171,-0.0313721,-0.0201111
399,1437228632905,0.0239258,-0.039917,-0.0147705
400,1437228632925,0.0335388,-0.0228271,0.000183105
401,1437228632945,0.053833,-0.0132141,0.0183411
402,1437228632966,0.104034,0.00494385,0.0290222
403,1437228632984,0.121124,0.0305786,0.0418396
404,1437228633004,0.120056,0.0198975,0.0290222
405,1437228633023,0.0698547,-0.0142822,0.00338745
406,1437228633043,0.0111084,-0.067688,-0.0201111
407,1437228633066,0.00576782,-0.110413,-0.0169067
408,1437228633083,0.0346069,-0.0986633,0.0130005
