id,attr_time,attr_x,attr_y,attr_z
1,1436967792001,9.063251,1.809418,3.4835634
2,1436967792032,9.111733,1.7806876,3.4715924
3,1436967792037,9.201516,1.821389,3.5122938
4,1436967792055,9.069835,1.8764555,3.518878
5,1436967792077,8.909423,1.8596961,3.4560301
6,1436967792095,8.92319,1.8112136,3.394978
7,1436967792115,8.895657,1.7968484,3.205836
8,1436967792135,8.848969,1.7669208,3.1280246
9,1436967792156,8.782531,1.7381904,3.1070752
10,1436967792177,8.887876,1.7681179,3.2944214
11,1436967792200,9.153033,1.8866309,3.5913026
12,1436967792218,9.31524,1.7986441,3.7618895
13,1436967792235,9.168595,1.8154035,3.697246
14,1436967792261,8.948928,1.8189948,3.3369186
15,1436967792277,8.944139,1.7585411,3.1663318
16,1436967792300,8.933964,1.8662802,3.3800142
17,1436967792318,8.949526,1.8854338,3.4009635
18,1436967792337,9.097368,1.7567455,3.4626143
19,1436967792360,9.200917,1.780089,3.5416229
20,1436967792377,9.118318,1.9662381,3.4117374
21,1436967792398,8.980651,2.0009542,3.3979707
22,1436967792417,9.00579,1.881244,3.4674027
23,1436967792438,8.980052,1.7848774,3.4566288
24,1436967792457,8.945336,1.8034325,3.4009635
25,1436967792478,9.056666,1.8650831,3.3973722
26,1436967792500,9.0429,1.9506758,3.4919431
27,1436967792516,9.038112,1.9506758,3.4518404
28,1436967792539,9.042301,1.8968062,3.4793737
29,1436967792557,9.036914,1.8567034,3.4105403
30,1436967792577,9.040505,1.857302,3.354875
31,1436967792597,8.98903,1.875857,3.4326868
32,1436967792617,9.006389,1.8561049,3.4739866
33,1436967792638,9.059061,1.827973,3.518878
34,1436967792725,9.069835,1.8166006,3.5021186
35,1436967792726,8.942942,1.8046296,3.393781
36,1436967792727,8.853159,1.9231426,3.4500446
37,1436967792728,8.959702,1.8686744,3.5182793
38,1436967792737,9.060258,1.6843209,3.7301662
39,1436967792761,9.036914,1.7651252,3.940856
40,1436967792777,9.033323,1.9387048,3.5452142
41,1436967792797,9.015367,1.8201919,3.2920272
42,1436967792821,9.086594,1.8291701,3.2082303
43,1436967792837,9.122507,1.9434932,3.1555579
44,1436967792859,9.143456,2.007538,3.2172086
45,1436967792879,9.063251,2.0033484,3.3596635
46,1436967792899,9.036316,1.9309237,3.472191
47,1436967792922,9.087791,1.903989,3.466804
48,1436967792939,9.132084,1.8890251,3.5021186
49,1436967792961,9.073426,2.0296845,3.5045128
50,1436967792982,9.013571,2.0057425,3.4596214
51,1436967792999,9.018359,1.9470845,3.4638114
52,1436967793021,9.012374,1.8962077,3.3674448
53,1436967793040,9.0016,1.9255368,3.2632968
54,1436967793060,9.0429,2.0231004,3.2273839
55,1436967793082,9.030331,2.03567,3.2064347
56,1436967793099,9.017162,2.0189106,3.2531216
57,1436967793119,9.035119,1.9632454,3.3506854
58,1436967793140,9.114726,2.010531,3.506907
59,1436967793157,9.19972,1.9716251,3.4674027
60,1436967793178,9.093178,1.8477252,3.3554738
61,1436967793197,8.965088,1.9249382,3.4374752
62,1436967793219,8.938752,2.0931308,3.3500867
63,1436967793238,8.92738,2.0296845,3.245939
64,1436967793258,9.011177,1.8309658,3.2746694
65,1436967793277,9.183559,1.8255788,3.283049
66,1436967793300,9.163208,2.0338743,3.292626
67,1436967793321,9.0842,2.1027076,3.354875
68,1436967793341,9.0429,2.0021513,3.466804
69,1436967793359,8.999206,1.9141643,3.448249
70,1436967793527,9.023148,1.9063832,3.3674448
71,1436967793528,8.998009,1.9698294,3.3584664
72,1436967793529,9.0237465,1.9931729,3.316568
73,1436967793530,9.082404,1.9596541,3.3991678
74,1436967793531,9.087193,1.946486,3.3848026
75,1436967793532,8.995016,1.958457,3.304597
76,1436967793533,8.98903,1.958457,3.329736
77,1436967793534,9.020754,1.9434932,3.3734303
78,1436967793575,9.026739,1.9572599,3.3961751
79,1436967793576,9.054273,1.9620483,3.3770216
80,1436967793609,9.029732,1.9734207,3.3249476
81,1436967793610,9.011775,1.9782091,3.37762
82,1436967793630,9.117719,1.9207484,3.2788591
83,1436967793638,9.157223,1.821389,3.293823
84,1436967793658,9.036316,2.0290859,3.4865563
85,1436967793678,8.986037,2.1625626,3.353678
86,1436967793698,8.983045,1.9422961,3.3399115
87,1436967793721,9.137471,1.8555063,3.378817
88,1436967793740,9.147048,1.9602526,3.3141737
89,1436967793762,9.066243,2.0153193,3.2728736
90,1436967793782,8.986037,1.9512744,3.359065
91,1436967793801,9.00579,1.893215,3.4093432
92,1436967793818,8.987235,1.8686744,3.4081461
93,1436967793839,8.995016,1.9201498,3.3943794
94,1436967793862,8.988432,1.9542671,3.4075475
95,1436967793882,9.057863,1.929128,3.3584664
96,1436967793901,9.094974,1.9177556,3.38181
97,1436967793921,9.057265,1.9488802,3.317765
98,1436967793938,9.011177,1.9117701,3.2291796
99,1436967793959,9.0716305,1.9273324,3.221997
100,1436967793979,9.115324,1.9446903,3.240552
101,1436967794003,9.084799,2.0123265,3.3620577
102,1436967794023,8.995016,1.9985598,3.4183214
103,1436967794044,8.981249,1.958457,3.4943373
104,1436967794061,9.09258,1.8956091,3.478775
105,1436967794080,9.11712,1.804031,3.3494883
106,1436967794098,9.077017,1.9087774,3.4356794
107,1436967794118,9.032724,2.1170728,3.4075475
108,1436967794142,8.981848,2.019509,3.221997
109,1436967794159,8.988432,1.9087774,3.2597055
110,1436967794210,9.077616,1.8046296,3.3279405
111,1436967794211,9.033921,1.9285295,3.3207579
112,1436967794219,9.052477,1.9895816,3.342904
113,1436967794238,9.016563,1.9949685,3.4159272
114,1436967794265,8.91481,1.9931729,3.357868
115,1436967794280,8.97287,1.9608512,3.281852
116,1436967794300,8.978855,1.8956091,3.3488896
117,1436967794322,9.069236,1.9494787,3.3482912
118,1436967794340,9.205107,1.977012,3.445855
119,1436967794360,9.198523,2.0111294,3.4123359
120,1436967794380,9.063251,1.951873,3.3566709
121,1436967794402,8.970475,1.8674773,3.3686419
122,1436967794422,8.955511,1.821389,3.3877954
123,1436967794441,9.006987,1.822586,3.3506854
124,1436967794468,8.994417,1.8590976,3.306991
125,1436967794481,8.986037,1.9578584,3.292626
126,1436967794502,9.033323,2.0506337,3.3464954
127,1436967794521,9.201516,2.0153193,3.2962172
128,1436967794539,9.225458,1.8351556,3.2986114
129,1436967794560,9.081805,1.8776526,3.4081461
130,1436967794581,8.950125,2.100912,3.3632548
131,1436967794601,8.902241,2.030283,3.2549171
132,1436967794622,9.04709,1.8914193,3.3327289
133,1436967794641,9.178172,1.927931,3.345897
134,1436967794662,9.083601,1.9800048,3.3075895
135,1436967794681,8.960898,1.9177556,3.3560722
136,1436967794701,8.995016,1.8890251,3.4231098
137,1436967794722,9.069236,1.9081788,3.4278982
138,1436967794741,9.118318,1.9835961,3.405752
139,1436967794761,9.075222,2.0404584,3.3482912
140,1436967794781,9.065046,2.0015526,3.3333273
141,1436967794802,9.042301,1.9237411,3.3435028
142,1436967794822,9.041702,1.9129672,3.3039982
143,1436967794839,9.021352,1.9111716,3.2770636
144,1436967794870,9.004593,1.9357121,3.2734723
145,1436967794925,9.019556,1.9901801,3.3345244
146,1436967794926,9.012972,1.9955671,3.4153287
147,1436967794927,9.036914,1.9847932,3.4685998
148,1436967794951,9.166202,1.905186,3.5033157
149,1436967794959,9.147646,1.8722657,3.442862
150,1436967794981,9.062652,1.8537107,3.2208
151,1436967795000,8.924387,1.8596961,3.1896753
152,1436967795022,8.876503,2.0392613,3.3279405
153,1436967795041,8.983644,2.095525,3.2902317
154,1436967795060,8.94773,1.9859903,3.2782607
155,1436967795081,8.943541,1.9728222,3.2291796
156,1436967795099,9.029133,2.0991163,3.2118216
157,1436967795122,9.139865,2.1703439,3.1519666
158,1436967795140,9.284714,2.0129251,3.09271
159,1436967795162,9.297284,1.8405426,3.1621418
160,1436967795181,9.11712,1.917157,3.1914709
161,1436967795202,9.041702,1.9351135,3.1824925
162,1436967795221,9.025542,1.9231426,3.2172086
163,1436967795239,9.057863,1.894412,3.247136
164,1436967795262,9.136872,1.894412,3.2573113
165,1436967795280,9.207501,1.9021933,3.293823
166,1436967795302,9.1512375,1.927931,3.2824504
167,1436967795324,9.026739,1.9596541,3.2142158
168,1436967795339,8.986037,2.0231004,3.1142578
169,1436967795363,9.038112,2.0578163,3.0825348
170,1436967795385,9.112331,2.0524294,3.1190462
171,1436967795403,9.153033,2.0326772,3.1465795
172,1436967795424,9.209895,2.0721815,3.1860838
173,1436967795441,9.230247,2.0003555,3.098097
174,1436967795462,9.117719,1.9937714,3.2202013
175,1436967795486,9.069236,2.019509,3.330933
176,1436967795500,9.01776,2.1272483,3.177704
177,1436967795524,8.986037,2.0296845,3.0945058
178,1436967795544,9.086594,1.9117701,3.181894
179,1436967795563,9.185355,1.9416976,3.1956608
180,1436967795583,9.156625,1.9895816,3.210026
181,1436967795606,9.068638,1.988983,3.2435448
182,1436967795671,8.978256,1.951873,3.2381577
183,1436967795672,9.038112,1.8974048,3.2573113
184,1436967795673,9.100361,1.9351135,3.2788591
185,1436967795682,9.133281,1.9985598,3.1914709
186,1436967795707,9.065046,1.9979613,3.2237926
187,1436967795722,9.056067,1.9405005,3.245939
188,1436967795742,9.0554695,1.9297266,3.2381577
189,1436967795763,9.091382,1.946486,3.221997
190,1436967795781,9.10455,1.9740193,3.2213984
191,1436967795801,9.081805,2.022502,3.2154129
192,1436967795820,9.053075,2.042254,3.2076318
193,1436967795843,9.064447,2.0219033,3.2585084
194,1436967795860,9.078813,2.010531,3.2561142
195,1436967795883,9.180567,1.9847932,3.1453824
196,1436967795902,9.07582,1.9273324,3.1854854
197,1436967795923,9.029732,1.951873,3.3794158
198,1436967795943,9.058462,2.100912,3.3662477
199,1436967795963,9.066243,2.0326772,3.2345665
200,1436967795984,9.056067,1.8483237,3.2513258
201,1436967796000,9.069835,1.8525136,3.2507274
202,1436967796023,9.072228,1.9303252,3.25372
203,1436967796044,9.093178,1.9973627,3.3123782
204,1436967796062,9.128492,1.9913772,3.4344823
205,1436967796083,9.062054,1.9608512,3.4464533
206,1436967796105,9.085397,1.9393034,3.3752258
207,1436967796125,9.11712,1.9913772,3.3411086
208,1436967796145,9.13388,2.03148,3.3500867
209,1436967796163,9.063849,1.9608512,3.3901896
210,1436967796214,9.01776,1.893215,3.3961751
211,1436967796215,9.013571,1.8620903,3.3746274
212,1436967796222,9.007586,1.8644845,3.376423
213,1436967796246,9.012972,1.9075803,3.3446999
214,1436967796266,9.035717,1.9560628,3.3836055
215,1436967796286,9.016563,1.9901801,3.4344823
216,1436967796303,9.052477,1.9782091,3.4512417
217,1436967796323,9.145252,1.9722236,3.3901896
218,1436967796395,9.196728,1.9494787,3.3171666
219,1436967796396,9.042301,1.8561049,3.2890346
220,1436967796397,8.895657,1.8974048,3.470994
221,1436967796404,8.963293,2.0057425,3.4620156
222,1436967796421,8.985439,1.9075803,3.3734303
223,1436967796533,9.053075,1.8525136,3.3865983
224,1436967796534,9.081207,1.9925743,3.3123782
225,1436967796535,9.013571,2.066196,3.2902317
226,1436967796536,9.002198,2.007538,3.3722332
227,1436967796537,9.021352,1.9177556,3.3782187
228,1436967796541,8.975264,1.851915,3.364452
229,1436967796565,8.995614,1.9129672,3.3225534
230,1436967796584,8.948329,1.946486,3.3273418
231,1436967796604,8.953716,1.9069817,3.3955765
232,1436967796623,9.016563,1.8776526,3.4051533
233,1436967796644,8.998607,1.8866309,3.4111388
234,1436967796664,8.996812,1.8902222,3.4141316
235,1436967796684,8.981249,1.9315223,3.425504
236,1436967796704,9.0016,1.9710265,3.489549
237,1436967796723,9.002198,2.0123265,3.4644098
238,1436967796744,8.98484,2.0123265,3.4542346
239,1436967796764,9.003994,1.9961656,3.4919431
240,1436967796785,9.106346,1.95307,3.3913867
241,1436967796801,9.056067,1.875857,3.3871968
242,1436967796821,8.971672,1.851915,3.5972881
243,1436967796843,8.952518,1.99437,3.6649241
244,1436967796862,8.938752,2.0141222,3.4757824
245,1436967796883,8.883685,1.8363527,3.430891
246,1436967796904,8.965088,1.7363948,3.4225113
247,1436967796924,8.877101,1.9129672,3.347094
248,1436967796958,9.066243,1.9818004,3.2249897
249,1436967796961,9.172785,1.9961656,3.192668
250,1436967796983,9.278131,1.9859903,3.2172086
251,1436967797003,9.1829605,2.005144,3.2956185
252,1436967797024,9.136872,2.0979192,3.3261447
253,1436967797042,9.10455,2.1631613,3.3153708
254,1436967797062,9.151836,2.0973208,3.3411086
255,1436967797134,9.16261,1.9524715,3.3686419
256,1436967797135,9.085397,1.9135658,3.3596635
257,1436967797136,8.983045,1.9416976,3.3159695
258,1436967797143,8.9279785,1.9829975,3.2668881
259,1436967797162,8.974067,1.9818004,3.2399535
260,1436967797183,9.006389,1.9560628,3.289633
261,1436967797201,9.046491,1.9656396,3.3087866
262,1436967797226,9.1512375,2.0093338,3.3399115
263,1436967797243,9.217078,1.9871874,3.2692823
264,1436967797262,9.178771,1.9782091,3.265691
265,1436967797284,9.109339,1.9937714,3.4278982
266,1436967797303,9.103952,2.1146786,3.442862
267,1436967797322,8.966286,2.046444,3.3315318
268,1436967797345,8.994417,1.903989,3.401562
269,1436967797365,9.093777,1.9009962,3.430891
270,1436967797385,9.065046,1.9829975,3.4033577
271,1436967797405,9.006389,1.9961656,3.4440591
272,1436967797424,9.001001,1.9716251,3.442862
273,1436967797443,9.012374,1.9381063,3.4326868
274,1436967797469,9.037513,1.9446903,3.459023
275,1436967797484,9.009979,1.9991584,3.4153287
276,1436967797503,8.981848,1.9566613,3.3979707
277,1436967797523,9.013571,1.9267339,3.3848026
278,1436967797544,9.036316,1.9512744,3.3500867
279,1436967797565,9.049484,1.970428,3.354875
280,1436967797584,9.066243,2.0512323,3.3859997
281,1436967797603,9.0476885,2.059612,3.4859576
282,1436967797621,8.99322,2.0213048,3.5835214
283,1436967797642,8.953117,2.0069396,3.6589386
284,1436967797665,8.966286,2.0506337,3.6613328
285,1436967797685,9.032724,2.1039047,3.544017
286,1436967797705,8.982447,1.9907787,3.3740287
287,1436967797723,8.708909,1.8974048,3.50152
288,1436967797744,8.743026,1.9620483,3.6355953
289,1436967797764,8.983045,1.9213469,3.5326445
290,1436967797785,9.085397,1.8662802,3.5763388
291,1436967797803,9.121908,1.929128,3.4769795
292,1436967797862,8.996812,1.9979613,3.4464533
293,1436967797863,8.946533,1.9614497,3.527856
294,1436967797864,8.989629,1.9147629,3.6092591
295,1436967797882,9.014768,1.9255368,3.578733
296,1436967797905,8.989629,1.9021933,3.520075
297,1436967797926,8.990228,1.9644425,3.5104983
298,1436967797942,8.902241,1.9722236,3.5248635
299,1436967797962,8.903438,1.905186,3.5703533
300,1436967797985,8.956709,1.9021933,3.5895069
301,1436967798004,8.930372,1.9033904,3.5326445
302,1436967798040,8.901043,1.9093759,3.4835634
303,1436967798042,8.943541,1.9369092,3.5075054
304,1436967798089,8.944737,1.9219455,3.5242648
305,1436967798090,8.961497,1.9387048,3.53863
306,1436967798102,9.013571,1.9955671,3.518878
307,1436967798124,9.074623,2.0093338,3.4799721
308,1436967798144,9.053075,1.9440918,3.34051
309,1436967798164,8.813655,1.9201498,3.4931402
310,1436967798185,8.754398,1.9973627,3.6098576
311,1436967798205,8.8567505,2.0231004,3.5529952
312,1436967798225,9.0237465,1.8800468,3.4751837
313,1436967798244,9.065046,1.9315223,3.38181
314,1436967798262,8.953716,2.0410569,3.3554738
315,1436967798283,8.98484,2.0548236,3.5230677
316,1436967798305,9.007586,1.9949685,3.6577415
317,1436967798325,8.965088,1.9608512,3.643975
318,1436967798348,8.930971,1.9297266,3.5817258
319,1436967798364,8.98903,1.9422961,3.5583823
320,1436967798388,8.945934,1.9644425,3.537433
321,1436967798406,8.842984,1.9129672,3.5464113
322,1436967798424,8.8806925,1.9422961,3.5769374
323,1436967798446,8.949526,1.9674352,3.5326445
324,1436967798464,9.000402,2.0033484,3.5314474
325,1436967798488,9.0081835,2.010531,3.5613751
326,1436967798503,8.987833,2.0003555,3.551798
327,1436967798536,8.904634,1.9931729,3.5206735
328,1436967798632,8.869919,1.9357121,3.4901476
329,1436967798633,8.901642,1.9416976,3.5637693
330,1436967798634,9.075222,1.9566613,3.6014779
331,1436967798635,9.127894,1.9327193,3.5098996
332,1436967798636,8.963891,1.958457,3.690662
333,1436967798713,8.86513,2.119467,3.6954503
334,1436967798714,8.860941,2.0207062,3.5021186
335,1436967798715,8.867524,1.8962077,3.5033157
336,1436967798716,8.835801,1.9554642,3.4584243
337,1436967798737,8.848371,2.0254946,3.4117374
338,1436967798777,8.908825,2.0392613,3.5595794
339,1436967798778,9.144054,2.0129251,3.6014779
340,1436967798783,9.299079,1.9812019,3.5416229
341,1436967798803,9.312846,1.982399,3.454833
342,1436967798828,9.1668,1.9446903,3.3632548
343,1436967798843,9.054273,1.99437,3.228581
344,1436967798863,9.050681,1.9847932,3.2692823
345,1436967798883,9.045294,1.9716251,3.3243492
346,1436967798903,9.003395,1.9405005,3.383007
347,1436967798923,8.985439,1.9512744,3.4261026
348,1436967798943,8.977658,1.9752164,3.4542346
349,1436967799008,8.963293,2.0201077,3.3871968
350,1436967799009,8.993818,2.0679917,3.2812533
351,1436967799010,8.98903,2.0763714,3.233968
352,1436967799026,9.115324,2.066196,3.2513258
353,1436967799043,9.156625,1.9865888,3.217807
354,1436967799063,9.095572,1.9871874,3.2393548
355,1436967799084,9.080608,2.1631613,3.4225113
356,1436967799102,9.082404,2.2164323,3.3572693
357,1436967799122,8.995614,2.0350714,3.2662897
358,1436967799142,8.995614,1.8680758,3.323152
359,1436967799163,9.007586,1.9069817,3.3620577
360,1436967799182,9.105149,2.0165164,3.288436
361,1436967799202,9.1829605,2.0386627,3.2782607
362,1436967799224,9.123704,2.03148,3.29502
363,1436967799244,8.977658,2.0147207,3.245939
364,1436967799265,9.006389,1.9925743,3.3159695
365,1436967799285,9.028535,2.046444,3.3740287
366,1436967799304,9.063849,2.042254,3.3842041
367,1436967799323,8.9842415,1.9752164,3.3638535
368,1436967799347,8.9363575,1.9099745,3.347094
369,1436967799362,8.945336,1.869273,3.3279405
370,1436967799384,9.0237465,1.9303252,3.3213563
371,1436967799403,9.114127,1.977012,3.2615013
372,1436967799427,9.139266,2.0003555,3.2453403
373,1436967799444,9.123106,1.9680338,3.2249897
374,1436967799463,9.090784,1.9482816,3.247136
375,1436967799484,9.0842,2.123657,3.2489316
376,1436967799507,9.163807,2.1583729,3.1962593
377,1436967799527,9.172785,1.917157,3.2794578
378,1436967799547,9.036316,1.822586,3.5464113
379,1436967799565,8.807071,1.9357121,3.3919852
380,1436967799584,8.832211,1.9776106,3.2010477
381,1436967799607,9.1668,2.0919337,3.122039
382,1436967799625,9.264962,2.204461,3.0873232
383,1436967799647,9.085397,2.2529438,3.1292217
384,1436967799667,8.9998045,2.2008698,3.293823
385,1436967799685,9.002198,2.1440077,3.328539
386,1436967799703,9.084799,2.0769699,3.2668881
387,1436967799727,9.065644,2.0685902,3.2680852
388,1436967799743,8.971074,2.1015105,3.2692823
389,1436967799763,9.033921,2.1571758,3.2267854
390,1436967799783,9.128492,2.1667526,3.247136
391,1436967799808,9.160215,2.0440497,3.2441432
392,1436967799830,9.084799,1.8866309,3.3183637
393,1436967799847,9.045294,1.8189948,3.359065
394,1436967799867,9.006987,1.79206,3.3752258
395,1436967799883,8.863934,1.8956091,3.3985693
396,1436967799903,8.990228,1.9608512,3.3387144
397,1436967799923,9.218275,1.8441339,3.3530796
398,1436967799944,9.260772,1.7836803,3.3105824
399,1436967799963,9.106346,1.7675194,3.2016463
400,1436967799995,8.898649,1.7238252,3.1896753
401,1436967800006,8.991425,1.8632874,3.3159695
402,1436967800023,9.062054,2.0087352,3.3028011
403,1436967800044,9.122507,2.0488381,3.1322143
404,1436967800064,9.279327,1.9153614,3.1615434
405,1436967800086,9.284714,1.9668367,3.2513258
406,1436967800105,9.151836,2.0925324,3.2543187
407,1436967800124,9.014768,2.1260512,3.2477345
408,1436967800144,9.060258,2.0590134,3.2782607
409,1436967800167,9.030331,1.9722236,3.2549171
410,1436967800188,9.004593,1.946486,3.2429461
411,1436967800206,9.009979,2.0733786,3.2130187
412,1436967800227,8.982447,2.054225,3.2555158
413,1436967800247,8.978855,1.8848352,3.3423057
414,1436967800267,8.990826,1.8866309,3.347094
415,1436967800287,9.013571,2.011728,3.2848446
416,1436967800307,9.057863,2.1853075,3.127426
417,1436967800324,9.116522,2.2427685,3.1268275
418,1436967800345,9.136273,2.2307975,3.1555579
419,1436967800365,9.139865,2.0919337,3.2585084
420,1436967800387,9.066243,1.970428,3.329736
421,1436967800408,8.962694,1.881244,3.341707
422,1436967800424,9.0081835,1.8950106,3.2615013
423,1436967800445,9.214086,1.8902222,3.2800562
424,1436967800466,9.274539,1.9536686,3.3399115
425,1436967800487,9.157223,2.1667526,3.2375593
426,1436967800507,9.018958,2.2266076,3.0017304
427,1436967800531,9.020754,1.9393034,3.032855
428,1436967800546,9.106945,1.7316064,3.1663318
429,1436967800568,9.124901,1.7902644,3.269881
430,1436967800585,9.154829,2.023699,3.2130187
431,1436967800605,9.132683,2.12246,3.2172086
432,1436967800633,9.115324,1.982399,3.2070332
