id,attr_time,attr_x,attr_y,attr_z
1,1436965110623,-0.0030543262,0.043066,-0.021991149
2,1436965110645,-0.0106901415,0.037873644,-0.018020526
3,1436965110664,-0.012217305,0.04184427,-0.01740966
4,1436965110684,0.004276057,0.03023783,-0.026267206
5,1436965110704,0.0070249503,0.029321533,-0.021991149
6,1436965110724,0.0021380284,0.019547688,-0.02107485
7,1436965110744,0.004581489,0.021380283,-0.026267206
8,1436965110765,-0.0018325958,0.03604105,-0.024740042
9,1436965110785,0.0015271631,0.042760566,-0.022907447
10,1436965110801,0.003970624,0.025045475,-0.026267206
11,1436965110825,0.009468411,0.027183503,-0.026572637
12,1436965110844,0.005497787,0.035124753,-0.021380283
13,1436965110863,0.019242255,0.046731193,-0.029932396
14,1436965110884,0.017715093,0.04642576,-0.033292156
15,1436965110904,0.008552114,0.035124753,-0.0290161
16,1436965110924,0.004581489,0.013439035,-0.032986723
17,1436965110944,-0.0027488936,0.014966198,-0.039095376
18,1436965110964,-0.013133603,0.03176499,-0.028710667
19,1436965110985,-0.022907447,0.025350908,-0.016187929
20,1436965111005,-0.025961773,0.015577064,-0.01863139
21,1436965111026,-0.01740966,0.011911872,-0.019547688
22,1436965111044,-0.020463986,0.01160644,-0.019547688
23,1436965111065,-0.025961773,0.011301007,-0.015271631
24,1436965111167,-0.018020526,0.015882496,-0.018936822
25,1436965111168,-0.018936822,0.013439035,-0.021685716
26,1436965111169,-0.02076942,0.016493361,-0.01985312
27,1436965111170,-0.02076942,0.01282817,-0.02107485
28,1436965111171,-0.018020526,0.02076942,-0.018020526
29,1436965111182,-0.019242255,0.027488936,-0.011911872
30,1436965111228,-0.015577064,0.026267206,-0.014660766
31,1436965111229,-0.0125227375,0.02076942,-0.020463986
32,1436965111242,-0.013133603,0.020463986,-0.023518313
33,1436965111294,-0.010995574,0.026267206,-0.022296581
34,1436965111295,-0.009773844,0.03268129,-0.015577064
35,1436965111303,-0.008552114,0.021991149,-0.015271631
36,1436965111321,-0.015882496,0.018020526,-0.021380283
37,1436965111343,-0.019242255,0.03359759,-0.019547688
38,1436965111364,-0.01863139,0.030543262,-0.014966198
39,1436965111384,-0.010995574,0.03848451,-0.017104227
40,1436965111404,-0.008857546,0.03390302,-0.01863139
41,1436965111424,-0.008246681,0.025045475,-0.022602014
42,1436965111444,-0.004581489,0.021685716,-0.021991149
43,1436965111465,-0.0027488936,0.027794369,-0.0290161
44,1436965111484,-0.005497787,0.02443461,-0.022907447
45,1436965111505,-0.004886922,0.02565634,-0.025045475
46,1436965111525,-0.0030543262,0.032375857,-0.027183503
47,1436965111546,-0.00030543262,0.028405234,-0.026267206
48,1436965111561,-0.004581489,0.022907447,-0.021380283
49,1436965111585,-0.009468411,0.024129177,-0.018936822
50,1436965111604,-0.005497787,0.025961773,-0.01985312
51,1436965111624,-0.0012217305,0.030848695,-0.027488936
52,1436965111643,-0.004581489,0.03023783,-0.0290161
53,1436965111665,-0.00580322,0.03726278,-0.023518313
54,1436965111684,-0.00030543262,0.020463986,-0.025045475
55,1436965111705,0.004581489,0.022602014,-0.02443461
56,1436965111725,0.0021380284,0.027488936,-0.028099801
57,1436965111744,-0.0030543262,0.035124753,-0.021380283
58,1436965111765,-0.0030543262,0.03359759,-0.016493361
59,1436965111783,0.0009162979,0.03023783,-0.02321288
60,1436965111876,0.01038471,0.032375857,-0.02565634
61,1436965111877,0.0033597588,0.030543262,-0.024129177
62,1436965111878,0.004276057,0.0290161,-0.021991149
63,1436965111879,-0.005192355,0.028099801,-0.018936822
64,1436965111952,-0.002443461,0.03145956,-0.023518313
65,1436965111953,-0.0033597588,0.032986723,-0.026267206
66,1436965111954,-0.0012217305,0.040011674,-0.025045475
67,1436965111955,0.0018325958,0.034208454,-0.025045475
68,1436965111966,0.0,0.029626964,-0.023823744
69,1436965111983,0.0018325958,0.03023783,-0.024129177
70,1436965112003,0.006414085,0.029932396,-0.027794369
71,1436965112022,0.01038471,0.034513887,-0.029932396
72,1436965112044,0.0061086523,0.03359759,-0.02687807
73,1436965112062,0.002443461,0.03145956,-0.024129177
74,1436965112087,-0.0015271631,0.03145956,-0.022907447
75,1436965112106,-0.0030543262,0.03268129,-0.025350908
76,1436965112123,0.0012217305,0.033292156,-0.026572637
77,1436965112143,0.008552114,0.046120327,-0.022907447
78,1436965112165,0.0067195175,0.028710667,-0.01282817
79,1436965112184,-0.0018325958,0.013133603,-0.005497787
80,1436965112211,0.0027488936,0.01985312,-0.02321288
81,1436965112224,-0.00030543262,0.027794369,-0.033292156
82,1436965112245,0.0015271631,0.041233405,-0.031154128
83,1436965112263,-0.0033597588,0.030848695,-0.027183503
84,1436965112285,-0.008552114,0.027488936,-0.020158553
85,1436965112305,-0.003970624,0.025045475,-0.018936822
86,1436965112326,-0.006414085,0.021380283,-0.015882496
87,1436965112342,-0.009468411,0.022907447,-0.018936822
88,1436965112365,-0.014966198,0.023518313,-0.018936822
89,1436965112385,-0.016493361,0.02107485,-0.020158553
90,1436965112405,-0.017715093,0.01985312,-0.02107485
91,1436965112426,-0.015271631,0.029321533,-0.024740042
92,1436965112445,-0.014966198,0.022602014,-0.018020526
93,1436965112465,-0.016187929,0.02107485,-0.016187929
94,1436965112485,-0.018936822,0.02076942,-0.015882496
95,1436965112518,-0.012217305,0.025350908,-0.023823744
96,1436965112525,-0.01282817,0.02443461,-0.01985312
97,1436965112542,-0.009468411,0.023823744,-0.022296581
98,1436965112562,-0.014049901,0.026267206,-0.01740966
99,1436965112583,-0.013133603,0.026572637,-0.015882496
100,1436965112602,-0.01038471,0.021991149,-0.01985312
101,1436965112646,-0.007941248,0.025961773,-0.025045475
102,1436965112655,-0.008857546,0.031154128,-0.021380283
103,1436965112662,-0.006414085,0.026267206,-0.020158553
104,1436965112682,-0.0106901415,0.023518313,-0.022602014
105,1436965112703,-0.009162978,0.03390302,-0.020463986
106,1436965112726,-0.011911872,0.03176499,-0.018325957
107,1436965112742,-0.0070249503,0.027794369,-0.020463986
108,1436965112763,-0.012217305,0.029321533,-0.018020526
109,1436965112786,-0.0018325958,0.02687807,-0.026267206
110,1436965112802,0.00061086525,0.029932396,-0.023518313
111,1436965112823,-0.0033597588,0.03023783,-0.021685716
112,1436965112848,-0.0036651916,0.023823744,-0.02687807
113,1436965112863,-0.002443461,0.022296581,-0.025961773
114,1436965112886,-0.01038471,0.025350908,-0.023823744
115,1436965112905,-0.006414085,0.030543262,-0.02107485
116,1436965112926,-0.00580322,0.028405234,-0.021991149
117,1436965112946,-0.013133603,0.027183503,-0.023823744
118,1436965112966,-0.004886922,0.027488936,-0.028710667
119,1436965112986,-0.0061086523,0.029932396,-0.028405234
120,1436965113006,-0.0076358155,0.028099801,-0.02443461
121,1436965113026,-0.0070249503,0.025961773,-0.024129177
122,1436965113046,-0.0012217305,0.024129177,-0.024129177
123,1436965113066,-0.0030543262,0.026267206,-0.025350908
124,1436965113083,-0.0027488936,0.022296581,-0.026267206
125,1436965113106,-0.002443461,0.023518313,-0.02687807
126,1436965113126,-0.004581489,0.022907447,-0.024740042
127,1436965113149,-0.006414085,0.034208454,-0.025350908
128,1436965113167,-0.00061086525,0.032070424,-0.02443461
129,1436965113184,-0.008552114,0.02443461,-0.01985312
130,1436965113205,-0.009162978,0.022602014,-0.018936822
131,1436965113227,-0.0018325958,0.020463986,-0.023823744
132,1436965113245,-0.007330383,0.027488936,-0.021991149
133,1436965113267,-0.009468411,0.03145956,-0.02443461
134,1436965113306,-0.0067195175,0.036651913,-0.023823744
135,1436965113307,-0.002443461,0.03481932,-0.027183503
136,1436965113340,0.0012217305,0.03176499,-0.028099801
137,1436965113343,-0.0018325958,0.025350908,-0.02565634
138,1436965113600,-0.0021380284,0.02443461,-0.028099801
139,1436965113601,0.00030543262,0.028710667,-0.027488936
140,1436965113602,-0.0021380284,0.0290161,-0.025045475
141,1436965113603,-0.00061086525,0.028099801,-0.026572637
142,1436965113604,-0.0021380284,0.027183503,-0.0290161
143,1436965113605,0.0009162979,0.03176499,-0.030543262
144,1436965113606,-0.0012217305,0.02687807,-0.027794369
145,1436965113607,-0.009162978,0.019547688,-0.022907447
146,1436965113608,-0.004581489,0.0290161,-0.026572637
147,1436965113609,-0.009162978,0.03359759,-0.025350908
148,1436965113610,-0.004581489,0.029932396,-0.02107485
149,1436965113611,0.0033597588,0.021380283,-0.02565634
150,1436965113612,-0.008552114,0.021991149,-0.01863139
151,1436965113623,0.0,0.025045475,-0.022296581
152,1436965113644,-0.0067195175,0.025350908,-0.020463986
153,1436965113665,-0.0009162979,0.027488936,-0.020158553
154,1436965113685,-0.0027488936,0.03023783,-0.024129177
155,1436965113705,-0.008246681,0.028405234,-0.019242255
156,1436965113725,-0.0106901415,0.030543262,-0.020158553
157,1436965113767,-0.006414085,0.028099801,-0.02321288
158,1436965113768,-0.004886922,0.03176499,-0.021380283
159,1436965113785,-0.005192355,0.027488936,-0.021991149
160,1436965113804,-0.0033597588,0.029932396,-0.026572637
161,1436965113826,-0.009162978,0.03604105,-0.02321288
162,1436965113848,-0.008246681,0.029321533,-0.022907447
163,1436965113865,-0.0036651916,0.029932396,-0.030848695
164,1436965113884,0.0,0.032986723,-0.031154128
165,1436965113906,-0.0009162979,0.0290161,-0.025961773
166,1436965113923,-0.005497787,0.025961773,-0.026267206
167,1436965113943,-0.007330383,0.03145956,-0.02443461
168,1436965113963,-0.0067195175,0.031154128,-0.020158553
169,1436965113989,-0.005192355,0.028405234,-0.025350908
170,1436965114008,-0.011301007,0.034513887,-0.019242255
171,1436965114028,-0.010995574,0.032070424,-0.018020526
172,1436965114046,-0.016798794,0.03145956,-0.0125227375
173,1436965114064,-0.02321288,0.03573562,-0.00061086525
174,1436965114092,-0.022602014,0.040927973,0.013744468
175,1436965114108,-0.02107485,0.0290161,0.018325957
176,1436965114125,-0.0143553335,0.027488936,0.02443461
177,1436965114143,-0.013133603,0.012217305,0.029932396
178,1436965114164,-0.005497787,-0.00030543262,0.030543262
179,1436965114184,0.0012217305,-0.005192355,0.00580322
180,1436965114205,0.016798794,-0.005497787,-0.016798794
181,1436965114224,0.020463986,0.0070249503,-0.016187929
182,1436965114247,0.010079277,-0.0030543262,0.00061086525
183,1436965114267,0.00580322,-0.020158553,-0.010995574
184,1436965114287,0.0012217305,0.013439035,-0.016187929
185,1436965114305,-0.004581489,0.03268129,-0.015271631
186,1436965114327,-0.0015271631,0.04642576,-0.0036651916
187,1436965114347,-0.003970624,0.043066,0.012217305
188,1436965114367,-0.0009162979,0.031154128,0.041233405
189,1436965114387,-0.008552114,0.0012217305,0.06261369
190,1436965114407,-0.007941248,-0.02443461,0.07452556
191,1436965114427,-0.005497787,-0.03634648,0.080634214
192,1436965114447,-0.019547688,-0.03604105,0.11026118
193,1436965114466,-0.03176499,-0.063224554,0.16371189
194,1436965114487,-0.03573562,-0.09896017,0.20616703
195,1436965114505,-0.046731193,-0.1554652,0.2611449
196,1436965114526,-0.051923547,-0.17073683,0.28344148
197,1436965114546,-0.03634648,-0.22632557,0.2751948
198,1436965114568,-0.019242255,-0.27091873,0.27977628
199,1436965114588,-0.023823744,-0.28252518,0.23151793
200,1436965114609,-0.024129177,-0.26206118,0.16920967
201,1436965114628,-0.005192355,-0.13805555,0.04886922
202,1436965114646,0.032986723,0.105068825,-0.07422013
203,1436965114666,0.080634214,0.27214047,-0.129198
204,1436965114706,0.116980694,0.2773328,-0.18234327
205,1436965114707,0.14172074,0.23273966,-0.2443461
206,1436965114823,0.1337795,0.21777347,-0.31123585
207,1436965114824,0.102319926,0.26816985,-0.38056904
208,1436965114825,0.047647487,0.37415496,-0.36468655
209,1436965114826,-0.04642576,0.44073927,-0.2947425
210,1436965114827,-0.16157386,0.43799037,-0.16126843
211,1436965114828,-0.25167647,0.4373795,-0.082161374
212,1436965114845,-0.33322698,0.52626044,0.007330383
213,1436965114866,-0.38545597,0.5839872,0.0870483
214,1436965114885,-0.43982297,0.5375614,0.19394971
215,1436965114908,-0.4905248,0.43371433,0.26358834
216,1436965114925,-0.539394,0.3839288,0.30818152
217,1436965114946,-0.59223384,0.43157628,0.39370266
218,1436965114965,-0.63499445,0.46120325,0.5122105
219,1436965114985,-0.65484756,0.42271876,0.6053675
220,1436965115005,-0.67164636,0.36896262,0.6951646
221,1436965115028,-0.7281514,0.40622538,0.7510588
222,1436965115047,-0.75808376,0.59681535,0.752586
223,1436965115068,-0.76174897,0.54305923,0.66767573
224,1436965115088,-0.71868294,0.40683624,0.4831944
225,1436965115108,-0.6963864,0.4129449,0.35827246
226,1436965115128,-0.6808093,0.52381694,0.2434298
227,1436965115148,-0.72143185,0.5497787,0.13775012
228,1436965115168,-0.7675522,0.50701815,0.09712757
229,1436965115186,-0.84849185,0.49449542,0.004581489
230,1436965115208,-0.90010995,0.43493605,-0.19914207
231,1436965115228,-0.8897252,0.63132924,-0.43860126
232,1436965115245,-0.8402451,0.799928,-0.5867361
233,1436965115265,-0.7272351,0.86620694,-0.65484756
234,1436965115285,-0.6001751,1.0818423,-0.7458665
235,1436965115311,-0.45356745,1.4862351,-0.7870999
236,1436965115331,-0.2919936,1.8854356,-0.75625116
237,1436965115351,-0.13316862,2.3167064,-0.8008443
238,1436965115368,-0.02076942,2.9791899,-0.7959574
239,1436965115385,0.05681047,3.7278051,-0.8436049
240,1436965115406,0.3371976,4.872872,-0.59040123
241,1436965115425,0.4642576,5.4583864,-0.6462954
242,1436965115447,0.7330383,5.7778687,-1.1059716
243,1436965115469,1.0595458,7.2305064,-1.9996674
244,1436965115536,0.5369505,8.652906,-2.0803015
245,1436965115537,0.40653083,7.4171257,-0.9126327
246,1436965115538,0.7473936,5.392413,-0.89858276
247,1436965115546,0.7257079,3.653585,-1.3341297
248,1436965115571,0.593761,3.2485814,-0.9126327
249,1436965115587,0.39492437,2.9798007,-0.119729586
250,1436965115605,0.23090707,2.259896,0.3368922
251,1436965115627,0.009162978,1.5308284,0.38056904
252,1436965115646,-0.17715092,1.1896601,0.36010507
253,1436965115668,-0.07269296,0.87017757,0.83291477
254,1436965115687,-0.105068825,0.6618725,0.9379836
255,1436965115708,-0.073303826,0.3726278,0.7480045
256,1436965115727,-0.014049901,0.28863382,0.68966687
257,1436965115749,-0.18051068,0.729984,0.21533
258,1436965115769,0.2406809,0.88239485,-0.2846632
259,1436965115789,0.124005646,0.86559606,-0.71776664
260,1436965115809,0.0983493,0.3109304,-0.79717916
261,1436965115829,0.022602014,0.33964106,-0.63316184
262,1436965115849,0.19456059,-0.08857546,-0.52473325
263,1436965115869,0.13225232,-0.79168135,-0.3390302
264,1436965115889,0.040011674,-0.84665924,-0.31673363
265,1436965115910,0.030543262,-0.4999932,-0.45204028
266,1436965115926,0.046731193,0.4279111,-0.36682457
267,1436965115949,-0.008552114,0.6637051,-0.11942416
268,1436965115966,-0.3378085,0.17531833,0.18600847
269,1436965115986,-0.5002986,-0.160963,0.29046643
270,1436965116006,-0.51343226,0.27152961,0.25870144
271,1436965116030,-0.36651915,0.4361578,0.17715092
272,1436965116050,-0.25625798,0.33658674,0.30879238
273,1436965116070,-0.124005646,-0.10293079,0.27397305
274,1436965116089,-0.014049901,-0.19608775,0.19028452
275,1436965116106,0.172264,0.33536503,0.11881329
276,1436965116126,0.22785273,0.80756384,0.25503623
277,1436965116147,0.043982297,1.071763,0.44532076
278,1436965116168,0.04184427,0.947452,0.2565634
279,1436965116186,0.007941248,1.4333953,0.06536258
280,1436965116241,0.12461651,1.8729129,-0.11362094
281,1436965116242,-0.043676864,2.5027149,0.10598512
282,1436965116259,-0.04734206,2.1426098,0.11301007
283,1436965116266,-0.13439035,2.147802,-0.0711658
284,1436965116286,-0.3912592,2.579073,-0.35308012
285,1436965116307,-0.5381723,2.1465805,-0.3979787
286,1436965116326,-0.364992,1.1163563,-0.29565877
287,1436965116348,-0.19639318,-0.3539964,-0.5216789
288,1436965116366,-0.15118915,-1.565953,-0.6053675
289,1436965116387,-0.024740042,-1.2702943,-0.8356637
290,1436965116412,0.058643065,-0.87964594,-1.349096
291,1436965116427,0.17592919,-0.17256944,-1.3399329
292,1436965116448,0.23090707,0.043982297,-1.3249667
293,1436965116469,0.113926366,-0.0106901415,-1.3326025
294,1436965116489,0.18845193,0.116675265,-1.2009611
295,1436965116509,0.30634892,0.13958271,-1.3374895
296,1436965116529,0.16187929,-0.03390302,-1.3729197
297,1436965116549,0.047036625,0.12797627,-0.95111716
298,1436965116569,0.06383542,-0.14110987,-0.8374963
299,1436965116589,-0.046120327,-0.42760566,-0.7101309
300,1436965116609,-0.27397305,-0.5045747,-0.35338554
301,1436965116629,-0.42180246,-0.30298916,0.016187929
302,1436965116646,-0.50793445,-0.15943582,0.43066
303,1436965116670,-0.57360244,-0.10170906,0.7290677
304,1436965116690,-0.6243043,0.16065755,1.1420126
305,1436965116710,-0.71776664,0.45631635,1.4651603
306,1436965116729,-0.86406887,0.68233645,2.0115793
307,1436965116748,-1.0360274,0.81153446,2.4260514
308,1436965116767,-1.1389582,0.6600399,2.6612344
309,1436965116832,-1.1838568,0.4578435,2.8787024
310,1436965116833,-1.1688906,-0.1563815,3.0928106
311,1436965116834,-1.1893547,-0.5335908,3.2381966
312,1436965116849,-1.2030991,-0.5369505,3.2443054
313,1436965116868,-1.1377366,-0.23823744,3.1884112
314,1436965116888,-1.0454959,0.19517145,2.9492574
315,1436965116908,-0.9425651,0.27550024,1.7782288
316,1436965116930,-0.92087936,-0.66553766,2.3445008
317,1436965116997,-0.8680395,1.0027353,2.4367414
318,1436965116998,-0.743423,1.0354166,1.59558
319,1436965116999,-0.59131753,-0.010079277,1.1395692
320,1436965117006,-0.5015204,0.099571034,0.9639453
321,1436965117027,-0.3921755,0.3191771,0.5119051
322,1436965117047,-0.13836098,-0.1133155,0.03390302
323,1436965117067,-0.12064589,-0.03268129,-0.5305365
324,1436965117089,-0.08735373,0.024129177,-0.75625116
325,1436965117107,-0.14782938,-0.074830994,-0.5525276
326,1436965117127,-0.030848695,-0.3118467,-0.39064834
327,1436965117148,-0.14630222,-1.1438452,-0.5723807
328,1436965117168,-0.37720928,-1.2822062,-0.8368854
329,1436965117189,-0.45540005,-0.8151997,-0.729984
330,1436965117210,-0.36835176,-0.3848451,-0.61422503
331,1436965117230,-0.22204952,-0.35185838,-0.36163223
332,1436965117250,-0.10262536,-0.24404067,-0.14202617
333,1436965117270,-0.04062254,-0.05131268,-0.11881329
334,1436965117290,-0.040011674,0.16646078,-0.17379116
335,1436965117310,-0.02565634,0.56199604,-0.14477506
336,1436965117330,0.047036625,0.7892379,-0.07544186
337,1436965117350,0.06261369,0.8179486,-0.006414085
338,1436965117370,0.070554934,0.8530733,0.1001819
339,1436965117388,0.10445796,0.8891144,0.17165314
340,1436965117410,0.16615535,0.68691796,0.23732115
341,1436965117429,0.18997909,0.5009095,0.3155119
342,1436965117449,0.20861048,0.3231477,0.33536503
343,1436965117470,0.17348573,0.24923302,0.31490102
344,1436965117489,0.07452556,0.24587326,0.26908615
345,1436965117508,-0.012217305,0.2764165,0.23304509
346,1436965117528,-0.041233405,0.29840767,0.17501289
347,1436965117548,-0.06505715,0.20738874,0.105068825
348,1436965117570,-0.09407325,0.035430185,0.09132435
349,1436965117589,-0.12461651,-0.09987647,0.09010262
350,1436965117609,-0.0888809,-0.183565,-0.022602014
351,1436965117628,0.010079277,-0.08124508,-0.2098322
352,1436965117655,0.112399206,0.11942416,-0.4129449
353,1436965117729,0.1423316,0.23915374,-0.6429357
354,1436965117730,0.34574974,0.40683624,-0.72418076
355,1436965117731,0.47250426,0.36957347,-0.9407325
356,1436965117732,0.5546656,0.12034045,-0.93431836
357,1436965117749,0.77091193,0.13164146,-1.0641272
358,1436965117773,0.76144356,-0.398895,-1.3811663
359,1436965117788,0.77182823,-0.023518313,-1.5387696
360,1436965117807,0.85918194,0.441961,-1.7348573
361,1436965117841,0.8677341,0.6001751,-1.8719965
362,1436965117847,0.96944314,0.5687156,-1.9107865
363,1436965117868,1.1233811,0.29749137,-2.0631974
364,1436965117890,1.1786644,-0.15882497,-2.1820107
365,1436965117907,1.205848,-0.15760323,-2.2537873
366,1436965117927,1.2363913,-0.1881465,-2.331978
367,1436965117950,1.2742649,-0.17195857,-2.3399193
368,1436965117968,1.2956452,-0.13927728,-2.3487768
369,1436965117991,1.2797627,-0.12797627,-2.3069327
370,1436965118011,1.2278391,-0.109650314,-2.2088888
371,1436965118031,1.178359,-0.08979719,-2.094046
372,1436965118048,1.0913107,-0.103847094,-1.93797
373,1436965118069,0.9560041,-0.050396383,-1.7938058
374,1436965118091,0.840856,0.09865474,-1.7186694
375,1436965118110,0.7098254,0.16920967,-1.5268577
