id,attr_time,attr_x,attr_y,attr_z
1,1436965110645,0.0042760614,0.006360974,0.0039839046
2,1436965110646,0.008246684,0.021327173,0.0137577485
3,1436965110647,0.0042760614,0.010942463,0.016201211
4,1436965110660,-0.0039706193,0.014607657,0.012536018
5,1436965110680,-0.0030543227,0.015829386,0.0076490957
6,1436965110700,0.0018326007,-0.0028020032,0.010397989
7,1436965110722,0.009162983,0.00483381,0.013452316
8,1436965110741,0.012217309,0.027741259,0.014368613
9,1436965110762,0.0015271679,0.01277506,0.014368613
10,1436965110782,-0.0018325914,-0.003107436,0.01406318
11,1436965110802,0.0027488973,-0.008910656,0.01161972
12,1436965110823,0.0079412535,-0.0015802719,0.019560969
13,1436965110842,0.0042760614,0.019494578,0.027196785
14,1436965110860,0.0015271679,0.028657556,0.025669621
15,1436965110882,0.004886927,0.014913088,0.023837026
16,1436965110901,0.013744473,0.013080493,0.020171834
17,1436965110923,0.01710423,0.01857828,0.024142459
18,1436965110943,0.02290745,0.022243472,0.020477267
19,1436965110962,0.021074854,0.03384991,0.017117508
20,1436965110980,-0.008552109,0.022854336,0.018644672
21,1436965111003,-0.0058032153,0.0033066496,0.023531593
22,1436965111023,0.00885755,0.014913088,0.018644672
23,1436965111043,0.023518316,0.014302224,0.025364188
24,1436965111063,0.018325962,-0.009216089,0.028723948
25,1436965111082,0.005192358,0.002695784,0.02658592
26,1436965111103,0.0058032237,-0.004940033,0.025669621
27,1436965111123,0.0079412535,-0.007383492,0.02200443
28,1436965111141,0.007024955,0.004528377,0.019255536
29,1436965111164,0.012217309,0.007888138,0.020171834
30,1436965111235,0.01007928,0.00697184,0.021088133
31,1436965111236,0.011301011,0.002695784,0.01161972
32,1436965111237,0.0076358207,0.009720735,0.016201211
33,1436965111241,0.009468416,-0.004940033,0.018644672
34,1436965111262,0.0064140894,-0.0021911375,0.014674046
35,1436965111283,0.008552117,-0.0006639771,0.016812075
36,1436965111301,0.008552117,-0.0079943575,0.013452316
37,1436965111325,0.009468416,-0.01043782,0.01161972
38,1436965111344,0.0036651958,-0.015019309,0.017117508
39,1436965111362,0.0021380335,-0.010132387,0.015590345
40,1436965111383,-0.0036651865,-0.0028020032,0.016812075
41,1436965111403,-0.00061086006,-0.0037183017,0.011314288
42,1436965111424,0.010690145,-0.010132387,0.011314288
43,1436965111445,0.006719522,0.004528377,0.008870826
44,1436965111463,-0.004581485,-0.0061617643,0.012536018
45,1436965111484,-0.004276052,-0.01990623,0.022309862
46,1436965111504,-0.0015271585,-0.008605223,0.01742294
47,1436965111524,0.0027488973,-0.014408443,0.005205635
48,1436965111545,0.0030543301,-0.034261562,0.015284912
49,1436965111564,-0.0003054291,-0.02723661,0.013146883
50,1436965111584,0.0042760614,-0.017462768,0.023531593
51,1436965111604,0.0079412535,-0.0015802719,0.018644672
52,1436965111626,0.012828175,-0.003107436,0.016201211
53,1436965111641,0.012828175,-0.006467197,0.017728373
54,1436965111662,0.010995578,-0.0028020032,0.012536018
55,1436965111681,0.014049906,0.00025232136,0.013452316
56,1436965111703,0.009162983,0.015523953,0.017728373
57,1436965111722,0.0064140894,0.010026164,0.008870826
58,1436965111746,0.011301011,-0.011964984,0.010397989
59,1436965111766,0.01007928,-0.013186712,0.008870826
60,1436965111786,0.014049906,-0.013186712,0.007954529
61,1436965111804,0.007024955,-0.003107436,0.016201211
62,1436965111822,0.011301011,0.0020849183,0.015590345
63,1436965111842,0.0076358207,0.0014740527,0.009787125
64,1436965111863,0.0045814943,0.0011686198,0.015590345
65,1436965111883,0.013439041,-0.00096940994,0.019255536
66,1436965111902,0.00885755,-0.0018857047,0.018033806
67,1436965111963,0.010384712,0.012164194,0.014368613
68,1436965111974,-0.0051923506,0.0014740527,0.006732798
69,1436965111975,-0.01099557,-0.023265988,0.0137577485
70,1436965111981,0.0027488973,-0.009826954,0.015895778
71,1436965112004,0.0079412535,-0.004940033,0.015284912
72,1436965112025,0.0021380335,-0.022044256,0.014979479
73,1436965112041,-0.0012217257,-0.011964984,0.017117508
74,1436965112067,0.0030543301,-0.021738827,0.014368613
75,1436965112083,0.007024955,-0.014408443,0.017728373
76,1436965112102,0.0076358207,-0.010132387,0.018033806
77,1436965112122,0.0064140894,0.009720735,0.01406318
78,1436965112142,0.006719522,0.017356548,0.012536018
79,1436965112167,0.006719522,0.005139243,0.009481692
80,1436965112185,0.0079412535,0.0036120825,0.012230585
81,1436965112204,0.00885755,-0.015935607,0.009787125
82,1436965112225,0.010690145,-0.01257585,0.01406318
83,1436965112245,0.0039706286,0.0023903511,0.012841451
84,1436965112265,0.0064140894,-0.0015802719,0.015284912
85,1436965112284,0.0061086565,-0.009216089,0.008259961
86,1436965112305,0.0042760614,-0.005245466,0.007343663
87,1436965112325,-0.00061086006,-0.0024965703,0.01406318
88,1436965112345,-0.00061086006,0.010026164,0.0137577485
89,1436965112363,-0.0036651865,0.006666407,0.01406318
90,1436965112384,-0.0027488898,-0.0028020032,0.012841451
91,1436965112405,-0.0039706193,0.0005577542,0.008259961
92,1436965112423,-0.029321527,0.008804437,-0.00090301724
93,1436965112443,-0.04673119,-0.015935607,0.007343663
94,1436965112462,-0.04245513,-5.3111464e-05,0.024447892
95,1436965112487,-0.03207042,0.0075827055,0.0045947703
96,1436965112507,-0.033292152,-0.026014887,-0.0054845065
97,1436965112527,-0.03878994,-0.033956133,-0.003346478
98,1436965112545,-0.046120323,-0.030901805,0.0021513088
99,1436965112562,-0.04092797,-0.029680073,0.0030676068
100,1436965112582,-0.047036618,-0.032123536,-0.011287726
101,1436965112605,-0.051923543,-0.02723661,-0.020145271
102,1436965112623,-0.04367686,-0.031207241,-0.018007243
103,1436965112646,-0.031764988,-0.01837907,-0.003346478
104,1436965112698,-0.037262775,-0.007383492,0.0033730397
105,1436965112699,-0.040011667,0.0039175153,0.0058165006
106,1436965112717,-0.047952916,0.0014740527,0.008565394
107,1436965112723,-0.041844264,-0.0006639771,0.020477267
108,1436965112744,-0.035430178,0.006666407,0.022615295
109,1436965112765,-0.021074846,0.013691358,0.020171834
110,1436965112782,0.008552117,0.043623753,0.018339239
111,1436965112808,0.042149704,0.035377074,0.017117508
112,1436965112823,0.071471244,0.0243815,0.0021513088
113,1436965112842,0.10018191,0.01063703,-0.030835414
114,1436965112863,0.12003502,-0.028458342,-0.07512314
115,1436965112885,0.11270465,-0.0767167,-0.107499
116,1436965112905,0.09254609,-0.13658148,-0.12765755
117,1436965112925,0.063224554,-0.18178552,-0.114829384
118,1436965112945,0.09529498,-0.21110705,-0.065349296
119,1436965112965,0.15332718,-0.18300724,-0.014342053
120,1436965112986,0.28344148,-0.15185311,0.06445957
121,1436965113006,0.43310347,-0.11581207,0.150897
122,1436965113025,0.54458636,-0.07091348,0.20343141
123,1436965113045,0.61666846,-0.06816459,0.21473242
124,1436965113065,0.68264186,-0.06969175,0.2070966
125,1436965113085,0.745561,-0.059612475,0.1912141
126,1436965113107,0.8335256,-0.043729976,0.18327285
127,1436965113125,0.9227119,-0.044035405,0.18999237
128,1436965113145,1.0580186,-0.04342454,0.20343141
129,1436965113165,1.1942415,-0.07824386,0.20373684
130,1436965113184,1.2873985,-0.11123059,0.20831834
131,1436965113204,1.3927728,-0.1039002,0.19151954
132,1436965113226,1.4553864,-0.08221448,0.17777507
133,1436965113245,1.4807373,-0.055336416,0.18449458
134,1436965113266,1.4950926,-0.069997184,0.19518472
135,1436965113285,1.5467107,-0.099318705,0.21412155
136,1436965113305,1.6383406,-0.11428491,0.22786602
137,1436965113324,1.7244725,-0.12650222,0.20251511
138,1436965113344,1.785559,-0.23004389,0.18999237
139,1436965113365,1.8231273,-0.32411712,0.20343141
140,1436965113389,1.7458528,-0.33419642,0.17349902
141,1436965113446,1.6505579,-0.20102778,0.12401892
142,1436965113447,1.6071864,-0.06449939,0.12737869
143,1436965113448,1.5415184,-0.023876853,0.16189258
144,1436965113469,1.4611896,-0.10542736,0.18785435
145,1436965113483,1.423316,-0.18209097,0.20037708
146,1436965113506,1.4248432,-0.12008814,0.19274127
147,1436965113523,1.5036448,0.018272847,0.054991152
148,1436965113543,1.4880677,-0.12619677,-0.19973965
149,1436965113565,1.2767084,-0.533033,-0.26418594
150,1436965113584,1.029308,-0.43315658,0.043384712
151,1436965113625,1.171945,-0.119171835,0.5204705
152,1436965113626,1.6523905,-0.1796475,0.7202234
153,1436965113643,2.0845778,-0.33663988,0.56109303
154,1436965113662,2.4089472,-0.5376145,0.107831
155,1436965113686,2.2705863,-0.80853325,-0.025643058
156,1436965113706,2.0561726,-0.5483046,0.33660004
157,1436965113726,1.7980819,0.033544477,0.61271113
158,1436965113746,1.5836681,0.22505072,0.70464635
159,1436965113766,1.557401,0.078137636,0.5122238
160,1436965113786,1.6542231,-0.19278109,0.3463739
161,1436965113807,1.8075502,-0.26272517,0.27123746
162,1436965113824,1.8936822,-0.13719237,0.36378354
163,1436965113846,1.9593502,0.041180294,0.4392254
164,1436965113864,1.9636263,-0.0012748428,0.38241494
165,1436965113884,1.856114,-0.18209097,0.2379453
166,1436965113908,1.7293595,-0.34366482,0.1799131
167,1436965113926,1.7195857,-0.2779968,0.18968694
168,1436965113945,1.7916677,-0.16193241,0.16708493
169,1436965113964,1.908343,-0.10023501,0.10996903
170,1436965113986,1.9449949,-0.06908088,0.07912033
171,1436965114006,1.885741,-0.12436419,0.058045477
172,1436965114030,1.74738,-0.20011148,0.01742294
173,1436965114046,1.6300939,-0.26089257,0.006732798
174,1436965114066,1.5625932,-0.24745354,-0.0039573433
175,1436965114086,1.5274686,-0.23309821,-0.00120845
176,1436965114106,1.4398093,-0.27249902,0.007954529
177,1436965114123,1.353372,-0.32136825,0.027196785
178,1436965114194,1.2565498,-0.34733,0.02780765
179,1436965114196,1.1640037,-0.33847246,-0.04060926
180,1436965114198,1.0085385,-0.36443424,-0.2180656
181,1436965114213,0.7953465,-0.4887453,-0.38483182
182,1436965114224,0.57910025,-0.5828185,-0.38147205
183,1436965114249,0.43493608,-0.6041988,-0.31885839
184,1436965114265,0.25656343,-0.585262,-0.29136944
185,1436965114283,0.14202617,-0.5150125,-0.23822416
186,1436965114304,0.2489276,-0.45698032,-0.09772515
187,1436965114323,0.6383542,-0.51562333,0.0076490957
188,1436965114345,0.84421575,-0.514707,-0.13682052
189,1436965114364,0.5448918,-0.2553948,-0.35856462
190,1436965114385,0.21166481,-0.27341533,-0.345431
191,1436965114405,0.0024434645,-0.47805515,-0.13040644
192,1436965114436,0.122173056,-0.41605234,0.08461812
193,1436965114464,0.29932398,0.11265153,0.06598673
194,1436965114465,0.37782016,0.24551472,-0.050688535
195,1436965114483,0.33475417,0.124563396,-0.08520242
196,1436965114503,0.21166481,0.13189378,0.066903025
197,1436965114523,0.16646078,0.46786967,0.19060324
198,1436965114543,0.16310103,0.7085506,0.18724348
199,1436965114564,0.1872302,0.7824653,0.09988975
200,1436965114584,0.16920967,0.95350754,-0.029002817
201,1436965114603,-0.013439031,1.0094017,-0.14231832
202,1436965114624,-0.42332962,0.85057676,-0.23150465
203,1436965114644,-0.5702427,0.7693317,-0.12735212
204,1436965114663,-0.29382616,1.0145941,-0.009149699
205,1436965114688,-0.006414081,1.2174014,-0.028697385
206,1436965114704,0.12553282,1.1770842,-0.20218311
207,1436965114728,-0.1640173,0.7638339,-0.33932236
208,1436965114747,-0.54886246,0.48100325,-0.31733122
209,1436965114763,-0.63774335,0.52773446,-0.21501128
210,1436965114783,-0.3894266,0.61569905,-0.048245076
211,1436965114803,0.054672446,0.7531438,0.02322616
212,1436965114824,0.22540928,0.9709172,-0.01739638
213,1436965114846,-0.0058032153,1.0714046,-0.057408053
214,1436965114869,-0.37873644,0.9941301,0.00092957844
215,1436965114883,-0.43371433,0.82705843,0.11516138
216,1436965114903,-0.30512717,0.7143538,0.17869137
217,1436965114924,-0.08552113,0.67098236,0.19854449
218,1436965114943,0.0076358207,0.6807562,0.14142859
219,1436965114964,-0.029321527,0.8004858,0.107220136
220,1436965114983,-0.09498954,0.9131904,0.095613696
221,1436965115003,-0.13408491,0.92113173,0.09836259
222,1436965115025,-0.11698069,0.81117594,0.12127003
223,1436965115047,-0.05772676,0.69327897,0.09927888
224,1436965115067,-0.020158548,0.6141719,0.056518316
225,1436965115085,0.009773849,0.5536963,0.010397989
226,1436965115103,0.051007252,0.45809582,-0.031140847
227,1436965115124,0.08491027,0.43396664,-0.038165797
228,1436965115145,0.100792766,0.4455731,-0.026559357
229,1436965115167,0.06811148,0.46115014,0.010703422
230,1436965115187,0.026572641,0.4437405,0.05132596
231,1436965115207,0.014049906,0.39762017,0.065070435
232,1436965115227,0.0009163022,0.33378473,0.03727606
233,1436965115246,-0.010690138,0.2314648,0.0137577485
234,1436965115268,-0.014660762,0.15999359,0.007343663
235,1436965115285,-0.004276052,0.11204066,0.002762174
236,1436965115305,0.042149704,0.051870435,0.0030676068
237,1436965115324,0.09529498,-0.00096940994,0.043690145
238,1436965115346,0.10170907,0.03476621,0.033916302
239,1436965115368,0.075747296,0.11845475,-0.0015138825
240,1436965115388,0.04825836,0.26720044,-0.01525835
241,1436965115408,0.07055494,0.35241613,-0.025337627
242,1436965115439,0.07360926,0.3933441,-0.030835414
243,1436965115443,0.044898603,0.40861574,-0.050383102
244,1436965115464,-0.024129173,0.4168624,-0.09405997
245,1436965115484,-0.061391953,0.39762017,-0.12002174
246,1436965115525,-0.06719518,0.29804912,-0.08917304
247,1436965115526,-0.09560041,0.1957292,-0.03388974
248,1436965115545,-0.10781771,0.18167931,-0.029613683
249,1436965115564,-0.059559356,0.24429297,-0.032973442
250,1436965115587,-0.018936818,0.2314648,-0.00029215205
251,1436965115604,0.034208458,0.34264228,0.044606443
252,1436965115624,0.06872234,0.5008564,0.05468572
253,1436965115644,0.08368854,0.54544955,0.05835091
254,1436965115667,0.0571159,0.47520006,0.01742294
255,1436965115684,-0.030543257,0.2574266,-0.0039573433
256,1436965115706,-0.046120323,0.12242537,0.026891353
257,1436965115727,0.012522742,0.26658958,0.022309862
258,1436965115748,0.11270465,0.31515336,0.013452316
259,1436965115766,0.14446963,0.22046924,0.024447892
260,1436965115788,0.11270465,0.16824026,0.050409663
261,1436965115807,0.06750062,0.17526522,0.07514971
262,1436965115825,0.018631395,0.22169098,0.072400816
263,1436965115849,0.014660772,0.2574266,0.08492355
264,1436965115867,0.028405238,0.2256616,0.10813643
265,1436965115888,0.05864307,0.13097748,0.11516138
266,1436965115906,0.0852157,0.023465201,0.08919961
267,1436965115927,0.08155051,-0.052892953,0.101722345
268,1436965115949,0.06139196,-0.011659551,0.12524065
269,1436965115967,0.05131268,0.10684831,0.14051229
270,1436965115988,0.059559364,0.23665717,0.0937811
271,1436965116007,0.032681294,0.1563284,0.036665194
272,1436965116026,-0.012828166,-0.020211667,0.01406318
273,1436965116047,-0.06505714,-0.13138914,0.0064273654
274,1436965116067,-0.07544185,-0.21813202,0.017117508
275,1436965116088,-0.047036618,-0.22057548,0.024447892
276,1436965116107,-0.040317103,-0.16376498,0.019560969
277,1436965116127,-0.04520402,-0.11367405,0.0064273654
278,1436965116147,-0.03878994,-0.059917904,0.006732798
279,1436965116173,-0.052228972,-0.011659551,0.0042893374
280,1436965116232,-0.08552113,0.03812597,0.012536018
281,1436965116233,-0.07055493,0.13555896,0.008870826
282,1436965116234,-0.025350902,0.2314648,-0.014342053
283,1436965116253,0.009773849,0.2161932,-0.010371429
284,1436965116266,0.033903025,0.16701853,0.021698998
285,1436965116292,0.015271634,0.12700686,0.018339239
286,1436965116306,-0.012217301,0.10226682,0.0018458765
287,1436965116325,-0.023212874,0.0656149,0.0119251525
288,1436965116347,-0.030543257,0.041180294,0.02658592
289,1436965116365,-0.018936818,0.054924764,0.022309862
290,1436965116388,-0.006108648,0.07294528,0.019255536
291,1436965116408,0.005192358,0.09921249,0.012536018
292,1436965116426,0.014660772,0.09951793,0.012230585
293,1436965116449,0.018631395,0.082413696,0.018033806
294,1436965116465,0.019853126,0.03965313,0.019560969
295,1436965116485,0.024434615,0.013996791,0.014368613
296,1436965116507,0.032681294,-0.015935607,-0.0039573433
297,1436965116525,0.037873648,-0.04464627,-0.014647486
298,1436965116547,0.044593167,-0.049533196,-0.014342053
299,1436965116569,0.050396387,-0.041286513,-0.021672435
300,1436965116586,0.046425764,-0.01990623,-0.031446278
301,1436965116607,0.046425764,0.0054446757,-0.015563783
302,1436965116628,0.051618118,0.03293361,0.00092957844
303,1436965116645,0.051007252,0.048205245,0.00092957844
304,1436965116668,0.04856379,0.039958563,0.00092957844
305,1436965116687,0.037873648,0.035377074,-0.010371429
306,1436965116707,0.02871067,0.08027567,-0.01648008
307,1436965116727,0.029016104,0.102877684,0.0042893374
308,1436965116747,0.025350913,0.092492975,0.023837026
309,1436965116768,0.02382375,0.07050183,0.018339239
310,1436965116787,0.011301011,0.035682507,-0.00945513
311,1436965116808,0.005192358,-0.02418229,-0.004568209
312,1436965116827,0.0036651958,-0.054114684,0.013146883
313,1436965116847,0.008246684,-0.045257136,0.011008855
314,1436965116869,0.020769421,-0.028152913,-0.0015138825
315,1436965116887,0.036346488,-0.015935607,-0.009149699
316,1436965116911,0.039706245,-0.029680073,-0.011593159
317,1436965116988,0.03237586,-0.02998551,-0.004568209
318,1436965116989,0.023518316,-0.036705025,0.013452316
319,1436965116990,0.009468416,-0.039453916,0.0058165006
320,1436965116991,0.0039706286,-0.0635831,0.001235011
321,1436965117006,-0.014049896,-0.097791545,0.0015404436
322,1436965117026,-0.029016094,-0.12436419,0.0033730397
323,1436965117046,-0.0262672,-0.14482817,0.007954529
324,1436965117066,-0.014966194,-0.1600998,0.007038231
325,1436965117086,0.004886927,-0.16040525,-0.008538833
326,1436965117107,0.028405238,-0.19003221,-0.02350503
327,1436965117134,0.05864307,-0.24012315,-0.032362577
328,1436965117147,0.074830994,-0.336029,-0.05007767
329,1436965117167,0.099571034,-0.43987608,-0.045190748
330,1436965117186,0.117591575,-0.55380243,-0.045190748
331,1436965117208,0.11239922,-0.48049864,-0.053742863
332,1436965117229,0.0766636,-0.28868696,-0.036333203
333,1436965117249,0.025656346,-0.11459034,0.0030676068
334,1436965117269,0.017409664,0.10379398,0.029334813
335,1436965117286,0.02748894,0.10715374,0.025058756
336,1436965117308,0.024129182,0.0384314,0.020171834
337,1436965117329,0.021380287,0.011858761,0.03025111
338,1436965117349,0.013744473,0.039347697,0.03025111
339,1436965117372,0.005497791,0.086384326,0.030556543
340,1436965117387,-0.0009162929,0.116011284,0.037886925
341,1436965117407,-0.0009162929,0.14563826,0.037886925
342,1436965117427,-0.0012217257,0.13464268,0.03361087
343,1436965117452,-0.008857542,0.09279841,0.02322616
344,1436965117468,-0.023518307,0.078137636,0.021088133
345,1436965117489,-0.032375854,0.06469861,0.028418515
346,1436965117507,-0.036957342,0.041180294,0.018644672
347,1436965117533,-0.03878994,0.034155343,0.0042893374
348,1436965117547,-0.043982293,0.030490153,0.009787125
349,1436965117573,-0.040011667,0.04087486,0.008870826
350,1436965117587,-0.030237826,0.03262818,0.013452316
351,1436965117608,-0.015271626,0.015829386,0.01406318
352,1436965117635,-0.008552109,-5.3111464e-05,0.014674046
353,1436965117699,-0.015271626,0.0072772726,0.0119251525
354,1436965117700,-0.018631386,0.020410875,0.012536018
355,1436965117701,-0.006108648,0.03018472,0.019866401
356,1436965117710,0.01007928,0.07141812,1.328066e-05
357,1436965117727,0.015577067,0.08577345,1.328066e-05
358,1436965117748,0.012828175,0.048510678,0.013452316
359,1436965117766,0.015271634,0.045150917,0.025975054
360,1436965117806,0.03329216,0.061033413,0.016812075
361,1436965117807,0.051007252,-0.05503098,-0.01525835
362,1436965117828,0.0571159,-0.21874288,-0.018007243
363,1436965117849,0.045204032,-0.2938793,0.008870826
364,1436965117870,0.014049906,-0.032428965,0.02780765
365,1436965117887,-0.008552109,0.20794651,0.02902938
366,1436965117907,-0.031764988,0.19695094,0.015284912
367,1436965117928,-0.0271835,0.10073966,0.011008855
368,1436965117950,-0.018325953,0.03507164,0.003678472
369,1436965117970,-0.0070249457,-0.014408443,0.0015404436
370,1436965117990,-0.0058032153,0.04423462,-0.00120845
371,1436965118007,-0.0070249457,0.123036236,-0.0024301803
372,1436965118028,-0.0015271585,0.10684831,0.0064273654
373,1436965118050,0.004886927,0.12975577,0.018033806
374,1436965118072,0.014966201,0.17282176,0.004900202
