id,attr_time,attr_x,attr_y,attr_z
1,1435991672008,9.354146,0.32561144,3.329736
2,1435991672027,9.326612,0.36990416,3.3087866
3,1435991672047,9.339182,0.36511576,3.3387144
4,1435991672067,9.351153,0.3441665,3.3051953
5,1435991672087,9.34038,0.33518824,3.2854433
6,1435991672107,9.382876,0.36391866,3.3033998
7,1435991672128,9.411008,0.36870706,3.2902317
8,1435991672151,9.353547,0.320823,3.3135753
9,1435991672169,9.312846,0.2885013,3.3087866
10,1435991672188,9.359533,0.29568392,3.2734723
11,1435991672211,9.379285,0.36631286,3.2273839
12,1435991672230,9.379884,0.3854665,3.2800562
13,1435991672251,9.346365,0.32022446,3.3476925
14,1435991672270,9.330204,0.30406362,3.3435028
15,1435991672291,9.3182335,0.28311434,3.3159695
16,1435991672308,9.345168,0.2896984,3.3063924
17,1435991672328,9.372701,0.29149407,3.316568
18,1435991672348,9.3822775,0.28909984,3.280655
19,1435991672371,9.346365,0.2657564,3.2662897
20,1435991672388,9.324219,0.2633622,3.3129766
21,1435991672419,9.357139,0.2765303,3.316568
22,1435991672435,9.348759,0.32920274,3.3081882
23,1435991672454,9.333197,0.3286042,3.2758665
24,1435991672467,9.357738,0.29029694,3.2854433
25,1435991672491,9.34397,0.2789245,3.2962172
26,1435991672508,9.339781,0.2885013,3.288436
27,1435991672529,9.346365,0.29987377,3.300407
28,1435991672548,9.371504,0.3333926,3.2956185
29,1435991672572,9.3738985,0.31902736,3.283049
30,1435991672590,9.370307,0.31304187,3.265691
31,1435991672611,9.3583355,0.29448682,3.2704794
32,1435991672627,9.34038,0.29388827,3.2543187
33,1435991672652,9.331401,0.32441434,3.2734723
34,1435991672672,9.399636,0.3393781,3.2914288
35,1435991672690,9.374496,0.31064767,3.2734723
36,1435991672711,9.320028,0.27593175,3.2758665
37,1435991672730,9.322423,0.30107087,3.3028011
38,1435991672752,9.379285,0.3321955,3.2303767
39,1435991672768,9.369708,0.3705027,3.2148144
40,1435991672791,9.371504,0.33039984,3.2722752
41,1435991672812,9.337387,0.27353755,3.29502
42,1435991672832,9.3343935,0.29269117,3.2908301
43,1435991672854,9.363124,0.30945057,3.2980127
44,1435991672870,9.377489,0.30166942,3.2902317
45,1435991672893,9.374496,0.2908955,3.2746694
46,1435991672910,9.331401,0.27234045,3.283049
47,1435991672930,9.321226,0.2753332,3.3225534
48,1435991672950,9.352949,0.2681506,3.335123
49,1435991672969,9.372103,0.29568392,3.305794
50,1435991672991,9.3583355,0.32202014,3.2794578
51,1435991673009,9.360131,0.28909984,3.2878375
52,1435991673033,9.354745,0.2681506,3.2782607
53,1435991673098,9.363723,0.25737667,3.300407
54,1435991673099,9.362526,0.2669535,3.289633
55,1435991673100,9.389461,0.28909984,3.25372
56,1435991673108,9.368511,0.30226797,3.2866404
57,1435991673128,9.339781,0.28909984,3.318962
58,1435991673152,9.3343935,0.2885013,3.3141737
59,1435991673168,9.351153,0.27952304,3.293823
60,1435991673190,9.355942,0.29688102,3.269881
61,1435991673208,9.3978405,0.31304187,3.2662897
62,1435991673231,9.387066,0.32202014,3.2734723
63,1435991673249,9.359533,0.30945057,3.2800562
64,1435991673271,9.332599,0.2873042,3.2902317
65,1435991673289,9.348759,0.31004912,3.317765
66,1435991673312,9.382876,0.30825347,3.2255883
67,1435991673329,9.349358,0.33039984,3.2411506
68,1435991673351,9.348161,0.28491,3.277662
69,1435991673372,9.330204,0.24600422,3.2866404
70,1435991673392,9.329007,0.27473465,3.288436
71,1435991673411,9.355942,0.29688102,3.2848446
72,1435991673431,9.416994,0.32680854,3.271078
73,1435991673452,9.406818,0.29508537,3.2692823
74,1435991673472,9.35235,0.260968,3.292626
75,1435991673490,9.343372,0.2741361,3.2962172
76,1435991673512,9.35235,0.29747957,3.2890346
77,1435991673533,9.36492,0.31304187,3.2722752
78,1435991673553,9.361927,0.31124622,3.2794578
79,1435991673572,9.354745,0.28072014,3.2740707
80,1435991673593,9.34397,0.26156655,3.2722752
81,1435991673612,9.325416,0.2693477,3.25791
82,1435991673631,9.3421755,0.29448682,3.2866404
83,1435991673652,9.355343,0.29269117,3.2728736
84,1435991673673,9.371504,0.31244332,3.2956185
85,1435991673694,9.371504,0.2801216,3.2800562
86,1435991673713,9.356541,0.2765303,3.2728736
87,1435991673732,9.339182,0.30047232,3.2620997
88,1435991673752,9.353547,0.30286652,3.2872388
89,1435991673822,9.386468,0.29388827,3.269881
90,1435991673823,9.368511,0.31603462,3.2812533
91,1435991673824,9.34038,0.26396075,3.2758665
92,1435991673844,9.337985,0.24720132,3.317765
93,1435991673874,9.3499565,0.2789245,3.2824504
94,1435991673875,9.330204,0.31004912,3.2998085
95,1435991673920,9.328408,0.29867667,3.3105824
96,1435991673921,9.31524,0.27114335,3.309984
97,1435991673978,9.28232,0.2825158,3.2992098
98,1435991673979,9.307459,0.31364042,3.3207579
99,1435991673980,9.334992,0.31783026,3.3028011
100,1435991674002,9.364322,0.26156655,3.2890346
101,1435991674009,9.321226,0.25019407,3.3063924
102,1435991674029,9.300277,0.23822308,3.369839
103,1435991674049,9.313444,0.2837129,3.3674448
104,1435991674070,9.312247,0.32621,3.3494883
105,1435991674089,9.324817,0.32561144,3.3650506
106,1435991674112,9.324817,0.30585927,3.3638535
107,1435991674132,9.312247,0.27593175,3.3859997
108,1435991674149,9.297284,0.26396075,3.3806129
109,1435991674173,9.291298,0.27593175,3.3836055
110,1435991674193,9.296086,0.30585927,3.3997664
111,1435991674212,9.318831,0.33039984,3.4093432
112,1435991674233,9.308656,0.32920274,3.4398694
113,1435991674250,9.325416,0.30645782,3.4093432
114,1435991674273,9.3104515,0.27234045,3.3979707
115,1435991674293,9.300875,0.28072014,3.3650506
116,1435991674310,9.284714,0.2861071,3.3913867
117,1435991674331,9.320627,0.2873042,3.441665
118,1435991674352,9.329007,0.29987377,3.3931823
119,1435991674375,9.277532,0.2681506,3.4105403
120,1435991674394,9.291298,0.2681506,3.4039562
121,1435991674415,9.337985,0.30526072,3.3171666
122,1435991674433,9.328408,0.33399114,3.3662477
123,1435991674452,9.294291,0.29987377,3.3824084
124,1435991674471,9.285313,0.29508537,3.3997664
125,1435991674492,9.285912,0.29448682,3.4081461
126,1435991674512,9.312247,0.29209262,3.37762
127,1435991674530,9.355343,0.27353755,3.3770216
128,1435991674601,9.348759,0.2645593,3.3662477
129,1435991674602,9.328408,0.24660277,3.3530796
130,1435991674603,9.297284,0.24720132,3.3979707
131,1435991674610,9.332,0.24660277,3.405752
132,1435991674632,9.325416,0.29029694,3.3500867
133,1435991674652,9.326612,0.2837129,3.365649
134,1435991674670,9.308656,0.26994625,3.3842041
135,1435991674694,9.303867,0.260968,3.3752258
136,1435991674712,9.298481,0.25558102,3.3734303
137,1435991674731,9.306262,0.26036942,3.3955765
138,1435991674751,9.330204,0.2681506,3.38181
139,1435991674772,9.346365,0.2693477,3.3686419
140,1435991674790,9.333197,0.28191724,3.3638535
141,1435991674813,9.3104515,0.260968,3.3632548
142,1435991674833,9.312846,0.25318682,3.3859997
143,1435991674858,9.298481,0.23403321,3.3614593
144,1435991674872,9.357139,0.27832595,3.3518825
145,1435991674890,9.38168,0.2645593,3.3752258
146,1435991674918,9.305065,0.22864626,3.3626564
147,1435991674930,9.278131,0.2112883,3.401562
148,1435991674952,9.322423,0.25318682,3.3267434
149,1435991674970,9.357139,0.2908955,3.277662
150,1435991674992,9.357738,0.28431144,3.34051
151,1435991675013,9.326612,0.25318682,3.3770216
152,1435991675033,9.32362,0.24600422,3.3542767
153,1435991675052,9.3421755,0.24660277,3.3363202
154,1435991675072,9.346964,0.2705448,3.341707
155,1435991675115,9.370307,0.260968,3.335123
156,1435991675116,9.36911,0.23523031,3.3213563
157,1435991675133,9.32781,0.24181437,3.3087866
158,1435991675168,9.311649,0.24420857,3.3608606
159,1435991675170,9.337387,0.25558102,3.3327289
160,1435991675191,9.329605,0.2633622,3.245939
161,1435991675210,9.357738,0.24839842,3.247136
162,1435991675232,9.363124,0.22026655,3.2662897
163,1435991675317,9.367314,0.22026655,3.2824504
164,1435991675318,9.372103,0.2208651,3.2800562
165,1435991675319,9.357738,0.24121583,3.2824504
166,1435991675320,9.39365,0.24121583,3.3393128
167,1435991675330,9.415796,0.24660277,3.292626
168,1435991675350,9.381081,0.25677812,3.2920272
169,1435991675371,9.358934,0.23582886,3.3039982
170,1435991675390,9.339781,0.23163901,3.2794578
171,1435991675415,9.32362,0.20470424,3.240552
172,1435991675430,9.374496,0.2184709,3.2812533
173,1435991675458,9.422979,0.23283611,3.29502
174,1435991675471,9.343372,0.2124854,3.2878375
175,1435991675491,9.3026705,0.20111294,3.283049
176,1435991675510,9.348161,0.23163901,3.2782607
177,1435991675532,9.387665,0.28431144,3.2082303
178,1435991675553,9.367912,0.2669535,3.2585084
179,1435991675574,9.361329,0.23882163,3.2986114
180,1435991675593,9.322423,0.2220622,3.2800562
181,1435991675614,9.336189,0.22744916,3.3237505
182,1435991675634,9.360131,0.22505496,3.2944214
183,1435991675654,9.38168,0.20709845,3.309984
184,1435991675674,9.378687,0.20590134,3.3201592
185,1435991675693,9.362526,0.19812019,3.3135753
186,1435991675714,9.320028,0.19153613,3.3446999
187,1435991675734,9.327211,0.2100912,3.3423057
188,1435991675754,9.344569,0.25019407,3.3267434
189,1435991675773,9.345766,0.2693477,3.3051953
190,1435991675793,9.352949,0.24660277,3.3022027
191,1435991675813,9.3499565,0.2100912,3.2782607
192,1435991675833,9.332,0.20231004,3.329736
193,1435991675855,9.32362,0.2220622,3.353678
194,1435991675872,9.348161,0.25079262,3.3566709
195,1435991675890,9.375095,0.2705448,3.345897
196,1435991675912,9.348161,0.24660277,3.354875
197,1435991675986,9.31943,0.23044191,3.3620577
198,1435991675987,9.339182,0.24361002,3.3273418
199,1435991675988,9.306262,0.25139117,3.3129766
200,1435991675990,9.333197,0.2777274,3.333926
201,1435991676046,9.376292,0.25378537,3.330933
202,1435991676047,9.34397,0.25677812,3.3704374
203,1435991676074,9.314642,0.23942018,3.3441012
204,1435991676075,9.287108,0.23343466,3.354875
205,1435991676112,9.364322,0.25139117,3.3028011
206,1435991676113,9.358934,0.2825158,3.2842462
207,1435991676136,9.351153,0.2777274,3.357868
208,1435991676153,9.315839,0.23283611,3.3770216
209,1435991676220,9.2865095,0.24241292,3.3836055
210,1435991676221,9.294889,0.2657564,3.3494883
211,1435991676222,9.368511,0.27832595,3.3512838
212,1435991676232,9.359533,0.25079262,3.341707
213,1435991676251,9.348759,0.22505496,3.3411086
214,1435991676272,9.306262,0.219668,3.3596635
215,1435991676293,9.318831,0.25797522,3.3901896
216,1435991676313,9.317635,0.27234045,3.3518825
217,1435991676332,9.308058,0.2813187,3.3213563
218,1435991676351,9.356541,0.25797522,3.3327289
219,1435991676373,9.3583355,0.24301147,3.3411086
220,1435991676392,9.346964,0.23403321,3.3201592
221,1435991676414,9.332599,0.26156655,3.3201592
222,1435991676434,9.336788,0.25318682,3.3051953
223,1435991676454,9.350554,0.27234045,3.342904
224,1435991676474,9.36073,0.2765303,3.3213563
225,1435991676492,9.363124,0.26276365,3.3147724
226,1435991676521,9.359533,0.2837129,3.29502
227,1435991676572,9.331401,0.2681506,3.265691
228,1435991676573,9.3343935,0.24660277,3.2620997
229,1435991676574,9.392453,0.23762453,3.2501287
230,1435991676594,9.404425,0.29269117,3.2441432
231,1435991676612,9.361329,0.2813187,3.2184057
232,1435991676633,9.339781,0.24301147,3.1998506
233,1435991676660,9.356541,0.24061728,3.2040405
234,1435991676733,9.39365,0.2861071,3.1603463
235,1435991676734,9.390657,0.27832595,3.1854854
236,1435991676735,9.388264,0.23403321,3.2357635
237,1435991676736,9.346964,0.25258827,3.2309752
238,1435991676754,9.355942,0.29747957,3.2561142
239,1435991676775,9.387665,0.28191724,3.2513258
240,1435991676793,9.388264,0.2633622,3.25372
241,1435991676814,9.378687,0.2621651,3.2507274
242,1435991676834,9.303269,0.24720132,3.2758665
243,1435991676853,9.332,0.24301147,3.3446999
244,1435991676873,9.339781,0.26874915,3.3129766
245,1435991676893,9.327211,0.26874915,3.288436
246,1435991676915,9.330803,0.2717419,3.318962
247,1435991676936,9.34397,0.26396075,3.3129766
248,1435991676956,9.342773,0.27473465,3.29502
249,1435991676976,9.325416,0.28491,3.2962172
250,1435991676995,9.336788,0.29328972,3.3243492
251,1435991677014,9.347562,0.28311434,3.3183637
252,1435991677036,9.355942,0.28072014,3.3381157
253,1435991677056,9.349358,0.29029694,3.3464954
254,1435991677076,9.34038,0.28191724,3.3435028
255,1435991677095,9.358934,0.28491,3.3363202
256,1435991677129,9.328408,0.2861071,3.3225534
257,1435991677138,9.333796,0.2801216,3.3357215
258,1435991677155,9.36911,0.27593175,3.3441012
259,1435991677174,9.369708,0.28311434,3.3411086
260,1435991677193,9.309255,0.25438392,3.3704374
261,1435991677213,9.330803,0.2693477,3.3273418
262,1435991677236,9.36073,0.2873042,3.2770636
263,1435991677255,9.344569,0.32800564,3.2992098
264,1435991677275,9.314642,0.30406362,3.366846
265,1435991677293,9.2907,0.26755205,3.3812113
266,1435991677312,9.305663,0.27593175,3.3626564
267,1435991677334,9.3421755,0.28670564,3.3602622
268,1435991677354,9.357139,0.2657564,3.366846
269,1435991677375,9.342773,0.24480712,3.3584664
270,1435991677396,9.305663,0.25677812,3.3794158
271,1435991677461,9.298481,0.24480712,3.4045548
272,1435991677462,9.339781,0.25677812,3.3955765
273,1435991677463,9.335591,0.26755205,3.3566709
274,1435991677472,9.339781,0.2753332,3.3566709
275,1435991677496,9.305065,0.25617957,3.378817
276,1435991677513,9.309854,0.24600422,3.3943794
277,1435991677534,9.297882,0.25498247,3.3638535
278,1435991677554,9.298481,0.25617957,3.365649
279,1435991677574,9.316438,0.2765303,3.3554738
280,1435991677594,9.345766,0.2825158,3.3500867
281,1435991677617,9.345168,0.2896984,3.365649
282,1435991677633,9.314642,0.2657564,3.3961751
283,1435991677652,9.287108,0.2741361,3.3842041
284,1435991677674,9.302073,0.260968,3.3662477
285,1435991677696,9.312247,0.28550854,3.345897
286,1435991677755,9.376292,0.2885013,3.3740287
287,1435991677756,9.337985,0.2669535,3.3638535
288,1435991677757,9.2907,0.23942018,3.4111388
289,1435991677773,9.299079,0.2705448,3.4314895
290,1435991677793,9.346365,0.34117374,3.309984
291,1435991677813,9.296685,0.3549404,3.2064347
292,1435991677833,9.294291,0.2657564,3.2255883
293,1435991677853,9.305663,0.22924481,3.2674868
294,1435991677873,9.309854,0.19273324,3.3159695
295,1435991677893,9.326612,0.23283611,3.3560722
296,1435991677913,9.346964,0.28491,3.353678
297,1435991677933,9.369708,0.29568392,3.352481
298,1435991677953,9.354745,0.26994625,3.304597
299,1435991677973,9.3343935,0.24001873,3.3171666
300,1435991677993,9.366715,0.22445641,3.34051
301,1435991678014,9.367314,0.25438392,3.3237505
302,1435991678032,9.364322,0.2813187,3.2968156
303,1435991678052,9.366715,0.2753332,3.3171666
304,1435991678074,9.345766,0.25558102,3.3039982
305,1435991678094,9.3421755,0.23044191,3.2866404
306,1435991678133,9.343372,0.25198972,3.300407
307,1435991678134,9.358934,0.24061728,3.3123782
308,1435991678152,9.391256,0.2633622,3.321955
309,1435991678173,9.390657,0.2669535,3.306991
310,1435991678192,9.368511,0.26874915,3.264494
311,1435991678213,9.369708,0.27593175,3.277662
312,1435991678233,9.3738985,0.29029694,3.2543187
313,1435991678253,9.340978,0.27712885,3.247136
314,1435991678273,9.386468,0.29628247,3.269881
315,1435991678296,9.409811,0.30166942,3.2866404
316,1435991678316,9.341577,0.26396075,3.2399535
317,1435991678334,9.3260145,0.25677812,3.264494
318,1435991678353,9.381081,0.29568392,3.2309752
319,1435991678375,9.385271,0.3345897,3.198055
320,1435991678393,9.370307,0.30765492,3.25372
321,1435991678416,9.334992,0.26036942,3.2914288
322,1435991678435,9.323022,0.2621651,3.305794
323,1435991678456,9.329605,0.2837129,3.2824504
324,1435991678476,9.355343,0.30945057,3.2638955
325,1435991678493,9.379884,0.30166942,3.2770636
326,1435991678517,9.371504,0.29328972,3.2902317
327,1435991678534,9.340978,0.26874915,3.2662897
328,1435991678556,9.337387,0.25617957,3.2980127
329,1435991678577,9.336788,0.28311434,3.2812533
330,1435991678595,9.334992,0.30047232,3.2752678
331,1435991678617,9.361927,0.29987377,3.2381577
332,1435991678640,9.371504,0.30107087,3.247136
333,1435991678667,9.376891,0.27114335,3.233968
334,1435991678702,9.379285,0.2657564,3.2291796
335,1435991678703,9.364322,0.2825158,3.2435448
336,1435991678713,9.372103,0.29269117,3.221997
337,1435991678736,9.384672,0.29987377,3.2172086
338,1435991678763,9.380483,0.32321724,3.2112231
339,1435991678827,9.372701,0.31663316,3.210026
340,1435991678828,9.385869,0.30466217,3.2154129
341,1435991678829,9.379285,0.320823,3.1717186
342,1435991678838,9.390059,0.32321724,3.1836896
343,1435991678859,9.400833,0.3286042,3.1914709
344,1435991678878,9.392453,0.3286042,3.1992521
345,1435991678894,9.38168,0.2801216,3.1872811
346,1435991678956,9.378088,0.27952304,3.1830912
347,1435991678957,9.430161,0.30825347,3.1214404
348,1435991678958,9.403826,0.3597288,3.0963013
349,1435991678974,9.40203,0.31783026,3.141791
350,1435991678997,9.396045,0.2813187,3.1741128
351,1435991679018,9.36492,0.29328972,3.1962593
352,1435991679035,9.379884,0.31783026,3.2022448
353,1435991679054,9.422979,0.32680854,3.156755
354,1435991679077,9.43076,0.29628247,3.1136594
355,1435991679097,9.408614,0.30166942,3.095703
356,1435991679117,9.388264,0.26755205,3.1435869
357,1435991679137,9.392453,0.29388827,3.1268275
358,1435991679154,9.402629,0.35673606,3.1196449
359,1435991679177,9.400833,0.35194764,3.116652
360,1435991679197,9.417592,0.36391866,3.1130607
361,1435991679217,9.395446,0.3417723,3.098097
362,1435991679237,9.40203,0.3345897,3.1040826
363,1435991679255,9.393052,0.3357868,3.091513
364,1435991679277,9.408614,0.3393781,3.1148565
365,1435991679296,9.404425,0.33279404,3.122039
366,1435991679316,9.384672,0.34715924,3.1070752
367,1435991679335,9.380483,0.3417723,3.157952
368,1435991679359,9.386468,0.33399114,3.1489737
369,1435991679378,9.388862,0.34117374,3.1429882
370,1435991679398,9.394249,0.350152,3.1621418
371,1435991679417,9.40203,0.3549404,3.145981
372,1435991679436,9.440936,0.3441665,3.1495724
373,1435991679454,9.417592,0.35254622,3.1028855
374,1435991679476,9.385869,0.31304187,3.1064768
375,1435991679494,9.414001,0.32441434,3.1094694
376,1435991679517,9.4535055,0.37349546,3.064578
377,1435991679597,9.417592,0.37349546,3.0986955
378,1435991679598,9.41041,0.33039984,3.1310172
379,1435991679599,9.396643,0.3429694,3.1256304
380,1435991679600,9.419987,0.3776853,3.1238346
381,1435991679616,9.4217825,0.37948096,3.116652
382,1435991679637,9.412206,0.37349546,3.107674
383,1435991679655,9.388862,0.3513491,3.1226375
384,1435991679675,9.363124,0.32441434,3.1603463
385,1435991679695,9.363723,0.3184288,3.1992521
386,1435991679715,9.384073,0.34237084,3.2064347
387,1435991679740,9.363723,0.39145198,3.1735144
388,1435991679755,9.370307,0.40043023,3.1621418
389,1435991679776,9.378687,0.38367084,3.177704
390,1435991679797,9.388862,0.35553896,3.1591492
391,1435991679817,9.396643,0.34117374,3.1471782
392,1435991679838,9.406818,0.350152,3.128623
393,1435991679859,9.401431,0.37588966,3.1190462
394,1435991679876,9.436148,0.35314476,3.12982
395,1435991679894,9.42238,0.350152,3.1711202
396,1435991679923,9.4062195,0.36511576,3.198055
397,1435991679938,9.385869,0.3657143,3.1627405
398,1435991679958,9.384073,0.36032736,3.1651347
399,1435991679976,9.435549,0.37349546,3.1190462
400,1435991679997,9.434352,0.3561375,3.1244333
401,1435991680017,9.399636,0.31184477,3.1399956
402,1435991680037,9.381081,0.2908955,3.1585505
403,1435991680056,9.401431,0.33159694,3.1651347
404,1435991680076,9.408614,0.41000703,3.039439
405,1435991680097,9.3822775,0.39205053,3.0765493
406,1435991680118,9.385869,0.35194764,3.151368
407,1435991680146,9.38168,0.32022446,3.1501708
408,1435991680155,9.368511,0.36032736,3.116652
409,1435991680176,9.409213,0.39504328,3.1124623
410,1435991680196,9.432556,0.3549404,3.0735564
411,1435991680223,9.439739,0.33159694,3.0693667
412,1435991680239,9.413403,0.30286652,3.095703
413,1435991680290,9.399636,0.31902736,3.1268275
414,1435991680291,9.403826,0.3453636,3.1148565
415,1435991680310,9.400833,0.3824737,3.1010897
416,1435991680315,9.426571,0.3824737,3.0855274
417,1435991680335,9.400833,0.35194764,3.0909145
418,1435991680355,9.4062195,0.33159694,3.1064768
419,1435991680375,9.403826,0.3333926,3.1381998
420,1435991680397,9.414599,0.35793316,3.1352072
421,1435991680415,9.422979,0.37828386,3.1130607
422,1435991680436,9.423578,0.362123,3.0879216
423,1435991680456,9.42238,0.3597288,3.0933087
424,1435991680477,9.408015,0.35553896,3.105878
