id,attr_time,attr_x,attr_y,attr_z
1,1436285439617,0.62967503,9.600749,0.75716627
2,1436285439634,0.61112,9.668983,0.81043726
3,1436285439655,0.57640404,9.667787,0.80804306
4,1436285439672,0.5734113,9.607931,0.7751228
5,1436285439692,0.58538234,9.600749,0.6985083
6,1436285439712,0.6218939,9.5798,0.6584055
7,1436285439737,0.6075287,9.585187,0.7182605
8,1436285439758,0.59376204,9.586982,0.7727286
9,1436285439778,0.62249243,9.627684,0.66259533
10,1436285439795,0.62608373,9.661202,0.6631939
11,1436285439812,0.6404489,9.650429,0.81881696
12,1436285439832,0.58298814,9.704897,0.84934306
13,1436285439852,0.492607,9.688137,0.88645315
14,1436285439873,0.5291186,9.689933,0.92895025
15,1436285439893,0.56084174,9.706094,0.89184016
16,1436285439960,0.54408234,9.739613,0.8858546
17,1436285439961,0.5279215,9.729437,0.90859956
18,1436285439962,0.5446809,9.688736,0.90620536
19,1436285439972,0.5374983,9.667188,0.86490536
20,1436285439996,0.50278234,9.692925,0.84096336
21,1436285440012,0.5105635,9.697714,0.89902276
22,1436285440033,0.51475334,9.673173,0.8888474
23,1436285440058,0.521936,9.661801,0.8726865
24,1436285440074,0.51834464,9.646238,0.8523358
25,1436285440096,0.545878,9.680356,0.8822633
26,1436285440116,0.51834464,9.71986,0.87687635
27,1436285440137,0.59136784,9.709086,0.7751228
28,1436285440156,0.59136784,9.652225,1.0480618
29,1436285440174,0.5955577,9.682152,0.7673417
30,1436285440193,0.4878186,9.679757,0.6757634
31,1436285440215,0.54408234,9.640852,0.717662
32,1436285440236,0.6015432,9.680955,0.92775315
33,1436285440256,0.51235914,9.758167,0.866701
34,1436285440276,0.48961425,9.730635,0.7793127
35,1436285440296,0.5009867,9.736021,0.85772276
36,1436285440315,0.49679685,9.6767645,0.83378077
37,1436285440334,0.47524905,9.628283,0.8146271
38,1436285440356,0.4890157,9.6288805,0.81642276
39,1436285440376,0.59256494,9.685144,0.79367787
40,1436285440396,0.55126494,9.718064,0.8331822
41,1436285440415,0.57640404,9.661801,0.78170687
42,1436285440436,0.55844754,9.622296,0.8912416
43,1436285440455,0.4818331,9.592369,0.8595184
44,1436285440476,0.52612585,9.615114,0.8265981
45,1436285440496,0.5518635,9.698313,0.81881696
46,1436285440515,0.5734113,9.754577,0.85891986
47,1436285440536,0.57640404,9.798869,0.89782566
48,1436285440553,0.5351041,9.793482,0.842759
49,1436285440575,0.48961425,9.733627,0.8218097
50,1436285440594,0.492607,9.69113,0.7823054
51,1436285440658,0.50397944,9.646238,0.7954735
52,1436285440659,0.5189432,9.64564,0.8379706
53,1436285440660,0.5189432,9.677363,0.8403648
54,1436285440682,0.53809685,9.692925,0.82599956
55,1436285440693,0.51475334,9.689334,0.7685388
56,1436285440718,0.52732295,9.654618,0.82001406
57,1436285440733,0.55964464,9.649231,0.85532856
58,1436285440753,0.50637364,9.68275,0.82779527
59,1436285440775,0.52732295,9.720459,0.66259533
60,1436285440799,0.5129577,9.647436,0.8655039
61,1436285440815,0.5638345,9.6923275,0.7248446
62,1436285440838,0.5009867,9.701305,0.7284359
63,1436285440853,0.516549,9.679757,0.7038953
64,1436285440873,0.56084174,9.725846,0.86490536
65,1436285440894,0.5434838,9.768942,0.78410107
66,1436285440913,0.5410896,9.717466,0.7966706
67,1436285440936,0.4973954,9.683948,0.8798691
68,1436285440954,0.47046062,9.622895,0.7703344
69,1436285440975,0.46447513,9.619304,0.7398083
70,1436285440996,0.50996494,9.636064,0.7541735
71,1436285441013,0.57281274,9.679159,0.78410107
72,1436285441035,0.49081135,9.7084875,0.79487497
73,1436285441153,0.5291186,9.676167,0.741604
74,1436285441160,0.55365914,9.676167,0.8158242
75,1436285441161,0.4985925,9.725846,0.8038532
76,1436285441162,0.5363012,9.712678,0.80924016
77,1436285441163,0.5363012,9.713276,0.85772276
78,1436285441164,0.52971715,9.695918,0.8122329
79,1436285441179,0.54408234,9.68694,0.75956047
80,1436285441197,0.5470751,9.715072,0.7703344
81,1436285441215,0.5303157,9.676167,0.80445176
82,1436285441234,0.52612585,9.682152,0.830788
83,1436285441254,0.51954174,9.679757,0.8026561
84,1436285441273,0.51954174,9.712678,0.7745243
85,1436285441294,0.5327099,9.697714,0.7954735
86,1436285441379,0.57520694,9.671976,0.8283938
87,1436285441380,0.6087258,9.677363,0.825401
88,1436285441381,0.59495914,9.663596,0.7715315
89,1436285441382,0.5931635,9.709685,0.7691373
90,1436285441394,0.5793968,9.706693,0.81163436
91,1436285441423,0.5847838,9.713875,0.878672
92,1436285441435,0.5602432,9.685144,0.8463503
93,1436285441455,0.60812724,9.670779,0.6512229
94,1436285441474,0.5895722,9.643246,0.8996213
95,1436285441496,0.59136784,9.690532,0.717662
96,1436285441515,0.4938041,9.6528225,0.6512229
97,1436285441535,0.51355624,9.67856,0.7661445
98,1436285441557,0.5859809,9.727043,0.8834604
99,1436285441574,0.581791,9.775525,0.78888947
100,1436285441595,0.6206968,9.717466,0.8379706
101,1436285441617,0.6171055,9.674969,0.9211691
102,1436285441637,0.58777654,9.664794,0.79128367
103,1436285441657,0.57760113,9.624691,0.7332243
104,1436285441677,0.62728083,9.649231,0.7589619
105,1436285441697,0.65780693,9.683349,0.81343
106,1436285441715,0.61112,9.673173,0.8996213
107,1436285441737,0.6314707,9.615114,0.7882909
108,1436285441755,0.623091,9.636064,0.81043726
109,1436285441775,0.57640404,9.675568,0.81522566
110,1436285441797,0.59136784,9.7479925,0.7990648
111,1436285441817,0.59735334,9.722853,0.8762778
112,1436285441835,0.56802434,9.701904,0.8158242
113,1436285441857,0.5823896,9.680356,0.78769237
114,1436285441875,0.5805939,9.67018,0.81761986
115,1436285441895,0.5554548,9.670779,0.7667431
116,1436285441914,0.52492875,9.663596,0.80804306
117,1436285441935,0.5470751,9.657611,0.8230068
118,1436285441957,0.61052144,9.679159,0.83378077
119,1436285441975,0.6135142,9.691729,0.8379706
120,1436285441995,0.61890113,9.680955,0.87687635
121,1436285442021,0.55605334,9.674969,0.87687635
122,1436285442104,0.55126494,9.618107,0.8379706
123,1436285442105,0.623091,9.745598,0.8487445
124,1436285442106,0.6386533,9.818622,0.92416185
125,1436285442107,0.641646,9.817424,1.0253168
126,1436285442120,0.64583594,9.755175,1.0043676
127,1436285442142,0.6302736,9.712678,0.84335756
128,1436285442175,0.623091,9.654019,0.9211691
129,1436285442176,0.6500258,9.642648,0.97503865
130,1436285442220,0.6338649,9.564836,0.82779527
131,1436285442221,0.557849,9.457097,0.62249243
132,1436285442234,0.58777654,9.45171,0.87567925
133,1436285442268,0.694917,9.829395,0.85891986
134,1436285442274,0.6159084,9.887454,0.85532856
135,1436285442295,0.57640404,9.813833,0.7978677
136,1436285442322,0.5243302,9.6767645,0.748188
137,1436285442338,0.48602295,9.595961,0.6859388
138,1436285442354,0.50996494,9.642049,0.6171055
139,1436285442375,0.58298814,9.702502,0.5722142
140,1436285442395,0.59855044,9.750985,0.61770403
141,1436285442415,0.5626374,9.66659,0.676362
142,1436285442438,0.55126494,9.625289,0.66498953
143,1436285442456,0.51355624,9.723452,0.6428431
144,1436285442475,0.41240123,9.717466,0.700304
145,1436285442525,0.46806642,9.753978,0.64583594
146,1436285442526,0.48722005,9.807249,0.66139823
147,1436285442533,0.47345337,9.73662,0.6769605
148,1436285442554,0.44891283,9.736021,0.61411273
149,1436285442574,0.45549688,9.691729,0.6147113
150,1436285442594,0.40521863,9.650429,0.6051345
151,1436285442616,0.3824737,9.710283,0.5021838
152,1436285442636,0.3890578,9.719262,0.5303157
153,1436285442656,0.42676646,9.660006,0.56443304
154,1436285442677,0.41299978,9.7641535,0.57640404
155,1436285442695,0.39324763,9.735423,0.5470751
156,1436285442714,0.39324763,9.635465,0.45250413
157,1436285442736,0.39444473,9.751583,0.53211135
158,1436285442757,0.4189853,9.76954,0.6817489
159,1436285442776,0.3776853,9.760562,0.6476316
160,1436285442796,0.3812766,9.68275,0.5201403
161,1436285442819,0.42676646,9.599552,0.6332663
162,1436285442842,0.41299978,9.651626,0.4985925
163,1436285442856,0.43275195,9.698313,0.5398925
164,1436285442874,0.42437226,9.760562,0.66139823
165,1436285442894,0.36750996,9.710283,0.50038815
166,1436285442914,0.40222588,9.512163,0.79487497
167,1436285442936,0.4441244,9.71986,0.82121116
168,1436285442954,0.41000703,9.624092,0.6769605
169,1436285442976,0.38367084,9.478644,0.64942724
170,1436285443000,0.35075054,9.476251,0.7086837
171,1436285443016,0.35314476,9.448717,0.6733692
172,1436285443036,0.38067806,9.657611,0.7404069
173,1436285443058,0.37110126,9.846154,0.7302315
174,1436285443089,0.29807812,9.817424,0.7637503
175,1436285443095,0.3609259,9.691729,0.65900403
176,1436285443115,0.4237737,9.677961,0.5859809
177,1436285443135,0.34356794,9.73662,0.62728083
178,1436285443155,0.29867667,9.837775,0.6254852
179,1436285443175,0.31663316,9.783905,0.6667852
180,1436285443195,0.25378537,9.721058,0.6823475
181,1436285443215,0.1933318,9.671976,0.62847793
182,1436285443235,0.17836803,9.660006,0.6027403
183,1436285443255,0.25797522,9.6767645,0.5931635
184,1436285443275,0.25498247,9.677363,0.581791
185,1436285443297,0.26036942,9.7084875,0.55725044
186,1436285443319,0.31004912,9.743802,0.54647654
187,1436285443339,0.35075054,9.783905,0.60094464
188,1436285443357,0.32202014,9.727641,0.6362591
189,1436285443379,0.30286652,9.685743,0.5566519
190,1436285443399,0.30945057,9.683948,0.51714754
191,1436285443418,0.32920274,9.674371,0.5398925
192,1436285443442,0.36750996,9.657013,0.5566519
193,1436285443484,0.41299978,9.646837,0.61770403
194,1436285443485,0.35075054,9.635465,0.5758055
195,1436285443495,0.3645172,9.730036,0.39205053
196,1436285443515,0.38606504,9.862914,0.61411273
197,1436285443535,0.39145198,9.879673,0.55006784
198,1436285443557,0.3309984,9.739014,0.50278234
199,1436285443575,0.3597288,9.594764,0.4261679
200,1436285443598,0.39264908,9.610924,0.50637364
201,1436285443616,0.3429694,9.667188,0.41718966
202,1436285443638,0.3716998,9.688736,0.4213795
203,1436285443656,0.3824737,9.792884,0.52852005
204,1436285443677,0.39444473,9.788095,0.5363012
205,1436285443696,0.4297592,9.7958765,0.4261679
206,1436285443718,0.41838676,9.742605,0.38307226
207,1436285443738,0.4189853,9.69113,0.40821138
208,1436285443758,0.35913026,9.702502,0.4333505
209,1436285443778,0.39564183,9.72824,0.4165911
210,1436285443800,0.44891283,9.76954,0.48841715
211,1436285443818,0.44951138,9.784504,0.51834464
212,1436285443840,0.46327803,9.679757,0.5153519
213,1436285443858,0.42317516,9.665392,0.4878186
214,1436285443878,0.38486794,9.712079,0.45310268
215,1436285443901,0.40222588,9.727043,0.44352585
216,1436285443921,0.44891283,9.697116,0.47524905
217,1436285443940,0.4249708,9.685743,0.48722005
218,1436285443960,0.39983168,9.701305,0.48362875
219,1436285443976,0.40043023,9.696517,0.4381389
220,1436285443995,0.41718966,9.710882,0.43754035
221,1436285444015,0.42796355,9.727043,0.4830302
222,1436285444046,0.40701428,9.711481,0.52492875
223,1436285444063,0.3878607,9.690532,0.46387658
224,1436285444082,0.41718966,9.715072,0.45489833
225,1436285444097,0.41299978,9.68275,0.48602295
226,1436285444123,0.40641573,9.670779,0.55006784
227,1436285444185,0.3764882,9.675568,0.50038815
228,1436285444186,0.44592008,9.70789,0.3645172
229,1436285444187,0.46806642,9.778519,0.5955577
230,1436285444206,0.46686932,9.791686,0.44592008
231,1436285444216,0.3866636,9.642049,0.3669114
232,1436285444242,0.43275195,9.627085,0.4441244
233,1436285444258,0.45010993,9.702502,0.5141548
234,1436285444278,0.4285621,9.758766,0.4902128
235,1436285444301,0.46746787,9.72824,0.5009867
236,1436285444317,0.42317516,9.723452,0.56563014
237,1436285444339,0.41299978,9.691729,0.50278234
238,1436285444359,0.45429978,9.705495,0.41120413
239,1436285444379,0.44951138,9.742006,0.439336
240,1436285444397,0.49799395,9.764751,0.50637364
241,1436285444421,0.46507367,9.753978,0.55126494
242,1436285444439,0.4890157,9.720459,0.4890157
243,1436285444460,0.47644615,9.721656,0.52373165
244,1436285444477,0.44711718,9.688137,0.5446809
245,1436285444497,0.45908818,9.704897,0.5374983
246,1436285444519,0.47465047,9.722853,0.5506664
247,1436285444541,0.480636,9.73662,0.51954174
248,1436285444561,0.48841715,9.701305,0.49679685
249,1436285444579,0.46567222,9.698911,0.51355624
250,1436285444609,0.42676646,9.67018,0.49799395
251,1436285444620,0.43634325,9.653421,0.52971715
252,1436285444637,0.47285482,9.68694,0.5374983
253,1436285444660,0.52373165,9.744401,0.5662287
254,1436285444680,0.51595044,9.737817,0.54288524
255,1436285444701,0.4914099,9.701904,0.53689975
256,1436285444720,0.45310268,9.675568,0.5189432
257,1436285444740,0.45130703,9.692925,0.5327099
258,1436285444761,0.4830302,9.697116,0.6254852
259,1436285444779,0.48722005,9.707291,0.581791
260,1436285444800,0.51235914,9.688736,0.4441244
261,1436285444820,0.49320555,9.715072,0.62368953
262,1436285444838,0.53211135,9.776124,0.49200845
263,1436285444867,0.49679685,9.724648,0.48961425
264,1436285444939,0.5386954,9.683948,0.50038815
265,1436285444940,0.55006784,9.667188,0.6877344
266,1436285444941,0.52852005,9.67018,0.545878
267,1436285444942,0.4938041,9.660006,0.50278234
268,1436285444961,0.5177461,9.6528225,0.5943606
269,1436285444982,0.52971715,9.681553,0.56084174
270,1436285445000,0.557849,9.766547,0.48841715
271,1436285445017,0.5722142,9.783307,0.51116204
272,1436285445040,0.599149,9.794679,0.5494693
273,1436285445060,0.52732295,9.734225,0.5955577
274,1436285445083,0.52732295,9.625289,0.5291186
275,1436285445100,0.5315128,9.67018,0.5530606
276,1436285445125,0.52373165,9.7324295,0.5626374
277,1436285445139,0.60214174,9.7479925,0.59615624
278,1436285445161,0.6087258,9.718663,0.6290765
279,1436285445180,0.5746084,9.715072,0.5781997
280,1436285445200,0.56323594,9.712079,0.5303157
281,1436285445221,0.53091425,9.692925,0.55126494
282,1436285445241,0.5638345,9.671976,0.57281274
283,1436285445261,0.57281274,9.626487,0.59376204
284,1436285445281,0.6003461,9.722255,0.5710171
285,1436285445301,0.60094464,9.809643,0.59256494
286,1436285445319,0.62608373,9.758167,0.5943606
287,1436285445341,0.6368576,9.688736,0.57999533
288,1436285445361,0.5662287,9.627684,0.61171854
289,1436285445377,0.56443304,9.633669,0.5398925
290,1436285445398,0.5722142,9.673772,0.5638345
291,1436285445418,0.5943606,9.752182,0.521936
292,1436285445443,0.66259533,9.771336,0.6075287
293,1436285445463,0.63087213,9.778519,0.6631939
294,1436285445484,0.6075287,9.805453,0.5446809
295,1436285445502,0.55964464,9.646837,0.38845924
296,1436285445519,0.60333884,9.536704,0.4890157
297,1436285445538,0.6739678,9.645041,0.54168814
298,1436285445558,0.65062433,9.76116,0.56563014
299,1436285445579,0.6314707,9.821614,0.6147113
300,1436285445662,0.6218939,9.767146,0.6278794
301,1436285445663,0.6063316,9.631873,0.54408234
302,1436285445664,0.5758055,9.64983,0.46028528
303,1436285445665,0.6003461,9.697714,0.49919105
304,1436285445678,0.6500258,9.753978,0.5770026
305,1436285445700,0.60693014,9.749788,0.6206968
306,1436285445907,0.6392518,9.702502,0.57999533
307,1436285445908,0.6194997,9.709685,0.5919664
308,1436285445909,0.5793968,9.768942,0.58418524
309,1436285445910,0.6159084,9.740809,0.6171055
310,1436285445911,0.59855044,9.721058,0.6937199
311,1436285445912,0.5434838,9.694122,0.6799533
312,1436285445913,0.5398925,9.670779,0.6171055
313,1436285445914,0.5518635,9.703101,0.5626374
314,1436285445915,0.5554548,9.712678,0.635062
315,1436285445916,0.53689975,9.663596,0.7068881
316,1436285445918,0.521936,9.681553,0.6901286
317,1436285445938,0.52852005,9.715671,0.57400984
318,1436285445960,0.54887074,9.713276,0.5674258
319,1436285445978,0.55485624,9.690532,0.6512229
320,1436285445998,0.53450555,9.6288805,0.7152678
321,1436285446018,0.5231331,9.61691,0.7206547
322,1436285446038,0.504578,9.677363,0.61112
323,1436285446057,0.5710171,9.730036,0.5279215
324,1436285446078,0.55844754,9.675568,0.7703344
325,1436285446097,0.49559975,9.624691,0.6488287
326,1436285446117,0.4854244,9.559449,0.5434838
327,1436285446137,0.55246204,9.610924,0.61530983
328,1436285446157,0.5650316,9.700109,0.6847417
329,1436285446177,0.5279215,9.721656,0.7182605
330,1436285446197,0.51595044,9.640253,0.7224504
331,1436285446217,0.50996494,9.659407,0.6847417
332,1436285446237,0.50637364,9.689334,0.5943606
333,1436285446257,0.51235914,9.736021,0.5770026
334,1436285446277,0.5105635,9.752781,0.6793547
335,1436285446297,0.46926352,9.7007065,0.7769185
336,1436285446317,0.4818331,9.662998,0.6194997
337,1436285446337,0.5422867,9.658808,0.56982
338,1436285446357,0.52971715,9.7162695,0.7032967
339,1436285446377,0.4997896,9.729437,0.7739257
340,1436285446398,0.49919105,9.705495,0.7679402
341,1436285446417,0.47165772,9.687539,0.7224504
342,1436285446438,0.4902128,9.704897,0.6194997
343,1436285446460,0.5093664,9.710283,0.6572084
344,1436285446477,0.5386954,9.68694,0.7134721
345,1436285446497,0.5243302,9.657013,0.7278373
346,1436285446517,0.47105917,9.70789,0.65660983
347,1436285446537,0.49559975,9.76535,0.6464345
348,1436285446557,0.51714754,9.768942,0.6931214
349,1436285446577,0.5177461,9.719262,0.741604
350,1436285446597,0.49799395,9.640253,0.7380127
351,1436285446617,0.47524905,9.665392,0.7410054
352,1436285446637,0.44113165,9.698911,0.6727707
353,1436285446657,0.5518635,9.692925,0.60214174
354,1436285446677,0.54288524,9.685144,0.9367314
355,1436285446697,0.5303157,9.673173,0.7116765
356,1436285446722,0.46327803,9.606734,0.5590461
357,1436285446742,0.51595044,9.647436,0.6745663
358,1436285446763,0.56682724,9.780912,0.7769185
359,1436285446783,0.4794389,9.764751,0.7721301
360,1436285446800,0.50158525,9.685743,0.7374141
361,1436285446819,0.49320555,9.705495,0.7565677
362,1436285446840,0.5033809,9.784504,0.7320272
363,1436285446864,0.51355624,9.711481,0.7290344
364,1436285446884,0.48243165,9.638457,0.78050977
365,1436285446904,0.5189432,9.677363,0.7326257
366,1436285446920,0.4177882,9.662998,0.76075757
367,1436285446947,0.5177461,9.654019,0.6817489
368,1436285447021,0.57640404,9.705495,0.8050503
369,1436285447022,0.4866215,9.680955,0.866701
370,1436285447023,0.4842273,9.721058,0.7835025
371,1436285447024,0.4914099,9.739613,0.7553706
372,1436285447041,0.52133745,9.68694,0.76434886
373,1436285447063,0.56203884,9.632472,0.7685388
374,1436285447082,0.5363012,9.64564,0.8038532
375,1436285447101,0.47884035,9.674371,0.7835025
376,1436285447123,0.48362875,9.696517,0.7386112
377,1436285447153,0.53330845,9.697116,0.76315176
378,1436285447161,0.55246204,9.720459,0.7565677
379,1436285447180,0.54168814,9.70789,0.82599956
380,1436285447203,0.51235914,9.729437,0.7613561
381,1436285447223,0.5398925,9.721656,0.81761986
382,1436285447243,0.48123455,9.700109,0.8026561
383,1436285447263,0.52852005,9.672575,0.6715736
384,1436285447283,0.5243302,9.676167,0.9175778
385,1436285447303,0.5434838,9.705495,0.6781576
386,1436285447322,0.5363012,9.6923275,0.6314707
387,1436285447343,0.58119243,9.660006,0.7015011
388,1436285447363,0.61112,9.655815,0.83258367
389,1436285447383,0.55964464,9.704897,0.80086046
390,1436285447403,0.5291186,9.731233,0.7170634
391,1436285447421,0.56982,9.730036,0.8242039
392,1436285447443,0.5363012,9.7007065,0.8242039
393,1436285447463,0.49679685,9.687539,0.78888947
394,1436285447483,0.50637364,9.728839,0.76195467
395,1436285447502,0.5422867,9.700109,0.777517
396,1436285447537,0.52073884,9.656414,0.8295909
397,1436285447541,0.581791,9.607931,0.80804306
398,1436285447560,0.56982,9.642049,0.88166475
399,1436285447580,0.53809685,9.6845455,0.8607155
400,1436285447602,0.53809685,9.693524,0.8595184
401,1436285447620,0.57879823,9.688137,0.908001
402,1436285447640,0.5722142,9.655815,0.9187749
403,1436285447662,0.5201403,9.638457,0.86729956
404,1436285447689,0.55605334,9.72824,0.87208796
405,1436285447748,0.5650316,9.718663,0.90620536
406,1436285447749,0.5530606,9.648034,0.9451111
407,1436285447750,0.53570265,9.630676,0.92895025
408,1436285447761,0.51595044,9.658808,0.89423436
409,1436285447782,0.50757074,9.665991,0.87807345
410,1436285447809,0.5231331,9.645041,0.9175778
411,1436285447821,0.5410896,9.618706,0.9588778
412,1436285447840,0.50637364,9.636064,1.0169371
413,1436285447874,0.46327803,9.687539,0.93613285
414,1436285447882,0.56323594,9.733028,1.0193313
415,1436285447903,0.60573304,9.717466,0.9780314
416,1436285447921,0.50517654,9.685144,0.91099375
417,1436285447942,0.4405331,9.633071,0.8810662
418,1436285447961,0.4794389,9.657611,0.96067345
419,1436285447983,0.492607,9.7162695,0.9995792
