id,attr_time,attr_x,attr_y,attr_z
1,1436619017618,-0.00061086525,0.02443461,-0.021991149
2,1436619017638,-0.002443461,0.017715093,-0.028405234
3,1436619017656,-0.003970624,0.015271631,-0.027183503
4,1436619017677,-0.0021380284,0.016493361,-0.022602014
5,1436619017702,-0.00061086525,0.017715093,-0.022907447
6,1436619017720,-0.004581489,0.02443461,-0.022907447
7,1436619017736,-0.0106901415,0.024129177,-0.015577064
8,1436619017755,-0.008552114,0.025961773,-0.01863139
9,1436619017777,-0.013744468,0.025045475,-0.018936822
10,1436619017794,-0.010995574,0.028710667,-0.016493361
11,1436619017815,-0.0067195175,0.029626964,-0.020158553
12,1436619017835,-0.003970624,0.027183503,-0.022296581
13,1436619017856,-0.0070249503,0.027794369,-0.023823744
14,1436619017877,-0.009162978,0.025961773,-0.018325957
15,1436619017945,-0.013133603,0.032375857,-0.017104227
16,1436619017946,-0.0143553335,0.028099801,-0.01863139
17,1436619017947,-0.007941248,0.029932396,-0.017715093
18,1436619017955,-0.011301007,0.028710667,-0.017715093
19,1436619017975,-0.01038471,0.029321533,-0.020158553
20,1436619017997,-0.0067195175,0.024740042,-0.016187929
21,1436619018015,-0.007941248,0.02565634,-0.022907447
22,1436619018036,-0.007941248,0.025961773,-0.018325957
23,1436619018055,-0.013133603,0.02565634,-0.014660766
24,1436619018078,-0.01160644,0.030543262,-0.017104227
25,1436619018096,-0.013744468,0.030543262,-0.015882496
26,1436619018118,-0.0125227375,0.028099801,-0.017715093
27,1436619018137,-0.012217305,0.032070424,-0.017104227
28,1436619018157,-0.008246681,0.034513887,-0.018325957
29,1436619018178,-0.016493361,0.025350908,-0.017104227
30,1436619018198,-0.014966198,0.029932396,-0.018020526
31,1436619018218,-0.013744468,0.03176499,-0.016798794
32,1436619018238,-0.014660766,0.031154128,-0.014966198
33,1436619018258,-0.0106901415,0.03726278,-0.018936822
34,1436619018277,-0.011301007,0.03176499,-0.011911872
35,1436619018298,-0.009162978,0.025045475,-0.01863139
36,1436619018317,-0.016187929,0.028405234,-0.016493361
37,1436619018336,-0.010995574,0.030543262,-0.016798794
38,1436619018358,-0.008246681,0.03023783,-0.020158553
39,1436619018376,-0.01282817,0.032375857,-0.018325957
40,1436619018396,-0.01160644,0.035430185,-0.019547688
41,1436619018416,-0.013744468,0.032070424,-0.015577064
42,1436619018439,-0.0106901415,0.027794369,-0.018936822
43,1436619018460,-0.009162978,0.03176499,-0.02076942
44,1436619018479,-0.01160644,0.031154128,-0.019242255
45,1436619018499,-0.008246681,0.031154128,-0.019547688
46,1436619018515,-0.009773844,0.028099801,-0.019242255
47,1436619018536,-0.003970624,0.02687807,-0.018936822
48,1436619018557,-0.012217305,0.025045475,-0.018325957
49,1436619018577,-0.01038471,0.026267206,-0.014049901
50,1436619018596,-0.007941248,0.025045475,-0.01863139
51,1436619018680,-0.004886922,0.024129177,-0.014660766
52,1436619018681,-0.007941248,0.026267206,-0.01740966
53,1436619018682,-0.007330383,0.025961773,-0.02076942
54,1436619018683,-0.0067195175,0.027794369,-0.020463986
55,1436619018702,-0.004581489,0.027794369,-0.02076942
56,1436619018720,-0.004276057,0.02687807,-0.01985312
57,1436619018742,-0.0021380284,0.02321288,-0.02076942
58,1436619018756,-0.0061086523,0.02107485,-0.020463986
59,1436619018784,-0.0015271631,0.02321288,-0.024740042
60,1436619018796,0.0036651916,0.022296581,-0.027183503
61,1436619018818,-0.0067195175,0.025961773,-0.021685716
62,1436619018843,-0.006414085,0.02565634,-0.024129177
63,1436619018857,-0.0015271631,0.026267206,-0.026572637
64,1436619018879,-0.0036651916,0.023823744,-0.025045475
65,1436619018899,0.0027488936,0.018020526,-0.025045475
66,1436619018919,-0.0018325958,0.017104227,-0.02443461
67,1436619018939,0.0030543262,0.02076942,-0.026267206
68,1436619018959,0.004581489,0.02107485,-0.026572637
69,1436619018977,-0.0030543262,0.01985312,-0.022296581
70,1436619018999,-0.0061086523,0.020158553,-0.021685716
71,1436619019019,-0.009162978,0.022907447,-0.01740966
72,1436619019039,0.0018325958,0.026267206,-0.023518313
73,1436619019059,0.0027488936,0.026572637,-0.023823744
74,1436619019077,-0.0018325958,0.024129177,-0.023823744
75,1436619019099,-0.008246681,0.02565634,-0.02107485
76,1436619019119,-0.01038471,0.022907447,-0.022602014
77,1436619019139,-0.009773844,0.029932396,-0.021685716
78,1436619019159,-0.007941248,0.02687807,-0.022907447
79,1436619019178,-0.013744468,0.028710667,-0.021380283
80,1436619019199,-0.004276057,0.028405234,-0.023518313
81,1436619019219,0.0021380284,0.023823744,-0.026267206
82,1436619019239,-0.00030543262,0.024129177,-0.02565634
83,1436619019259,-0.0021380284,0.022602014,-0.024740042
84,1436619019278,0.0036651916,0.022907447,-0.025045475
85,1436619019298,0.004276057,0.015577064,-0.025961773
86,1436619019319,0.0009162979,0.015271631,-0.023518313
87,1436619019338,0.0018325958,0.016493361,-0.022602014
88,1436619019402,-0.0012217305,0.020158553,-0.02565634
89,1436619019403,0.002443461,0.02107485,-0.026267206
90,1436619019404,-0.004581489,0.017715093,-0.02107485
91,1436619019416,-0.007941248,0.02107485,-0.020463986
92,1436619019437,-0.007941248,0.031154128,-0.022907447
93,1436619019456,-0.01160644,0.028099801,-0.018325957
94,1436619019476,-0.009468411,0.02565634,-0.01863139
95,1436619019496,-0.007941248,0.022602014,-0.018325957
96,1436619019519,-0.005497787,0.02687807,-0.019547688
97,1436619019538,-0.006414085,0.028099801,-0.02076942
98,1436619019558,-0.0070249503,0.028710667,-0.020158553
99,1436619019577,-0.00061086525,0.027488936,-0.018020526
100,1436619019600,-0.01160644,0.018020526,-0.014966198
101,1436619019617,-0.008857546,0.027488936,-0.018325957
102,1436619019639,-0.007330383,0.026267206,-0.015577064
103,1436619019657,-0.008857546,0.022602014,-0.01740966
104,1436619019679,-0.006414085,0.026267206,-0.018325957
105,1436619019698,-0.004581489,0.024740042,-0.01863139
106,1436619019719,-0.0061086523,0.03176499,-0.020158553
107,1436619019737,-0.0067195175,0.026572637,-0.0143553335
108,1436619019758,-0.0125227375,0.029626964,-0.014966198
109,1436619019780,-0.013133603,0.032986723,-0.01740966
110,1436619019798,-0.004276057,0.034208454,-0.01985312
111,1436619019820,-0.0067195175,0.02687807,-0.016798794
112,1436619019840,-0.0106901415,0.025961773,-0.018936822
113,1436619019859,-0.010995574,0.032070424,-0.017104227
114,1436619019880,-0.008246681,0.031154128,-0.017104227
115,1436619019899,-0.016187929,0.034513887,-0.013133603
116,1436619019919,-0.0033597588,0.028405234,-0.015271631
117,1436619019940,-0.005497787,0.02443461,-0.016187929
118,1436619019960,-0.0061086523,0.021991149,-0.013744468
119,1436619019980,-0.01038471,0.03145956,-0.015271631
120,1436619019999,-0.006414085,0.030543262,-0.013439035
121,1436619020020,-0.011911872,0.029932396,-0.013133603
122,1436619020044,-0.0061086523,0.03023783,-0.018020526
123,1436619020113,-0.013439035,0.027794369,-0.016187929
124,1436619020114,-0.0125227375,0.032070424,-0.015271631
125,1436619020115,-0.01282817,0.032070424,-0.019547688
126,1436619020127,-0.014049901,0.029932396,-0.013133603
127,1436619020223,-0.016798794,0.025045475,-0.015271631
128,1436619020224,-0.011301007,0.025045475,-0.016493361
129,1436619020225,-0.013133603,0.026572637,-0.016493361
130,1436619020226,-0.0125227375,0.028710667,-0.014660766
131,1436619020227,-0.009773844,0.027488936,-0.013744468
132,1436619020239,-0.014660766,0.029321533,-0.014049901
133,1436619020263,-0.01038471,0.032375857,-0.013439035
134,1436619020277,-0.008857546,0.028099801,-0.017715093
135,1436619020297,-0.004581489,0.02565634,-0.021685716
136,1436619020317,-0.008857546,0.025961773,-0.014966198
137,1436619020338,-0.0143553335,0.030848695,-0.013744468
138,1436619020363,-0.016798794,0.030848695,-0.0125227375
139,1436619020377,-0.014966198,0.03145956,-0.008246681
140,1436619020398,-0.020463986,0.03023783,-0.011911872
141,1436619020421,-0.01863139,0.029932396,-0.007941248
142,1436619020441,-0.018325957,0.035124753,-0.014660766
143,1436619020457,-0.018325957,0.042455133,-0.013439035
144,1436619020477,-0.013744468,0.03481932,-0.007330383
145,1436619020498,-0.0143553335,0.0290161,-0.011301007
146,1436619020519,-0.014049901,0.036957346,-0.0143553335
147,1436619020537,-0.004886922,0.034208454,-0.013744468
148,1436619020558,-0.005192355,0.027488936,-0.009773844
149,1436619020576,-0.008857546,0.03390302,-0.011911872
150,1436619020599,-0.008857546,0.029932396,-0.008552114
151,1436619020620,-0.01160644,0.034513887,-0.011301007
152,1436619020638,-0.014966198,0.03390302,-0.014660766
153,1436619020658,-0.009468411,0.03390302,-0.008857546
154,1436619020680,-0.01038471,0.030543262,-0.0106901415
155,1436619020701,-0.0070249503,0.03145956,-0.007941248
156,1436619020721,-0.016493361,0.028405234,-0.007941248
157,1436619020741,-0.01038471,0.037873644,-0.009468411
158,1436619020761,-0.0076358155,0.029626964,-0.01160644
159,1436619020781,-0.013439035,0.03023783,-0.011911872
160,1436619020800,-0.013133603,0.033292156,-0.014049901
161,1436619020817,-0.012217305,0.032070424,-0.010079277
162,1436619020844,-0.010995574,0.03390302,-0.010079277
163,1436619020883,-0.01038471,0.034513887,-0.00580322
164,1436619020884,-0.013439035,0.036651913,-0.008857546
165,1436619020897,-0.013439035,0.040011674,-0.013439035
166,1436619020918,-0.0106901415,0.04062254,-0.013439035
167,1436619020937,-0.010995574,0.028710667,-0.007330383
168,1436619020957,-0.01038471,0.03268129,-0.013133603
169,1436619020976,-0.0015271631,0.030543262,-0.014049901
170,1436619020996,-0.0015271631,0.0290161,-0.016798794
171,1436619021016,-0.0030543262,0.029626964,-0.014966198
172,1436619021037,-0.0067195175,0.024129177,-0.015577064
173,1436619021057,-0.004276057,0.025961773,-0.015882496
174,1436619021077,-0.0018325958,0.022907447,-0.01740966
175,1436619021097,-0.006414085,0.025350908,-0.017715093
176,1436619021117,-0.007330383,0.027488936,-0.016798794
177,1436619021137,-0.0061086523,0.026572637,-0.017104227
178,1436619021157,-0.0061086523,0.025961773,-0.015271631
179,1436619021177,0.0021380284,0.030543262,-0.020158553
180,1436619021202,-0.0021380284,0.020158553,-0.017104227
181,1436619021219,0.0,0.022296581,-0.016798794
182,1436619021239,-0.0067195175,0.024740042,-0.01282817
183,1436619021259,-0.006414085,0.027488936,-0.014660766
184,1436619021281,-0.010995574,0.027183503,-0.0125227375
185,1436619021298,-0.0070249503,0.03176499,-0.012217305
186,1436619021320,-0.008857546,0.024129177,-0.015882496
187,1436619021341,-0.0061086523,0.028099801,-0.014049901
188,1436619021361,-0.0067195175,0.023823744,-0.01863139
189,1436619021381,0.0009162979,0.02076942,-0.016187929
190,1436619021399,0.004886922,0.016187929,-0.021380283
191,1436619021429,-0.002443461,0.016798794,-0.02076942
192,1436619021440,0.0,0.022907447,-0.020158553
193,1436619021506,0.0018325958,0.021380283,-0.019242255
194,1436619021507,0.007330383,0.0067195175,-0.024129177
195,1436619021508,0.004581489,0.018936822,-0.025045475
196,1436619021518,0.007330383,0.02443461,-0.024129177
197,1436619021538,0.006414085,0.017104227,-0.022907447
198,1436619021560,-0.0018325958,0.018020526,-0.017104227
199,1436619021590,0.0,0.01160644,-0.021380283
200,1436619021599,0.0033597588,0.018325957,-0.023518313
201,1436619021620,-0.004886922,0.024129177,-0.02076942
202,1436619021645,-0.003970624,0.0290161,-0.018325957
203,1436619021659,-0.0030543262,0.020463986,-0.018020526
204,1436619021682,0.00030543262,0.023518313,-0.022907447
205,1436619021699,-0.0009162979,0.027183503,-0.028405234
206,1436619021722,-0.0015271631,0.034513887,-0.04795292
207,1436619021742,-0.012217305,0.069027774,-0.07849618
208,1436619021761,-0.026267206,0.14172074,-0.08582657
209,1436619021782,-0.030543262,0.17837265,-0.083383106
210,1436619021802,-0.038789943,0.21502456,-0.06352998
211,1436619021822,-0.06078109,0.20280726,-0.06352998
212,1436619021842,-0.07513642,0.22174409,-0.056505036
213,1436619021863,-0.07727446,0.2666427,-0.03634648
214,1436619021879,-0.08307768,0.2049453,-0.023518313
215,1436619021902,-0.08827003,0.15271631,-0.020463986
216,1436619021923,-0.093767814,0.11575896,-0.025045475
217,1436619021942,-0.09773844,0.11301007,-0.03390302
218,1436619021962,-0.1142318,0.112704635,-0.032986723
219,1436619021982,-0.124005646,0.10262536,-0.025961773
220,1436619022002,-0.15332718,0.10170906,-0.018325957
221,1436619022022,-0.1731803,0.071776666,-0.009162978
222,1436619022042,-0.19425514,0.064446285,-0.0018325958
223,1436619022062,-0.22235495,0.07360926,0.022602014
224,1436619022083,-0.25473082,0.07513642,0.058643065
225,1436619022102,-0.28802297,0.059864793,0.084910266
226,1436619022123,-0.3643811,0.06505715,0.14263703
227,1436619022142,-0.43554693,0.12034045,0.22907446
228,1436619022193,-0.49846604,0.12308934,0.27977628
229,1436619022194,-0.60231316,0.19792034,0.3484986
230,1436619022202,-0.74006325,0.30543262,0.45112398
231,1436619022219,-0.8558222,0.36346483,0.5384777
232,1436619022242,-1.0158689,0.41783184,0.69027776
233,1436619022260,-1.151481,0.4981606,0.81153446
234,1436619022279,-1.2498302,0.550695,0.8481864
235,1436619022305,-1.3530666,0.5271767,0.86193085
236,1436619022332,-1.2745703,0.16584991,0.9954049
237,1436619022340,-1.2061534,-0.42730024,1.3475688
238,1436619022360,-1.3286319,-0.75716746,1.670411
239,1436619022379,-1.5705346,-0.4089743,2.0540345
240,1436619022400,-1.711339,0.4529566,1.9825631
241,1436619022422,-1.8616118,1.1606439,2.1948388
242,1436619022442,-1.6038266,1.1071932,2.3417518
243,1436619022463,-1.3368785,0.43279803,2.16399
244,1436619022482,-1.0793989,0.462425,1.9932534
245,1436619022503,-0.63346726,0.2611449,1.6200147
246,1436619022522,-0.14782938,-0.35735616,1.1175779
247,1436619022543,0.23090707,-0.7486154,0.70188415
248,1436619022563,0.7293731,-0.93615097,0.10476339
249,1436619022583,1.1823297,-1.1487321,-0.58093286
250,1436619022604,1.4834863,-1.2144,-1.074512
251,1436619022619,1.808772,-1.1148291,-1.6694947
252,1436619022643,2.0088303,-0.78893244,-2.0824397
253,1436619022663,2.0882428,-0.3662137,-2.3109033
254,1436619022683,1.9960022,-0.15577064,-2.3732114
255,1436619022702,1.720502,0.07941248,-2.16399
256,1436619022724,1.1508701,0.0076358155,-1.8270979
257,1436619022743,0.66828656,-0.22204952,-1.4831808
258,1436619022763,0.4636467,-0.38148534,1.505172
259,1436619022783,-0.63194007,-2.0790799,-0.36926803
260,1436619022803,-0.7113526,1.7180585,-0.38637227
261,1436619022823,-0.32803464,4.917465,1.1301007
262,1436619022843,-0.41233405,-3.746742,0.4184427
263,1436619022863,-0.36743546,-0.45631635,0.25167647
264,1436619022882,-0.14660765,0.9297369,0.36896262
265,1436619022935,0.09987647,-0.7626653,-0.04337143
266,1436619022939,0.15577064,0.3399465,-0.23854288
267,1436619022940,0.0125227375,0.6704246,-0.26083946
268,1436619022960,-0.024129177,-0.07391469,-0.22052236
269,1436619022980,0.15210545,-0.3268129,-0.19883664
270,1436619023002,0.28527406,-0.3472769,-0.2602286
271,1436619023020,0.29443705,-0.047647487,-0.32253686
272,1436619023040,0.31337386,-0.44929138,-0.5345071
273,1436619023063,0.35460728,-0.23884831,-0.6206391
274,1436619023083,0.4092797,-0.14110987,-0.64568454
275,1436619023103,0.4972443,-0.058948494,-0.636827
276,1436619023121,0.5705481,-0.010079277,-0.636827
277,1436619023145,0.6258314,0.028099801,-0.66950834
278,1436619023163,0.67103547,-0.004886922,-0.72234815
279,1436619023183,0.70096785,-0.025961773,-0.7715228
280,1436619023203,0.70952,0.056505036,-0.80848014
281,1436619023223,0.66737026,0.19730948,-0.7672467
282,1436619023243,0.61575216,0.25870144,-0.6942484
283,1436619023263,0.5225952,0.29077184,-0.59803706
284,1436619023283,0.40042216,0.35613444,-0.4569272
285,1436619023303,0.29168814,0.23243423,-0.3594942
286,1436619023324,0.16982053,0.18661933,-0.2602286
287,1436619023340,0.043982297,0.1386664,-0.14049901
288,1436619023363,-0.08368854,0.20250183,-0.04428773
289,1436619023384,-0.23365596,0.172264,0.0842994
290,1436619023402,-0.3368922,0.09254608,0.18387043
291,1436619023423,-0.398895,0.035430185,0.15332718
292,1436619023444,-0.4288274,0.051618114,0.03634648
293,1436619023463,-0.44073927,0.16646078,-0.090713486
294,1436619023484,-0.46395215,0.22785273,-0.23457226
295,1436619023504,-0.54092115,0.5216789,-0.28069258
296,1436619023524,-0.7199047,0.732122,-0.22510384
297,1436619023544,-0.9077458,1.0305296,-0.043066
298,1436619023564,-1.0231993,1.248914,0.36163223
299,1436619023583,-1.135904,0.9016371,1.251052
300,1436619023602,-1.3775011,0.07880162,2.0259347
301,1436619023674,-1.7913623,-0.5149594,2.477975
302,1436619023675,-2.204002,-0.067500606,3.0561588
303,1436619023676,-2.2687535,1.1252137,3.488346
304,1436619023685,-2.3701572,1.1328496,3.2064316
305,1436619023704,-2.424524,1.8374827,2.701246
306,1436619023725,-1.9975294,1.9101756,2.159714
307,1436619023740,-1.5931365,0.68600166,2.1227567
308,1436619023761,-0.9596693,-0.86498517,1.5338826
309,1436619023784,-0.39400807,-2.0222695,0.77457714
310,1436619023802,0.17531833,-2.123673,0.047036625
311,1436619023822,0.643852,-1.9737056,-0.5036584
312,1436619023842,1.25319,-1.8310685,-1.3316863
313,1436619023865,1.7767016,-1.4697418,-2.1423044
314,1436619023884,1.9868392,-1.3295482,-2.6786442
315,1436619023904,2.1138992,-1.1169671,-2.9776626
316,1436619023924,2.0280726,-0.4129449,-2.9452868
317,1436619023944,1.6783522,0.16646078,-2.656042
318,1436619023964,0.9416488,0.33292156,-1.8832976
319,1436619023982,0.31612277,-0.095294975,-0.96669424
320,1436619024006,-0.048563786,-0.84604836,-0.19761491
321,1436619024047,-0.1441642,-1.0280862,0.8567385
322,1436619024048,-0.28985557,-1.4953982,-0.77579886
323,1436619024061,-0.4905248,3.484681,0.2648101
324,1436619024081,-0.6621779,-1.5622878,-0.19394971
325,1436619024101,-0.26511553,-0.21135938,-0.14966199
326,1436619024122,-0.015271631,-0.44012842,-0.35338554
327,1436619024143,0.20066923,0.2773328,-0.537256
328,1436619024163,0.3924809,-0.022907447,-0.57604593
329,1436619024184,0.54733527,-0.35430184,-0.72204274
330,1436619024204,0.59773165,-0.07360926,-0.79381937
331,1436619024225,0.6441574,-0.0125227375,-0.8362745
332,1436619024244,0.68111473,-0.07880162,-0.91904676
333,1436619024263,0.7119634,0.0027488936,-0.97433007
334,1436619024284,0.7495316,0.032070424,-1.0128145
335,1436619024303,0.7519751,0.16462818,-0.98624194
336,1436619024322,0.70096785,0.26175576,-0.91599244
337,1436619024343,0.60994893,0.22937989,-0.8323039
338,1436619024415,0.55833083,0.12492194,-0.79626286
339,1436619024416,0.45081854,0.32070425,-0.7870999
340,1436619024417,0.2996294,0.72112644,-0.57696223
341,1436619024423,0.124005646,0.62980205,-0.29932398
342,1436619024443,0.0027488936,0.11362094,-0.10476339
343,1436619024463,-0.19120082,-0.16279559,-0.033292156
344,1436619024481,-0.33444872,-0.17654006,-0.069027774
345,1436619024506,-0.46578476,0.17806722,0.14477506
346,1436619024523,-0.67256266,0.08032878,0.27550024
347,1436619024543,-0.8231409,-0.052839845,0.28038713
348,1436619024562,-0.906524,0.16798794,0.13958271
349,1436619024582,-0.99296147,0.5882632,0.08674286
350,1436619024604,-1.146594,0.8359691,0.2171626
351,1436619024624,-1.2983941,0.9068295,0.6704246
352,1436619024641,-1.4236214,0.5852089,1.3616186
353,1436619024664,-1.5549575,0.106595986,2.5308146
354,1436619024684,-1.89918,-0.7284568,3.0891457
355,1436619024743,-2.115121,-0.30085114,3.4956763
356,1436619024744,-1.829236,0.52503866,4.0796638
357,1436619024745,-2.0696115,1.0989466,2.9917126
358,1436619024762,-1.969735,2.6184738,2.31915
359,1436619024782,-1.4257594,2.5421157,2.3545802
360,1436619024802,-0.6560693,0.6209445,1.7733418
361,1436619024822,-0.14049901,-1.8295414,0.93462384
362,1436619024842,0.419359,-2.2290473,0.10873401
363,1436619024886,0.91813046,-2.129171,-0.7507534
364,1436619024887,1.3839152,-1.7562376,-1.5048665
365,1436619024902,1.6930131,-1.5082263,-2.141999
366,1436619024922,1.8524488,-1.491733,-2.7204883
367,1436619024942,1.8542814,-1.1997393,-2.8383853
368,1436619024962,1.7379116,-0.65668017,-2.6035078
369,1436619024982,1.2504412,-0.12980886,-1.8894062
370,1436619025002,0.6105598,0.43035457,-1.006095
371,1436619025026,0.23823744,-0.093767814,-0.4831944
372,1436619025042,0.04917465,-0.73548174,1.3814718
373,1436619025062,-0.18325958,-1.9052887,-1.351234
374,1436619025104,-0.40561453,4.0579777,0.31887165
