id,attr_time,attr_x,attr_y,attr_z
1,1435995489024,0.002443461,0.009162978,-0.025045475
2,1435995489046,0.0,0.03359759,-0.026572637
3,1435995489062,-0.0036651916,0.034208454,-0.022907447
4,1435995489084,-0.0067195175,0.02565634,-0.020463986
5,1435995489105,-0.010995574,0.03268129,-0.018936822
6,1435995489122,-0.012217305,0.03756821,-0.01863139
7,1435995489141,-0.015577064,0.03756821,-0.015882496
8,1435995489166,-0.013744468,0.027488936,-0.017715093
9,1435995489182,-0.013439035,0.035124753,-0.014966198
10,1435995489207,-0.0012217305,0.043676864,-0.019547688
11,1435995489223,0.0,0.03634648,-0.018325957
12,1435995489245,0.002443461,0.039095376,-0.011301007
13,1435995489262,-0.002443461,0.032070424,-0.01740966
14,1435995489286,0.00030543262,0.040317107,-0.016798794
15,1435995489311,0.00030543262,0.040011674,-0.015271631
16,1435995489388,0.0036651916,0.03176499,-0.016493361
17,1435995489389,-0.00061086525,0.03023783,-0.015577064
18,1435995489390,-0.004276057,0.03726278,-0.0125227375
19,1435995489391,0.0,0.032986723,-0.012217305
20,1435995489402,-0.004886922,0.021685716,-0.0106901415
21,1435995489420,0.002443461,0.013744468,-0.013133603
22,1435995489445,0.004276057,0.010995574,-0.013133603
23,1435995489464,0.002443461,-0.00061086525,-0.007941248
24,1435995489481,-0.003970624,-0.015271631,-0.0106901415
25,1435995489502,-0.0033597588,-0.01863139,-0.015882496
26,1435995489527,-0.0076358155,0.016187929,-0.015882496
27,1435995489545,-0.0143553335,0.01282817,-0.009162978
28,1435995489564,-0.014660766,-0.002443461,-0.013439035
29,1435995489587,-0.008246681,0.028405234,-0.016798794
30,1435995489602,-0.013133603,0.04184427,-0.014049901
31,1435995489623,-0.015577064,0.03176499,-0.014660766
32,1435995489647,-0.009773844,0.042760566,-0.018325957
33,1435995489662,-0.006414085,0.050701816,-0.014966198
34,1435995489682,-0.008857546,0.04337143,-0.016798794
35,1435995489704,0.004886922,0.036957346,-0.014049901
36,1435995489725,-0.0061086523,0.027488936,-0.008857546
37,1435995489745,-0.0009162979,0.0076358155,-0.0125227375
38,1435995489769,-0.005497787,0.004581489,-0.0106901415
39,1435995489785,-0.0012217305,0.018020526,-0.019242255
40,1435995489804,0.00030543262,0.02687807,-0.01863139
41,1435995489827,-0.0030543262,0.0290161,-0.019547688
42,1435995489842,-0.002443461,0.030848695,-0.016493361
43,1435995489862,-0.004276057,0.024740042,-0.017715093
44,1435995489886,-0.006414085,0.023823744,-0.021685716
45,1435995489902,-0.014660766,0.022907447,-0.018325957
46,1435995489925,-0.013133603,0.036651913,-0.016798794
47,1435995489950,-0.004276057,0.042760566,-0.01740966
48,1435995489963,-0.002443461,0.03359759,-0.01985312
49,1435995489990,-0.008552114,0.04428773,-0.019547688
50,1435995490053,-0.014966198,0.040317107,-0.017104227
51,1435995490054,-0.010079277,0.050396383,-0.018325957
52,1435995490055,-0.012217305,0.03634648,-0.016187929
53,1435995490069,-0.013439035,0.017104227,-0.01282817
54,1435995490085,-0.01985312,0.043066,-0.018936822
55,1435995490101,-0.019547688,0.054367006,-0.0143553335
56,1435995490124,-0.018936822,0.0070249503,-0.0070249503
57,1435995490141,-0.018020526,-0.007330383,-0.016187929
58,1435995490161,-0.009468411,0.014966198,-0.019547688
59,1435995490185,0.00061086525,0.04153884,-0.021380283
60,1435995490204,0.0,0.04520403,-0.016493361
61,1435995490222,0.009162978,0.02687807,-0.024129177
62,1435995490251,0.012217305,0.028405234,-0.024740042
63,1435995490263,0.009773844,0.018936822,-0.021380283
64,1435995490284,0.015882496,0.015271631,-0.021685716
65,1435995490307,0.0106901415,0.011911872,-0.018325957
66,1435995490325,0.015271631,0.016187929,-0.018325957
67,1435995490345,0.015271631,0.0027488936,-0.023518313
68,1435995490368,0.014049901,0.010079277,-0.026267206
69,1435995490385,0.009162978,0.0143553335,-0.024740042
70,1435995490404,0.014049901,0.024740042,-0.021991149
71,1435995490425,0.0070249503,0.012217305,-0.016493361
72,1435995490443,0.008857546,0.004886922,-0.018020526
73,1435995490466,0.0015271631,0.011911872,-0.019547688
74,1435995490487,0.002443461,0.022602014,-0.019547688
75,1435995490505,-0.00061086525,0.0076358155,-0.016187929
76,1435995490525,0.00030543262,0.0033597588,-0.016798794
77,1435995490547,-0.0030543262,0.008246681,-0.016798794
78,1435995490564,-0.002443461,0.023823744,-0.0143553335
79,1435995490586,-0.00030543262,0.029626964,-0.016798794
80,1435995490606,0.0021380284,0.02443461,-0.01863139
81,1435995490626,-0.0009162979,0.025961773,-0.021991149
82,1435995490690,-0.0027488936,0.037873644,-0.02107485
83,1435995490691,-0.00030543262,0.038789943,-0.020463986
84,1435995490692,-0.004276057,0.02321288,-0.016493361
85,1435995490701,-0.010995574,0.02443461,-0.018325957
86,1435995490723,-0.0076358155,0.029626964,-0.022296581
87,1435995490741,-0.005497787,0.03359759,-0.01863139
88,1435995490761,-0.003970624,0.031154128,-0.02321288
89,1435995490786,-0.01038471,0.022907447,-0.018325957
90,1435995490804,-0.0076358155,0.019547688,-0.01740966
91,1435995490826,-0.004886922,0.019242255,-0.018325957
92,1435995490848,-0.002443461,0.025961773,-0.024129177
93,1435995490866,-0.0027488936,0.0290161,-0.025961773
94,1435995490886,-0.0030543262,0.029626964,-0.02443461
95,1435995490906,-0.002443461,0.018020526,-0.021685716
96,1435995490926,-0.007941248,0.011301007,-0.020158553
97,1435995490946,-0.009468411,0.012217305,-0.02321288
98,1435995490968,-0.009773844,0.024129177,-0.024740042
99,1435995490986,-0.009162978,0.03726278,-0.02107485
100,1435995491003,-0.010079277,0.02687807,-0.022296581
101,1435995491028,-0.01038471,0.025045475,-0.023518313
102,1435995491044,-0.013744468,0.035124753,-0.021685716
103,1435995491064,-0.0143553335,0.028405234,-0.02443461
104,1435995491086,-0.008857546,0.024129177,-0.025045475
105,1435995491106,-0.01038471,0.040927973,-0.026267206
106,1435995491130,-0.0125227375,0.052839845,-0.028099801
107,1435995491156,-0.008552114,0.044593163,-0.025350908
108,1435995491167,-0.008246681,0.034208454,-0.025350908
109,1435995491186,-0.008246681,0.039095376,-0.028099801
110,1435995491205,-0.008552114,0.03604105,-0.027183503
111,1435995491222,-0.015577064,0.022296581,-0.018936822
112,1435995491250,-0.015271631,0.03390302,-0.028099801
113,1435995491332,-0.0067195175,0.04153884,-0.026267206
114,1435995491333,-0.008246681,0.03726278,-0.0290161
115,1435995491334,-0.009773844,0.02443461,-0.029321533
116,1435995491335,-0.014660766,0.025350908,-0.023823744
117,1435995491342,-0.011911872,0.02687807,-0.023823744
118,1435995491363,-0.008857546,0.038789943,-0.028710667
119,1435995491389,-0.010079277,0.029626964,-0.026267206
120,1435995491405,-0.0076358155,0.02687807,-0.028710667
121,1435995491422,-0.013133603,0.027488936,-0.019547688
122,1435995491444,-0.007330383,0.025961773,-0.02076942
123,1435995491462,-0.011911872,0.024129177,-0.024129177
124,1435995491482,-0.008246681,0.034513887,-0.024129177
125,1435995491505,-0.002443461,0.03634648,-0.029321533
126,1435995491522,0.003970624,0.027183503,-0.036651913
127,1435995491543,0.030848695,-0.0027488936,-0.0571159
128,1435995491565,0.10903945,-0.08002335,-0.054061573
129,1435995491583,0.19456059,-0.23609942,-0.06505715
130,1435995491603,0.2941316,-0.32345316,-0.099571034
131,1435995491627,0.32711834,-0.22999077,-0.13408493
132,1435995491643,0.33292156,-0.14172074,-0.14202617
133,1435995491663,0.29138273,-0.16187929,-0.12156218
134,1435995491687,0.2321288,-0.044593163,-0.105374254
135,1435995491717,0.20525073,0.18387043,-0.093462385
136,1435995491725,0.22937989,0.21319197,-0.071776666
137,1435995491746,0.3717115,0.044898596,-0.06688975
138,1435995491766,0.5381723,-0.19608775,-0.09865474
139,1435995491786,0.82924956,-0.2959642,-0.19211712
140,1435995491809,1.174083,-0.28099802,-0.36285394
141,1435995491829,1.3848315,-0.14782938,-0.516792
142,1435995491849,1.486846,0.015271631,-0.61453044
143,1435995491866,1.4541647,0.22602014,-0.5934556
144,1435995491888,1.2409728,0.25473082,-0.5006041
145,1435995491975,0.9459248,0.116980694,-0.45753807
146,1435995491976,0.50854534,-0.03268129,-0.42943826
147,1435995491977,0.073303826,0.08155051,-0.30726522
148,1435995491978,-0.24617869,0.56016344,-0.16371189
149,1435995491990,-0.65087694,0.84207773,0.014660766
150,1435995492002,-0.97219205,0.9578367,0.1459968
151,1435995492026,-1.1679744,0.92087936,0.12492194
152,1435995492046,-1.3295482,0.8304713,0.28771752
153,1435995492064,-1.176221,0.6768387,0.39400807
154,1435995492083,-1.0097603,0.21899518,0.3652974
155,1435995492105,-0.8539896,-0.17684549,0.28069258
156,1435995492122,-0.70707655,-0.42180246,0.22937989
157,1435995492143,-0.58123827,-0.42424592,0.25228736
158,1435995492165,-0.34483343,-0.50762904,0.24953845
159,1435995492183,-0.14935656,-0.6267477,0.18234327
160,1435995492204,-0.076358154,-0.569021,0.11026118
161,1435995492226,-0.05955936,-0.5018258,-0.010079277
162,1435995492244,-0.099265605,-0.23182335,-0.096516706
163,1435995492265,-0.13408493,0.24220806,-0.17715092
164,1435995492288,-0.11148291,0.5213735,-0.28344148
165,1435995492305,-0.07544186,0.58001655,-0.40683624
166,1435995492327,0.03359759,0.46609017,-0.4456262
167,1435995492345,0.44348818,0.15027285,-0.39767328
168,1435995492365,0.91996306,-0.12614368,-0.09896017
169,1435995492384,0.9850202,-0.80939645,-0.61850107
170,1435995492406,0.9975429,-1.6368134,-1.2257011
171,1435995492424,1.1765264,-1.0888673,-1.1392636
172,1435995492445,1.2223413,0.88453287,-0.88056225
173,1435995492464,1.3381003,1.0195341,-0.8604037
174,1435995492485,1.3558154,-0.18784106,-0.7266242
175,1435995492529,1.187522,-1.1511755,-0.76144356
176,1435995492530,0.94959,-0.5662721,-0.6789767
177,1435995492606,0.6774496,0.24831672,-0.50579643
178,1435995492609,0.47250426,0.4728097,-0.30726522
179,1435995492610,0.3408628,0.11789699,-0.12064589
180,1435995492611,0.24312437,0.2321288,0.0018325958
181,1435995492629,0.26450464,0.5002986,-0.023823744
182,1435995492644,0.3726278,0.55924714,-0.09682214
183,1435995492663,0.5366451,0.73945236,-0.19761491
184,1435995492684,0.92087936,0.9923506,-0.23915374
185,1435995492705,1.3683381,1.3200798,-0.32742378
186,1435995492723,1.6972891,1.4367551,-0.4260785
187,1435995492743,2.330451,1.6044376,-0.6078109
188,1435995492768,3.3875532,1.7046194,-0.8979719
189,1435995492789,4.3450847,1.1676689,-0.9935723
190,1435995492807,5.242751,0.20341812,-1.2177598
191,1435995492827,5.218011,0.1826487,-1.1273518
192,1435995492848,4.9104404,0.88453287,-1.1071932
193,1435995492868,4.906775,0.766025,-0.8549059
194,1435995492888,3.1661146,1.8451185,-0.029321533
195,1435995492909,1.6902641,0.8872818,0.66553766
196,1435995492926,0.41263947,-1.1798862,1.0644327
197,1435995492949,-1.432479,-2.486527,1.2834278
198,1435995492967,-3.0662382,-2.191479,1.7507398
199,1435995492987,-5.062546,-1.3897184,2.1716259
200,1435995493007,-5.934556,-0.66339964,2.5677722
201,1435995493028,-6.5365634,-0.3662137,2.8634307
202,1435995493048,-7.199658,0.20738874,2.814867
203,1435995493068,-7.66697,0.18906279,2.6740627
204,1435995493088,-7.710036,-1.0143417,2.7094927
205,1435995493110,-7.422013,-2.391232,2.826779
206,1435995493135,-6.592152,-2.2296581,3.1309898
207,1435995493152,-4.658458,0.10445796,1.2983941
208,1435995493175,-2.4611762,1.7867808,-0.12644911
209,1435995493227,0.6921103,0.18875736,-0.7620544
210,1435995493228,2.7592783,-0.4596761,-1.244638
211,1435995493229,3.6572502,-0.07422013,-1.2067643
212,1435995493245,7.665748,-1.5995506,-1.8985692
213,1435995493266,3.901291,-1.1575897,-1.9477439
214,1435995493284,2.7171285,-7.0945888,-0.36377025
215,1435995493306,3.8466184,-5.8368173,-2.0491474
216,1435995493325,1.9468275,-0.24617869,-2.8845057
217,1435995493347,1.6566665,0.8518516,-1.7437148
218,1435995493368,1.2892311,2.037541,-0.3915646
219,1435995493389,0.9492846,1.2391402,0.47769663
220,1435995493408,0.33322698,-0.9947941,-0.09773844
221,1435995493429,-0.076052725,-1.2220359,-0.39553526
222,1435995493448,-0.21410827,0.2098322,-0.5161811
223,1435995493468,0.23640485,2.6945267,-0.59040123
224,1435995493489,1.2504412,4.0149117,-0.3555236
225,1435995493509,2.9553661,3.4245105,-0.47250426
226,1435995493528,3.893655,0.6035349,-0.75777835
227,1435995493548,4.04515,-1.8677205,-0.9877691
228,1435995493568,4.0408735,-2.640465,-1.7687603
229,1435995493588,3.7891972,-0.6264423,-2.5213463
230,1435995493608,3.1948252,3.7113118,-2.658791
231,1435995493632,2.0100522,5.808107,-1.6242907
232,1435995493647,0.3359759,5.7732873,0.34666604
233,1435995493669,-0.27275133,3.4596353,1.344209
234,1435995493688,-1.6453656,1.4718798,1.7931949
235,1435995493708,-3.6957347,-1.0204504,2.0857995
236,1435995493726,-5.5127535,-2.8108964,2.164601
237,1435995493748,-6.3627725,-3.1612277,2.0937407
238,1435995493767,-6.9727216,-3.3896914,2.2574525
239,1435995493788,-7.3450437,-3.6181548,3.3087516
240,1435995493816,-7.4666057,-3.8869355,3.9807034
241,1435995493869,-7.072903,-2.9367347,3.5411859
242,1435995493870,-6.182262,0.54733527,0.96883225
243,1435995493871,-4.577824,2.7623327,0.4343252
244,1435995493885,-1.5735888,2.8185322,-0.06383542
245,1435995493905,1.2822062,1.16492,-0.93309665
246,1435995493928,2.7867672,-1.5543466,-0.9260717
247,1435995493946,4.9318204,-2.5919013,-0.78038037
248,1435995493970,4.3460007,-4.0695844,-1.63437
249,1435995493985,2.2495112,-6.531677,-2.2052236
250,1435995494008,3.6251798,-3.451694,-3.4831536
251,1435995494029,2.024102,1.0586295,-0.7464773
252,1435995494049,2.1557434,4.46573,-0.419359
253,1435995494067,1.6380352,1.9529362,-1.3072516
254,1435995494089,0.8228355,-0.92087936,-0.31031954
255,1435995494109,0.4373795,-1.0341948,0.23609942
256,1435995494131,0.4709771,0.81489426,0.30604348
257,1435995494147,0.42149702,1.4272866,-0.17623462
258,1435995494167,0.3622431,0.7858781,-0.19425514
259,1435995494188,0.25259277,0.45631635,-0.04795292
260,1435995494211,0.5726862,1.4465289,-0.02565634
261,1435995494231,1.9926424,2.65818,-0.094989546
262,1435995494251,3.3826663,2.007914,-0.40378192
263,1435995494271,4.575381,0.06566802,-0.61300325
264,1435995494289,4.707633,-2.6902506,-0.9550878
265,1435995494309,4.3951755,-2.7046058,-1.4040737
266,1435995494329,4.181678,-1.2513574,-2.0018053
267,1435995494349,3.0573804,2.25562,-1.6087136
268,1435995494369,1.7168368,3.937332,-0.6258314
269,1435995494390,0.7699956,2.7006352,0.46517387
270,1435995494409,-0.95264435,0.5375614,1.0134255
271,1435995494430,-2.5488353,-0.0888809,1.6132951
272,1435995494447,-4.690529,-0.37843102,2.0305161
273,1435995494466,-6.291912,-0.9786061,2.3619106
274,1435995494491,-7.5466294,-1.8008307,2.298075
275,1435995494506,-8.273559,-1.3176364,1.967597
276,1435995494525,-8.572577,-0.72601336,1.6215417
277,1435995494547,-8.05548,-1.2366967,1.7006488
278,1435995494572,-7.191106,-1.8787161,1.6374242
279,1435995494588,-5.7036486,-0.9837985,1.4785993
280,1435995494607,-2.1065688,1.5244142,-0.10048734
281,1435995494629,0.6102544,-0.63499445,-0.94225967
282,1435995494647,2.97583,-2.8047879,-1.1563679
283,1435995494666,3.549738,-2.3558018,-0.93676186
284,1435995494687,6.264423,-2.9749138,-1.6038266
285,1435995494706,2.7049112,-5.2415295,-1.7250835
286,1435995494727,3.8875463,-5.534439,-3.6034942
287,1435995494750,3.8234055,0.3036,-3.3652565
288,1435995494769,2.495079,2.0696115,0.006414085
289,1435995494789,2.1905627,3.0121765,-1.6154331
290,1435995494809,1.4816537,0.026267206,-0.6649268
291,1435995494830,0.64751714,-1.6951511,-0.07238753
292,1435995494848,0.5925393,-0.9306532,-0.04642576
293,1435995494869,0.42363504,0.9935723,-0.18417588
294,1435995494890,0.301462,1.2333369,-0.39095375
295,1435995494910,0.09712757,0.60048056,-0.3231477
296,1435995494930,0.17654006,1.1123856,-0.21380283
297,1435995494950,0.94225967,2.784629,-0.23487769
298,1435995494970,2.6099217,3.3545666,-0.3848451
299,1435995494990,4.0365977,1.890628,-0.66156703
300,1435995495008,4.4431286,-1.276403,-0.6536258
301,1435995495031,4.2449026,-2.7189612,-1.1047498
302,1435995495052,4.128227,-2.207056,-2.1398609
303,1435995495071,3.7110064,1.7910569,-2.5411994
304,1435995495090,2.1826215,4.4932194,-1.575116
305,1435995495111,1.4144585,3.9718459,-0.52320606
306,1435995495160,0.40866885,0.93737274,-0.30757064
307,1435995495161,-1.353372,0.22968534,0.06536258
308,1435995495166,-3.268129,0.89461213,0.59681535
309,1435995495186,-5.2699347,0.3915646,0.8906415
310,1435995495206,-6.277862,-1.2657127,1.0482447
311,1435995495227,-7.418042,-2.038152,1.3466524
312,1435995495246,-8.175515,-2.3469443,1.5980235
313,1435995495267,-8.356331,-2.9162707,2.091908
314,1435995495288,-8.064643,-3.7409387,3.0045407
315,1435995495307,-7.0258665,-2.8069258,2.7953193
316,1435995495327,-5.877745,0.9447031,1.2751812
317,1435995495353,-2.4120014,3.075401,-0.22510384
318,1435995495367,1.389413,0.818254,-0.8524625
319,1435995495405,3.0451632,-3.2189543,-0.73792523
320,1435995495407,5.7684007,-3.5195,-1.577254
321,1435995495426,4.227493,-4.509407,-2.346028
322,1435995495447,2.6697865,-4.9550333,-2.5854871
323,1435995495467,4.2827764,-0.8918633,-3.787059
324,1435995495486,2.528066,1.8796324,-0.20372356
325,1435995495513,2.7348437,3.072652,-0.7742717
326,1435995495529,2.0011945,0.2678644,-1.9801197
327,1435995495550,1.0412198,-1.1652255,-0.3753767
328,1435995495569,0.77182823,-1.1016954,-0.22204952
329,1435995495591,0.7134906,0.35338554,-0.36682457
330,1435995495610,0.46089783,1.0268645,-0.40653083
331,1435995495629,0.17806722,0.66828656,-0.28680122
332,1435995495649,-0.0580322,0.43371433,-0.24465153
333,1435995495668,0.06658431,1.4566082,-0.25625798
334,1435995495690,1.02717,2.876259,-0.116980694
335,1435995495709,2.3051,2.9562824,-0.3145956
336,1435995495729,3.7357464,1.5870279,-0.5891795
337,1435995495750,4.2659774,-1.2635747,-0.6420194
338,1435995495775,4.171599,-2.8915308,-1.2235631
339,1435995495816,3.9660425,-2.223244,-2.2461514
340,1435995495817,3.3707545,2.1734586,-2.516154
341,1435995495832,2.4010057,6.1727934,-1.8258762
342,1435995495851,1.1838568,5.7378573,-0.57848936
343,1435995495866,-0.0027488936,2.4956899,-0.18325958
344,1435995495888,-1.1859949,1.3704761,0.16829337
345,1435995495911,-3.1132748,1.6737708,0.47983465
346,1435995495929,-5.295285,0.95386606,0.6230826
347,1435995495949,-6.618725,-0.82833326,0.77457714
348,1435995495971,-7.367035,-1.7895297,0.915687
349,1435995495991,-8.117177,-2.1413882,1.1673635
350,1435995496012,-8.250651,-2.5830436,1.8668042
351,1435995496029,-7.9705696,-3.68535,2.6988027
352,1435995496051,-6.9962397,-3.7846155,3.0537155
353,1435995496072,-5.4522777,-0.929126,1.3029755
354,1435995496091,-3.1554244,2.4184155,0.16432275
355,1435995496111,0.41783184,1.9770653,-0.6068946
356,1435995496131,2.629164,-1.2040154,-0.98746365
357,1435995496149,4.225966,-1.7192802,-1.2794572
358,1435995496175,6.2332687,-2.631302,-2.482251
359,1435995496192,2.2928827,-4.4299946,-2.2696698
360,1435995496209,4.3337836,-1.7003434,-3.6654968
361,1435995496231,2.9856038,0.9718866,-1.4618006
362,1435995496251,2.6774223,2.091908,-0.5421429
363,1435995496269,2.2229385,1.2434162,-1.9486601
364,1435995496290,1.1963795,-0.18417588,-0.79473567
365,1435995496311,0.68936145,-0.88086766,-0.119729586
366,1435995496331,0.7516697,-0.24404067,-0.08368854
367,1435995496349,0.57971114,0.7837401,-0.21044308
368,1435995496372,0.4361578,0.6948592,-0.43890667
369,1435995496388,0.17348573,0.081855945,-0.42943826
370,1435995496408,0.14538592,1.3014483,-0.36835176
371,1435995496438,0.7440339,2.610227,-0.18417588
372,1435995496489,2.1148155,3.2030718,-0.11026118
373,1435995496490,3.3197472,1.6022996,-0.39370266
374,1435995496491,4.2079453,-0.7162395,-0.59986967
375,1435995496508,4.3059893,-3.0201178,-1.1976013
376,1435995496527,4.1963387,-2.9272664,-1.9401081
377,1435995496548,3.875329,-0.24404067,-2.5002716
378,1435995496572,2.6899452,4.746423,-1.9135354
379,1435995496589,1.6230689,6.029851,-0.9459248
380,1435995496609,0.6579019,4.240932,-0.2932153
381,1435995496629,-0.7629707,2.0925188,0.03176499
382,1435995496651,-2.218357,2.269059,0.40958515
383,1435995496672,-4.408309,1.4920384,0.528093
384,1435995496689,-6.039014,-0.063224554,0.64843345
385,1435995496711,-7.137655,-1.5128077,0.79076505
386,1435995496731,-7.78731,-2.4013114,1.0100657
387,1435995496750,-8.119315,-2.8225029,1.464244
