id,attr_time,attr_x,attr_y,attr_z
1,1435995489024,0.010079268,0.13781652,0.04103421
2,1435995489043,0.0061086416,0.13934368,0.061498195
3,1435995489063,0.017715082,0.13690022,0.074631795
4,1435995489085,0.024129167,0.14636862,0.08287848
5,1435995489103,0.028099792,0.15766963,0.09509578
6,1435995489123,0.029321522,0.1518664,0.1027316
7,1435995489149,0.035735607,0.14025998,0.098150104
8,1435995489163,0.037262768,0.13842738,0.09265232
9,1435995489183,0.028405223,0.12468291,0.08135132
10,1435995489206,0.025045466,0.10727325,0.07707526
11,1435995489223,0.023823734,0.09688854,0.060276464
12,1435995489243,0.025045466,0.1020809,0.04195051
13,1435995489266,0.027183494,0.122544885,0.025151715
14,1435995489283,0.030543253,0.14514689,0.017515898
15,1435995489303,0.035735607,0.14728492,0.018432196
16,1435995489325,0.046120316,0.13842738,0.033398394
17,1435995489350,0.042455126,0.13262415,0.04805916
18,1435995489366,0.029016089,0.11216017,0.05355695
19,1435995489390,0.0244346,0.09200162,0.053251516
20,1435995489410,0.025350899,0.08589297,0.046531998
21,1435995489423,0.018936813,0.08558753,0.03736902
22,1435995489445,0.008552104,0.08131148,0.026678877
23,1435995489463,0.0039706156,0.0843658,0.026678877
24,1435995489483,0.0024434514,0.09047446,0.021791955
25,1435995489505,-0.0033597685,0.1002483,0.021791955
26,1435995489523,-0.006108664,0.1002483,0.024540849
27,1435995489543,0.0027488843,0.10391349,0.030344069
28,1435995489565,0.0061086416,0.11490907,0.033398394
29,1435995489583,0.010995563,0.12223945,0.040423345
30,1435995489604,0.00916297,0.12590463,0.03614729
31,1435995489625,0.0024434514,0.12071228,0.041339643
32,1435995489643,0.0061086416,0.10941128,0.03645272
33,1435995489664,0.018936813,0.112771034,0.037063587
34,1435995489685,0.02076941,0.11368734,0.038590748
35,1435995489704,0.018936813,0.11460363,0.04195051
36,1435995489724,0.017104216,0.12071228,0.052335218
37,1435995489746,0.017715082,0.10360806,0.05936017
38,1435995489763,0.015882485,0.10421892,0.061192766
39,1435995489783,0.019242246,0.111243874,0.06791228
40,1435995489806,0.017104216,0.11216017,0.08257305
41,1435995489824,0.018020514,0.10330263,0.08379477
42,1435995489843,0.02687806,0.10055373,0.0877654
43,1435995489865,0.034208443,0.099637434,0.08196218
44,1435995489883,0.03359758,0.10391349,0.08043502
45,1435995489906,0.029626954,0.10330263,0.084405646
46,1435995489932,0.030543253,0.09902657,0.08684911
47,1435995489943,0.03481931,0.099637434,0.08807084
48,1435995489963,0.037873633,0.099332,0.09295776
49,1435995489986,0.04398229,0.100859165,0.09387405
50,1435995490003,0.04398229,0.09749941,0.09540121
51,1435995490023,0.049480073,0.09444508,0.09020886
52,1435995490046,0.04856378,0.095055945,0.09265232
53,1435995490064,0.04978551,0.095055945,0.0886817
54,1435995490084,0.05589416,0.10177546,0.085932806
55,1435995490106,0.0534507,0.100859165,0.085932806
56,1435995490124,0.05039637,0.101164594,0.07921329
57,1435995490144,0.047952913,0.09597224,0.07524267
58,1435995490166,0.04459315,0.08833642,0.068523146
59,1435995490184,0.038789935,0.0871147,0.06699598
60,1435995490203,0.034513876,0.095361374,0.06638512
61,1435995490226,0.037873633,0.10299719,0.06760685
62,1435995490244,0.035430174,0.10727325,0.058749303
63,1435995490264,0.028099792,0.115519926,0.054473244
64,1435995490288,0.025961764,0.122544885,0.053251516
65,1435995490304,0.030848686,0.12193401,0.053862378
66,1435995490324,0.029626954,0.12132315,0.05630584
67,1435995490346,0.023823734,0.1161308,0.05141892
68,1435995490364,0.0244346,0.11093844,0.05355695
69,1435995490386,0.030848686,0.11216017,0.056916706
70,1435995490406,0.025656331,0.11490907,0.049586326
71,1435995490424,0.022907436,0.11582536,0.051724352
72,1435995490444,0.019242246,0.10788412,0.04195051
73,1435995490466,0.017715082,0.099332,0.0446994
74,1435995490484,0.021991137,0.099332,0.035841856
75,1435995490505,0.024129167,0.10452436,0.032176666
76,1435995490526,0.022907436,0.1152145,0.04347767
77,1435995490544,0.024129167,0.11063301,0.04928089
78,1435995490564,0.025045466,0.1115493,0.051724352
79,1435995490586,0.017104216,0.111243874,0.047142863
80,1435995490604,0.00702494,0.11307647,0.0456157
81,1435995490624,0.0042760484,0.11490907,0.040728778
82,1435995490646,0.0036651827,0.1142982,0.040117912
83,1435995490664,0.007330373,0.115519926,0.039507046
84,1435995490684,0.005803209,0.12040685,0.030649502
85,1435995490712,0.005803209,0.12101772,0.027595175
86,1435995490724,0.0009162873,0.12071228,0.02698431
87,1435995490744,0.0027488843,0.12193401,0.021791955
88,1435995490768,0.00335975,0.14545232,0.026373444
89,1435995490785,0.008246671,0.14942294,0.031260367
90,1435995490805,0.017409649,0.1387328,0.031260367
91,1435995490826,0.025045466,0.13842738,0.039201614
92,1435995490844,0.020463977,0.13964911,0.037674453
93,1435995490864,0.013439026,0.13690022,0.039201614
94,1435995490887,0.021685705,0.14361973,0.033398394
95,1435995490905,0.023823734,0.14911751,0.03523099
96,1435995490925,0.017715082,0.14575776,0.042866807
97,1435995490947,0.02229657,0.13995454,0.049586326
98,1435995490964,0.025656331,0.13201329,0.056916706
99,1435995490987,0.027183494,0.13323502,0.061498195
100,1435995491008,0.028099792,0.13354045,0.059971035
101,1435995491030,0.027488926,0.13567849,0.05477868
102,1435995491047,0.021991137,0.13201329,0.05600041
103,1435995491068,0.025350899,0.11460363,0.051724352
104,1435995491088,0.02779436,0.10574608,0.049891755
105,1435995491105,0.034208443,0.10971671,0.048670024
106,1435995491127,0.029626954,0.10452436,0.048364595
107,1435995491146,0.032070413,0.111243874,0.049891755
108,1435995491165,0.03023782,0.11216017,0.051724352
109,1435995491187,0.025045466,0.09291792,0.05355695
110,1435995491209,0.02687806,0.09016902,0.052335218
111,1435995491225,0.029932387,0.09200162,0.053251516
112,1435995491247,0.028710656,0.096583106,0.052335218
113,1435995491270,0.027183494,0.08864186,0.053862378
114,1435995491285,0.03695734,0.077340856,0.052946083
115,1435995491307,0.045204017,0.07398109,0.045921132
116,1435995491325,0.032986715,0.08680926,0.042561375
117,1435995491345,0.022602003,0.096583106,0.040423345
118,1435995491368,0.017409649,0.09902657,0.037979886
119,1435995491385,0.023823734,0.100859165,0.037979886
120,1435995491419,0.026267197,0.10452436,0.037979886
121,1435995491427,0.029626954,0.112771034,0.034314692
122,1435995491445,0.026267197,0.113992766,0.030954935
123,1435995491467,0.013439026,0.11460363,0.023319118
124,1435995491487,0.009773836,0.111243874,0.02362455
125,1435995491505,0.0036651827,0.113992766,0.024540849
126,1435995491525,0.00702494,0.11368734,0.019653928
127,1435995491547,0.010079268,0.117047094,0.018737629
128,1435995491566,0.01069013,0.12651551,0.019653928
129,1435995491585,0.0067195073,0.12162858,0.023013685
130,1435995491608,0.007941239,0.124377474,0.024540849
131,1435995491630,0.00916297,0.124072045,0.021791955
132,1435995491645,0.014355324,0.12590463,0.023013685
133,1435995491667,0.017715082,0.12804267,0.02698431
134,1435995491685,0.019547679,0.12804267,0.027900606
135,1435995491708,0.019547679,0.13170786,0.030954935
136,1435995491727,0.018020514,0.12621006,0.029122338
137,1435995491746,0.018325947,0.1301807,0.026068013
138,1435995491765,0.015882485,0.13262415,0.024846282
139,1435995491787,0.008857537,0.12804267,0.02576258
140,1435995491805,0.009468403,0.12132315,0.028816905
141,1435995491825,0.0155770555,0.1152145,0.032482095
142,1435995491849,0.017104216,0.12101772,0.034620125
143,1435995491866,0.008246671,0.124377474,0.031260367
144,1435995491886,0.0042760484,0.11949056,0.032787528
145,1435995491908,-0.03115414,0.12468291,0.021791955
146,1435995491925,-0.06475173,0.1161308,0.005298594
147,1435995491945,-0.05039639,0.13659477,-0.02066318
148,1435995491968,-0.04612034,0.14820123,-0.035018515
149,1435995491985,-0.055283315,0.1460632,-0.041127164
150,1435995492006,-0.07544187,0.14087084,-0.04295976
151,1435995492028,-0.07788533,0.15095012,-0.049679276
152,1435995492045,-0.08552115,0.17538473,-0.06250745
153,1435995492066,-0.097433016,0.18576944,-0.064645484
154,1435995492087,-0.1029308,0.18088251,-0.05792596
155,1435995492106,-0.072692975,0.17660645,-0.013638228
156,1435995492126,-0.01404991,0.19554327,0.063025355
157,1435995492152,0.033292145,0.23524952,0.17817347
158,1435995492167,0.06200281,0.28992197,0.27652276
159,1435995492186,0.07360925,0.34520525,0.39625236
160,1435995492216,0.05711589,0.4185091,0.5007103
161,1435995492226,0.03359758,0.5009759,0.5877586
162,1435995492248,0.03695734,0.5559538,0.6216616
163,1435995492276,0.11087203,0.58161014,0.6121932
164,1435995492286,0.1994475,0.61581856,0.5691272
165,1435995492306,0.25992316,0.65033245,0.5092624
166,1435995492328,0.2855795,0.63414454,0.4463433
167,1435995492347,0.29901853,0.5840536,0.40755337
168,1435995492366,0.32864547,0.54526365,0.3770101
169,1435995492388,0.36926806,0.51136065,0.39075458
170,1435995492406,0.40042216,0.49578354,0.44145638
171,1435995492426,0.43340886,0.44966322,0.48757672
172,1435995492449,0.4841107,0.42736664,0.554161
173,1435995492466,0.47250426,0.42156342,0.5697381
174,1435995492487,0.43249255,0.3748322,0.5327807
175,1435995492510,0.39828414,0.3381803,0.45947692
176,1435995492527,0.34300083,0.3644475,0.37487206
177,1435995492547,0.2773328,0.39407447,0.25117186
178,1435995492570,0.2623666,0.38063544,0.22398835
179,1435995492587,0.2565634,0.391631,0.20535697
180,1435995492608,0.22876902,0.4197308,0.15923664
181,1435995492629,0.2220495,0.412095,0.094790354
182,1435995492647,0.21594085,0.423396,0.01995936
183,1435995492667,0.1762346,0.43194813,-0.092134416
184,1435995492689,0.14599678,0.3445944,-0.23263341
185,1435995492707,0.1395827,0.22730827,-0.32731754
186,1435995492727,0.1591304,0.14545232,-0.3300664
187,1435995492749,0.33200526,0.07245393,-0.07167043
188,1435995492766,0.6783658,0.032442257,0.41854894
189,1435995492788,0.7690793,-0.12943703,0.52911556
190,1435995492808,0.7165449,-0.3575952,0.36326563
191,1435995492831,0.5497787,-0.4794628,0.14518674
192,1435995492848,0.25595254,-0.41929263,0.122584715
193,1435995492869,0.07055493,-0.38874933,0.3562407
194,1435995492886,0.0009162873,-0.31727812,0.38892198
195,1435995492908,0.15210544,-0.18594208,0.084711075
196,1435995492931,0.16890423,-0.48587692,-0.066172644
197,1435995492947,0.034513876,-0.7299176,0.023929983
198,1435995492967,-0.02535092,-0.79344755,0.11464347
199,1435995492989,-0.11484268,-0.77542704,0.17420284
200,1435995493007,-0.2021964,-0.6929602,0.09998271
201,1435995493027,-0.24984388,-0.623627,-0.057315093
202,1435995493050,-0.26542097,-0.54421455,-0.13825473
203,1435995493067,-0.27519482,-0.41990346,-0.15780242
204,1435995493087,-0.3210097,-0.22595376,-0.1593296
205,1435995493113,-0.4108069,0.018392354,-0.25340283
206,1435995493129,-0.49021935,0.3323771,-0.41467127
207,1435995493148,-0.5421429,0.6045176,-0.5515051
208,1435995493168,-0.5830709,0.62986845,-0.7277397
209,1435995493187,-0.77640975,0.6423912,-1.0154573
210,1435995493207,-1.104139,0.842755,-1.0664644
211,1435995493228,-1.2541064,1.2877703,-0.53928775
212,1435995493247,-1.3854424,1.1567397,1.1964859
213,1435995493267,0.5705481,1.3454971,3.103607
214,1435995493287,0.43676865,1.4667538,2.2340403
215,1435995493307,-0.9254609,0.7831956,-0.70086163
216,1435995493327,-0.7104363,-0.16914329,-1.5734826
217,1435995493353,-0.039400816,0.50891715,-1.3343289
218,1435995493367,0.054977864,0.8720765,-0.86671156
219,1435995493388,-0.20861049,0.7642588,-0.73476464
220,1435995493409,-0.20097469,0.8155715,-0.86946046
221,1435995493427,0.07422012,0.80946285,-1.0264528
222,1435995493450,0.23915373,0.6017687,-1.0536363
223,1435995493479,0.2125811,0.09475051,-1.1779474
224,1435995493524,0.16340645,-0.213431,-1.5139233
225,1435995493525,0.19181168,-0.24030909,-1.8019463
226,1435995493527,0.34330624,-0.20182458,-1.8715849
227,1435995493548,0.50701815,-0.3218596,-1.2536947
228,1435995493567,0.43646324,-0.891186,-0.48797506
229,1435995493587,0.280998,-1.507549,-0.20514448
230,1435995493607,0.33108896,-1.8056513,-0.014249094
231,1435995493628,0.10231992,-1.7720537,0.5349187
232,1435995493648,0.3753767,-2.2237885,1.5599506
233,1435995493667,1.0687088,-2.1074185,3.2126465
234,1435995493688,1.3860532,0.0135054365,1.9334947
235,1435995493708,0.4251622,-2.1941614,0.005909458
236,1435995493731,0.34605515,-3.1351993,-0.012416497
237,1435995493747,0.48563784,-1.8774279,0.025151715
238,1435995493767,0.32986724,-1.7796896,0.0605819
239,1435995493787,0.22266038,-1.7867144,0.24659038
240,1435995493807,0.08491026,-1.5765768,0.28782377
241,1435995493828,-0.09407325,-1.3200134,0.18153322
242,1435995493847,-0.24251352,-0.80902463,-0.035018515
243,1435995493867,-0.40286565,-0.21007127,-0.23385516
244,1435995493888,-0.6505715,0.19065636,-0.7121626
245,1435995493907,-0.7861836,0.41514933,-0.9775835
246,1435995493927,-0.68997234,0.08039518,-0.63733166
247,1435995493948,-0.5396995,0.22852999,-0.22591391
248,1435995493967,-0.7119635,1.0232657,0.52545035
249,1435995493988,-0.990518,0.79541296,2.0953739
250,1435995494014,0.6976081,0.6735453,3.2813687
251,1435995494029,0.8539896,1.348246,1.5825527
252,1435995494051,-0.8536842,0.5290757,-0.4094789
253,1435995494068,-0.6505715,-0.38141894,-1.1562617
254,1435995494087,0.0956004,0.7462383,-0.5713582
255,1435995494109,-0.0916298,1.4377377,-0.022495776
256,1435995494128,-0.4242459,1.5843455,-0.010583904
257,1435995494147,-0.3274238,1.6545949,-0.21522376
258,1435995494167,-0.14141531,1.7004098,-0.49438918
259,1435995494188,-0.095600426,1.387036,-0.7280451
260,1435995494208,-0.05039639,0.82931596,-1.0469168
261,1435995494228,0.07055493,0.41178957,-1.3899176
262,1435995494248,0.35002577,0.3277956,-1.778428
263,1435995494268,0.68386364,0.13628934,-1.3856416
264,1435995494288,0.89797187,-0.25344267,-0.32365233
265,1435995494312,0.98685277,-0.6834918,0.44084552
266,1435995494330,0.9077457,-0.6798266,1.214201
267,1435995494349,0.34147364,-0.97426367,1.8369781
268,1435995494370,0.7446447,-1.5078545,2.6311028
269,1435995494393,1.5922202,-0.88874257,2.681499
270,1435995494408,1.2333369,-0.17922255,1.1341776
271,1435995494428,0.13408491,-1.9568404,-0.23171711
272,1435995494448,0.25625795,-2.5063136,-0.14741771
273,1435995494469,0.7440339,-1.6770642,0.12411189
274,1435995494489,0.55680364,-1.2595377,0.26308373
275,1435995494511,0.16615534,-1.3108504,0.357157
276,1435995494529,0.022907436,-1.2393792,0.44389984
277,1435995494550,-0.04153885,-0.97762346,0.36540365
278,1435995494572,-0.3048218,-0.7207546,-0.068005234
279,1435995494597,-0.49419004,-0.62851393,-0.49072397
280,1435995494610,-0.47311515,-0.45777708,-0.7146061
281,1435995494628,-0.13530666,-0.15020645,-0.64710546
282,1435995494648,0.2134974,-0.102253534,-0.6596282
283,1435995494669,0.13439035,-0.16242376,-0.6245035
284,1435995494688,-0.08216138,-0.09706118,0.11189458
285,1435995494709,-0.74342304,0.15003382,1.3226295
286,1435995494728,-0.9162979,0.40293202,2.5691
287,1435995494748,-0.30665433,0.6769051,3.2291398
288,1435995494768,0.8151997,1.8375491,1.0361336
289,1435995494790,-1.0326678,0.6115425,-1.3847252
290,1435995494808,-0.28680122,0.28198072,-1.2365905
291,1435995494828,0.22174408,1.2095796,-0.9082504
292,1435995494849,0.040317096,1.5391414,-0.78638273
293,1435995494868,-0.27977628,1.5638814,-0.7518689
294,1435995494888,-0.22785275,1.1231421,-0.89481133
295,1435995494909,0.029321522,0.6946202,-1.1599269
296,1435995494928,0.15393803,0.49242377,-1.5218645
297,1435995494949,0.2434298,0.3531465,-1.9629092
298,1435995494969,0.48685962,0.17446843,-2.2671201
299,1435995494994,0.52656585,-0.20854408,-1.1874158
300,1435995495010,0.5564982,-0.49931592,0.27163583
301,1435995495031,0.43127084,-0.93516827,0.8388242
302,1435995495051,0.29932398,-0.89882183,1.170524
303,1435995495070,0.12064587,-0.61354774,2.0532243
304,1435995495090,0.33108896,-1.2412118,3.6582727
305,1435995495112,1.509448,-1.6975281,3.7257733
306,1435995495128,1.5360206,-0.6740234,1.1760218
307,1435995495149,-0.22235496,-2.3761992,-0.32395777
308,1435995495171,-0.07727446,-2.7766216,-0.21308573
309,1435995495192,0.6035348,-2.0063205,-0.024633802
310,1435995495214,0.618501,-1.7308203,0.22276662
311,1435995495228,0.38331795,-1.6492698,0.36815256
312,1435995495249,0.27550024,-1.3737695,0.488493
313,1435995495269,0.07605271,-1.0466512,0.31714532
314,1435995495292,-0.14538594,-0.7534359,-0.032575052
315,1435995495309,-0.35094208,-0.69051677,-0.4974435
316,1435995495329,-0.40194935,-0.52924836,-0.64802176
317,1435995495349,-0.40011674,-0.08392758,-0.66695863
318,1435995495369,-0.31062502,0.14025998,-0.75614494
319,1435995495390,-0.32070428,0.089558154,-0.88625926
320,1435995495410,-0.24159722,0.0061750486,-0.47361976
321,1435995495429,-0.4269948,0.56206244,0.7291739
322,1435995495450,-0.3255912,0.58008295,1.7157212
323,1435995495469,-0.5907067,1.0886283,2.4029446
324,1435995495490,0.34697145,1.2697498,2.672336
325,1435995495510,0.28863382,2.0354695,-0.3111296
326,1435995495529,-1.0595458,1.2068307,-1.4644432
327,1435995495549,-0.5073236,1.2398174,-0.89847654
328,1435995495572,-0.2660318,1.4636995,-0.7775252
329,1435995495595,-0.3087924,1.9187942,-0.7121626
330,1435995495609,-0.42455137,2.2217834,-0.77416545
331,1435995495630,-0.41325033,1.751417,-0.93970996
332,1435995495649,-0.2712242,1.1607103,-1.1669518
333,1435995495671,-0.01832597,0.86291355,-1.5438557
334,1435995495690,0.226631,0.77372724,-1.8172178
335,1435995495709,0.5357288,0.7098918,-1.712149
336,1435995495730,0.6023131,0.41148412,-1.0792927
337,1435995495750,0.5635232,-0.1178306,-0.2811972
338,1435995495772,0.4269948,-0.49137467,0.57676303
339,1435995495790,0.022907436,-0.447087,1.3333197
340,1435995495810,-0.38728857,-0.8899643,2.4731941
341,1435995495829,0.17318028,-1.7622799,3.663465
342,1435995495849,1.8402315,-1.3245949,2.2780225
343,1435995495871,0.75075334,-1.1419462,-0.12695372
344,1435995495889,-0.2525928,-2.5939727,-0.37068897
345,1435995495912,0.29749137,-2.2060733,-0.036545675
346,1435995495930,0.5369505,-1.4803655,0.132664
347,1435995495949,0.45448375,-1.5768822,0.30798233
348,1435995495971,0.24434608,-1.598568,0.3629602
349,1435995495992,0.22266038,-1.5044947,0.36906886
350,1435995496012,0.20189096,-1.192648,0.2600294
351,1435995496031,0.11545353,-0.95777035,-0.05792596
352,1435995496051,0.08429939,-0.72258717,-0.47453606
353,1435995496071,0.05803219,-0.4648021,-0.7726383
354,1435995496091,0.17684548,-0.2406145,-0.7671405
355,1435995496111,0.34972036,-0.10439155,-0.6770379
356,1435995496132,0.34910947,0.00037182868,-0.55791914
357,1435995496150,0.21716258,0.2960306,-0.006002415
358,1435995496171,-0.29168814,1.0156299,1.1100484
359,1435995496191,-0.60231316,0.84794736,1.8378943
360,1435995496211,-0.56932646,0.8952894,2.9255397
361,1435995496231,1.4181236,1.4490387,2.8668966
362,1435995496249,0.58001655,2.3894658,-0.5032467
363,1435995496270,-1.1850786,1.7743245,-1.2234569
364,1435995496291,-0.90072083,1.7541659,-0.86182463
365,1435995496310,-0.18509218,1.7321748,-0.86426806
366,1435995496347,-0.12034047,2.0360804,-0.7607264
367,1435995496350,-0.27885997,2.373278,-0.7314049
368,1435995496370,-0.32925636,1.9743829,-0.83097595
369,1435995496390,-0.1441642,1.7101836,-0.98124874
370,1435995496410,0.00335975,1.3635176,-1.252473
371,1435995496429,0.17684548,1.0626665,-1.5053712
372,1435995496450,0.5012149,0.77372724,-1.4772713
373,1435995496470,0.6499606,0.5122769,-1.200244
374,1435995496490,0.59437186,0.19462699,-0.45132318
375,1435995496509,0.6352998,-0.3472105,0.3846459
376,1435995496530,0.6716463,-0.38905478,1.1234875
377,1435995496549,0.20341812,-0.5222234,1.803075
378,1435995496570,-0.8390234,-0.7002906,3.0950549
379,1435995496591,1.1249083,-0.9553268,2.9649405
380,1435995496610,0.90224797,-0.56681657,-0.15658069
381,1435995496630,-1.1206323,-2.1129165,-0.93054694
382,1435995496654,-0.6829474,-2.2378383,-0.52462703
383,1435995496670,0.314901,-1.6309438,-0.26042777
384,1435995496690,0.48930305,-1.3429209,0.109451115
385,1435995496710,0.06444627,-1.5564183,0.26797065
386,1435995496730,-0.1441642,-1.4632612,0.35135376
387,1435995496750,-0.15638152,-1.3029091,0.39441976
388,1435995496770,-0.21930064,-0.99320054,0.15648775
