id,attr_time,attr_x,attr_y,attr_z
1,1436624160026,-0.03573562,-0.01160644,0.015577064
2,1436624160045,-0.038789943,-0.021991149,0.0076358155
3,1436624160067,-0.029321533,-0.030848695,0.00030543262
4,1436624160088,-0.025961773,-0.024129177,-0.003970624
5,1436624160105,-0.03176499,-0.0070249503,-0.00061086525
6,1436624160127,-0.0290161,-0.0036651916,-0.003970624
7,1436624160146,-0.02107485,0.00061086525,-0.008857546
8,1436624160168,-0.018325957,0.0125227375,-0.002443461
9,1436624160192,-0.027794369,0.024740042,-0.008857546
10,1436624160208,-0.026572637,0.037873644,-0.013133603
11,1436624160229,-0.032375857,0.048563786,-0.01282817
12,1436624160247,-0.037873644,0.062002823,-0.016798794
13,1436624160268,-0.044898596,0.060170226,-0.021991149
14,1436624160290,-0.048258353,0.03970624,-0.023823744
15,1436624160308,-0.048258353,0.024740042,-0.025350908
16,1436624160329,-0.052839845,0.02076942,-0.027794369
17,1436624160347,-0.062002823,0.019242255,-0.025350908
18,1436624160368,-0.058948494,0.0106901415,-0.019242255
19,1436624160389,-0.058643065,-0.010079277,-0.017104227
20,1436624160408,-0.055283304,-0.021380283,-0.020463986
21,1436624160429,-0.05100725,-0.03268129,-0.020158553
22,1436624160448,-0.043066,-0.03573562,-0.022907447
23,1436624160468,-0.04062254,-0.031154128,-0.022907447
24,1436624160488,-0.042455133,-0.009773844,-0.024740042
25,1436624160508,-0.043982297,0.007330383,-0.01985312
26,1436624160529,-0.036651913,0.029932396,-0.016187929
27,1436624160549,-0.037873644,0.034208454,-0.013133603
28,1436624160570,-0.03940081,0.032375857,-0.010995574
29,1436624160590,-0.043066,0.035124753,-0.009468411
30,1436624160606,-0.04062254,0.030543262,-0.008552114
31,1436624160636,-0.042455133,0.024129177,-0.0015271631
32,1436624160653,-0.038789943,0.021991149,-0.004276057
33,1436624160666,-0.045814894,0.032070424,-0.0018325958
34,1436624160687,-0.04642576,0.04337143,-0.0027488936
35,1436624160707,-0.047036625,0.044593163,0.005497787
36,1436624160728,-0.045814894,0.036957346,0.002443461
37,1436624160749,-0.045814894,0.022602014,0.0015271631
38,1436624160767,-0.04062254,0.0143553335,-0.0036651916
39,1436624160790,-0.044593163,0.01740966,-0.0061086523
40,1436624160809,-0.044898596,0.02107485,-0.004276057
41,1436624160827,-0.047647487,0.017104227,0.0012217305
42,1436624160849,-0.043676864,0.0076358155,0.004581489
43,1436624160869,-0.041233405,0.003970624,0.009773844
44,1436624160887,-0.04184427,0.006414085,0.009162978
45,1436624160907,-0.049785517,0.006414085,0.0106901415
46,1436624160930,-0.04428773,0.004886922,0.014966198
47,1436624160949,-0.049480084,0.004581489,0.013744468
48,1436624160970,-0.05497787,0.0012217305,0.010995574
49,1436624160991,-0.058337633,-0.00030543262,0.011911872
50,1436624161009,-0.057726767,-0.0027488936,0.005497787
51,1436624161031,-0.057421334,-0.004581489,0.0061086523
52,1436624161047,-0.058948494,-0.010079277,0.00030543262
53,1436624161069,-0.056505036,-0.0030543262,-0.00030543262
54,1436624161090,-0.05100725,0.0027488936,-0.0033597588
55,1436624161110,-0.04886922,0.008552114,-0.004276057
56,1436624161130,-0.046120327,0.013439035,-0.008246681
57,1436624161147,-0.046120327,0.0143553335,-0.009468411
58,1436624161170,-0.04337143,0.017104227,-0.015577064
59,1436624161190,-0.041233405,0.016798794,-0.0125227375
60,1436624161210,-0.041233405,0.02321288,-0.017104227
61,1436624161231,-0.03970624,0.018936822,-0.01160644
62,1436624161251,-0.044593163,0.011301007,-0.008857546
63,1436624161271,-0.04062254,0.0021380284,-0.01282817
64,1436624161287,-0.04642576,0.0033597588,-0.0125227375
65,1436624161372,-0.04642576,0.004581489,-0.01038471
66,1436624161373,-0.047647487,0.007330383,-0.005192355
67,1436624161374,-0.05681047,0.005192355,-0.00030543262
68,1436624161375,-0.053450707,-0.0009162979,-0.00580322
69,1436624161415,-0.052534413,0.0012217305,-0.0012217305
70,1436624161416,-0.04795292,0.00061086525,0.006414085
71,1436624161430,-0.055588737,0.004276057,0.011911872
72,1436624161447,-0.05222898,0.007330383,0.014660766
73,1436624161467,-0.046120327,-0.009468411,0.0125227375
74,1436624161487,-0.05009095,-0.019547688,0.01282817
75,1436624161513,-0.055588737,-0.018325957,0.013744468
76,1436624161539,-0.055588737,-0.018325957,0.008246681
77,1436624161548,-0.045814894,-0.021380283,0.008857546
78,1436624161569,-0.041233405,-0.01282817,0.0061086523
79,1436624161587,-0.03970624,-0.01282817,0.008857546
80,1436624161611,-0.04642576,0.01282817,0.005497787
81,1436624161631,-0.04062254,0.017715093,0.005497787
82,1436624161651,-0.040927973,0.0106901415,0.008552114
83,1436624161669,-0.03940081,0.004886922,0.005192355
84,1436624161691,-0.040317107,0.003970624,0.010079277
85,1436624161711,-0.040927973,0.0,0.009162978
86,1436624161731,-0.042455133,-0.004276057,0.008552114
87,1436624161751,-0.046120327,-0.0030543262,0.011911872
88,1436624161771,-0.049785517,-0.0036651916,0.010079277
89,1436624161791,-0.04886922,-0.003970624,0.009773844
90,1436624161811,-0.042760566,0.006414085,0.007330383
91,1436624161830,-0.04550946,0.011301007,0.009468411
92,1436624161850,-0.047647487,0.0076358155,0.0067195175
93,1436624161868,-0.042760566,-0.0012217305,0.0070249503
94,1436624161890,-0.0421497,-0.01038471,0.0125227375
95,1436624161908,-0.040927973,-0.009468411,0.009773844
96,1436624161928,-0.0421497,-0.01282817,0.009162978
97,1436624161960,-0.0421497,-0.009162978,0.0070249503
98,1436624161972,-0.04428773,-0.0106901415,0.0125227375
99,1436624161989,-0.04734206,-0.018325957,0.011301007
100,1436624162010,-0.049480084,-0.029626964,0.006414085
101,1436624162030,-0.047036625,-0.030848695,0.005497787
102,1436624162050,-0.04734206,-0.03390302,0.014049901
103,1436624162069,-0.050701816,-0.028710667,0.014660766
104,1436624162135,-0.048258353,-0.016187929,0.010079277
105,1436624162136,-0.047647487,0.0,0.019242255
106,1436624162137,-0.050701816,0.0033597588,0.029932396
107,1436624162148,-0.055588737,-0.003970624,0.021380283
108,1436624162171,-0.055588737,-0.02107485,0.013744468
109,1436624162190,-0.061391957,-0.033292156,0.0125227375
110,1436624162220,-0.06169739,-0.024129177,0.010995574
111,1436624162228,-0.06658431,-0.02076942,0.009468411
112,1436624162249,-0.06291912,-0.021685716,0.00580322
113,1436624162274,-0.053145275,-0.03145956,0.007941248
114,1436624162289,-0.050396383,-0.029321533,0.012217305
115,1436624162311,-0.04795292,-0.012217305,0.014660766
116,1436624162328,-0.048563786,0.0027488936,0.01985312
117,1436624162351,-0.0421497,0.014049901,0.022907447
118,1436624162371,-0.040011674,0.015882496,0.024129177
119,1436624162391,-0.03756821,0.0030543262,0.02443461
120,1436624162411,-0.043676864,-0.00061086525,0.020463986
121,1436624162431,-0.03940081,-0.0070249503,0.02076942
122,1436624162451,-0.03970624,-0.003970624,0.015577064
123,1436624162473,-0.04337143,0.0012217305,0.009773844
124,1436624162492,-0.046120327,0.006414085,0.00580322
125,1436624162512,-0.043982297,0.005192355,0.0030543262
126,1436624162531,-0.04520403,0.010079277,-0.0012217305
127,1436624162548,-0.04734206,0.009162978,-0.008857546
128,1436624162570,-0.04520403,0.0018325958,-0.020158553
129,1436624162588,-0.05100725,-0.007941248,-0.020158553
130,1436624162614,-0.04428773,-0.019547688,-0.035430185
131,1436624162634,-0.042455133,-0.029626964,-0.038179077
132,1436624162654,-0.047036625,-0.008246681,-0.037873644
133,1436624162672,-0.048563786,0.028710667,-0.027488936
134,1436624162688,-0.03940081,0.04795292,-0.021380283
135,1436624162709,-0.037873644,0.042760566,-0.0033597588
136,1436624162730,-0.036651913,0.014966198,0.020158553
137,1436624162751,-0.03145956,-0.0070249503,0.03940081
138,1436624162769,-0.03176499,-0.010079277,0.05467244
139,1436624162837,-0.035430185,-0.0143553335,0.044593163
140,1436624162838,-0.036957346,-0.029626964,0.03176499
141,1436624162839,-0.045814894,-0.040317107,0.032986723
142,1436624162848,-0.048258353,-0.030848695,0.0290161
143,1436624162873,-0.05467244,-0.015577064,0.015882496
144,1436624162891,-0.053145275,-0.009773844,-0.007330383
145,1436624162956,-0.057421334,-0.0067195175,-0.028405234
146,1436624162957,-0.06078109,0.0061086523,-0.039095376
147,1436624162960,-0.058643065,0.017104227,-0.035124753
148,1436624162979,-0.05467244,0.015271631,-0.0290161
149,1436624162989,-0.04153884,0.009468411,-0.024129177
150,1436624163011,-0.042455133,0.00580322,-0.0143553335
151,1436624163029,-0.03940081,0.004581489,-0.008246681
152,1436624163052,-0.03573562,0.0027488936,-0.0033597588
153,1436624163072,-0.042760566,-0.003970624,-0.0018325958
154,1436624163092,-0.047647487,-0.0036651916,-0.008857546
155,1436624163112,-0.05681047,0.008552114,-0.007941248
156,1436624163131,-0.058337633,0.021685716,-0.009162978
157,1436624163152,-0.055283304,0.03390302,-0.017715093
158,1436624163172,-0.060170226,0.048258353,-0.015271631
159,1436624163193,-0.05681047,0.054367006,-0.008857546
160,1436624163208,-0.053450707,0.03573562,0.0030543262
161,1436624163232,-0.04917465,0.02321288,0.007330383
162,1436624163251,-0.04886922,0.016798794,0.014660766
163,1436624163270,-0.04642576,0.025350908,0.016493361
164,1436624163290,-0.04428773,0.02687807,0.02107485
165,1436624163312,-0.050396383,0.030543262,0.01863139
166,1436624163332,-0.05009095,0.028405234,0.015882496
167,1436624163352,-0.050701816,0.024129177,0.013744468
168,1436624163372,-0.05375614,0.02321288,0.01160644
169,1436624163391,-0.054367006,0.02076942,0.009162978
170,1436624163411,-0.05467244,0.018020526,0.00580322
171,1436624163431,-0.05467244,0.02076942,0.010995574
172,1436624163450,-0.06169739,0.013744468,0.006414085
173,1436624163475,-0.06352998,-0.0009162979,0.014660766
174,1436624163541,-0.058948494,-0.013133603,0.017104227
175,1436624163542,-0.06169739,-0.028099801,0.016187929
176,1436624163543,-0.061086524,-0.037873644,0.006414085
177,1436624163560,-0.058948494,-0.03573562,0.012217305
178,1436624163572,-0.06047566,-0.019242255,0.018020526
179,1436624163592,-0.06261369,-0.017715093,0.01985312
180,1436624163640,-0.05467244,-0.027183503,0.009468411
181,1436624163641,-0.05009095,-0.040927973,0.009162978
182,1436624163662,-0.053450707,-0.032986723,0.013133603
183,1436624163669,-0.055588737,-0.022602014,0.014049901
184,1436624163692,-0.056505036,-0.022602014,0.01740966
185,1436624163710,-0.0580322,-0.018936822,0.027488936
186,1436624163729,-0.055588737,-0.010995574,0.03481932
187,1436624163750,-0.0571159,-0.0033597588,0.03756821
188,1436624163771,-0.0580322,0.0012217305,0.032986723
189,1436624163793,-0.06078109,-0.005497787,0.034513887
190,1436624163813,-0.064751714,-0.019242255,0.028710667
191,1436624163833,-0.06169739,-0.03481932,0.01985312
192,1436624163853,-0.06627888,-0.04642576,0.01985312
193,1436624163873,-0.06383542,-0.043982297,0.016798794
194,1436624163893,-0.059253927,-0.03268129,0.015882496
195,1436624163919,-0.057726767,-0.02076942,0.014660766
196,1436624163933,-0.054367006,-0.007330383,0.008246681
197,1436624163963,-0.049785517,-0.0076358155,0.013744468
198,1436624163975,-0.043066,-0.007941248,0.013439035
199,1436624163990,-0.0421497,-0.013744468,0.013439035
200,1436624164013,-0.04184427,-0.03268129,0.0076358155
201,1436624164030,-0.040011674,-0.04062254,0.011301007
202,1436624164050,-0.041233405,-0.049785517,0.01038471
203,1436624164070,-0.041233405,-0.04886922,0.005497787
204,1436624164096,-0.037873644,-0.042455133,0.005192355
205,1436624164116,-0.03970624,-0.04062254,0.0015271631
206,1436624164136,-0.03634648,-0.026267206,-0.00030543262
207,1436624164152,-0.03940081,-0.023823744,-0.003970624
208,1436624164171,-0.03940081,-0.021991149,-0.004276057
209,1436624164242,-0.04153884,-0.014049901,-0.006414085
210,1436624164243,-0.03848451,-0.01160644,-0.008552114
211,1436624164244,-0.041233405,-0.012217305,-0.0067195175
212,1436624164252,-0.036651913,-0.015882496,-0.003970624
213,1436624164280,-0.03359759,-0.014660766,-0.013744468
214,1436624164300,-0.032375857,-0.002443461,-0.010995574
215,1436624164324,-0.035430185,-0.0015271631,-0.004886922
216,1436624164331,-0.03481932,-0.008857546,-0.013744468
217,1436624164353,-0.04062254,-0.021380283,-0.019547688
218,1436624164371,-0.033292156,-0.038179077,-0.024740042
219,1436624164391,-0.046120327,-0.027794369,-0.02687807
220,1436624164415,-0.043676864,-0.015271631,-0.03268129
221,1436624164434,-0.04428773,-0.01740966,-0.03359759
222,1436624164453,-0.039095376,-0.01985312,-0.027183503
223,1436624164476,-0.040317107,-0.014049901,-0.026267206
224,1436624164492,-0.038789943,-0.015577064,-0.01740966
225,1436624164514,-0.04062254,-0.018325957,-0.02076942
226,1436624164534,-0.03940081,-0.03481932,-0.018325957
227,1436624164553,-0.035430185,-0.047647487,-0.01985312
228,1436624164573,-0.03970624,-0.05589417,-0.0143553335
229,1436624164593,-0.048258353,-0.048563786,-0.010079277
230,1436624164612,-0.050396383,-0.03145956,-0.004276057
231,1436624164634,-0.047036625,-0.0125227375,0.012217305
232,1436624164653,-0.04642576,-0.018325957,0.014049901
233,1436624164671,-0.04886922,-0.040317107,0.029321533
234,1436624164691,-0.048563786,-0.05589417,0.033292156
235,1436624164711,-0.043066,-0.043676864,0.04795292
236,1436624164736,-0.03573562,-0.016798794,0.05375614
237,1436624164756,-0.030848695,-0.010995574,0.050701816
238,1436624164780,-0.026572637,-0.03268129,0.049785517
239,1436624164790,-0.020463986,-0.056505036,0.047036625
240,1436624164812,-0.025045475,-0.07391469,0.03634648
241,1436624164832,-0.02687807,-0.05467244,0.02076942
242,1436624164851,-0.031154128,-0.014049901,0.00061086525
243,1436624164871,-0.03756821,0.030543262,-0.010995574
244,1436624165000,-0.044593163,0.053145275,-0.021380283
245,1436624165001,-0.053450707,0.086132,-0.023518313
246,1436624165019,-0.05131268,0.101098195,-0.01740966
247,1436624165020,-0.054061573,0.08307768,-0.0036651916
248,1436624165021,-0.05497787,0.054061573,0.009773844
249,1436624165022,-0.053450707,0.009468411,0.019242255
250,1436624165023,-0.048563786,-0.01985312,0.029932396
251,1436624165040,-0.047647487,-0.033292156,0.037873644
252,1436624165051,-0.055283304,-0.028405234,0.034208454
253,1436624165071,-0.056199603,-0.027794369,0.02565634
254,1436624165101,-0.05131268,-0.02107485,0.019242255
255,1436624165111,-0.05589417,-0.007941248,0.010995574
256,1436624165132,-0.0580322,0.009468411,0.010079277
257,1436624165153,-0.05375614,0.0076358155,0.010079277
258,1436624165176,-0.05222898,-0.0106901415,0.010995574
259,1436624165194,-0.044898596,-0.021991149,0.009468411
260,1436624165214,-0.048258353,-0.02687807,0.01038471
261,1436624165234,-0.049480084,-0.030848695,0.007941248
262,1436624165254,-0.048563786,-0.023823744,0.010995574
263,1436624165274,-0.05009095,-0.01863139,0.010995574
264,1436624165294,-0.05100725,-0.008552114,0.006414085
265,1436624165314,-0.05497787,-0.005497787,0.0009162979
266,1436624165334,-0.05589417,-0.007941248,0.0021380284
267,1436624165354,-0.05467244,-0.0067195175,-0.004581489
268,1436624165374,-0.046120327,-0.00030543262,-0.002443461
269,1436624165392,-0.048258353,0.00061086525,-0.0076358155
270,1436624165414,-0.04428773,-0.004886922,-0.00061086525
271,1436624165434,-0.03848451,-0.0015271631,-0.0009162979
272,1436624165455,-0.040317107,0.013133603,-0.004886922
273,1436624165474,-0.031154128,0.03176499,-0.002443461
274,1436624165493,-0.040011674,0.049480084,-0.004581489
275,1436624165514,-0.042760566,0.04428773,-0.0009162979
276,1436624165535,-0.0421497,0.03604105,-0.0021380284
277,1436624165555,-0.04184427,0.029321533,0.0036651916
278,1436624165574,-0.04886922,0.014660766,0.002443461
279,1436624165594,-0.04642576,0.009468411,0.004581489
280,1436624165612,-0.044898596,0.008552114,-0.0033597588
281,1436624165634,-0.04550946,0.020158553,-0.010995574
282,1436624165653,-0.048563786,0.01985312,-0.010079277
283,1436624165672,-0.05131268,0.019242255,-0.00580322
284,1436624165742,-0.046120327,0.0021380284,-0.006414085
285,1436624165743,-0.04153884,-0.0036651916,-0.008246681
286,1436624165744,-0.04337143,0.005192355,-0.010079277
287,1436624165752,-0.04642576,0.014660766,0.0036651916
288,1436624165771,-0.046731193,0.01160644,0.008246681
289,1436624165791,-0.04550946,0.004886922,0.005497787
290,1436624165811,-0.049480084,-0.0061086523,-0.002443461
291,1436624165833,-0.048563786,-0.008246681,-0.007941248
292,1436624165851,-0.055283304,0.002443461,-0.0030543262
293,1436624165872,-0.051618114,-0.01160644,-0.0015271631
294,1436624165902,-0.043676864,-0.013744468,-0.0033597588
295,1436624165915,-0.03940081,-0.008552114,0.0018325958
296,1436624165936,-0.03940081,0.008552114,0.0
297,1436624165957,-0.04062254,0.023823744,-0.005497787
298,1436624165974,-0.03756821,0.030543262,-0.00030543262
299,1436624165992,-0.036957346,0.0290161,0.004276057
300,1436624166014,-0.03481932,0.020158553,0.013744468
301,1436624166035,-0.04062254,0.009162978,0.018020526
302,1436624166055,-0.042455133,0.0015271631,0.022296581
303,1436624166075,-0.043676864,-0.008552114,0.020463986
304,1436624166095,-0.046120327,-0.008857546,0.021685716
305,1436624166115,-0.051923547,-0.005497787,0.01985312
306,1436624166132,-0.05131268,-0.00061086525,0.015882496
307,1436624166155,-0.05589417,0.01038471,0.013744468
308,1436624166175,-0.049785517,0.01282817,0.011911872
309,1436624166195,-0.053145275,0.00061086525,0.0143553335
310,1436624166215,-0.047647487,-0.011911872,0.009773844
311,1436624166234,-0.04520403,-0.02076942,0.0061086523
312,1436624166254,-0.03970624,-0.016798794,0.01038471
313,1436624166275,-0.03481932,-0.0036651916,0.009468411
314,1436624166295,-0.032375857,0.013744468,0.018020526
315,1436624166315,-0.036651913,0.022602014,0.02443461
316,1436624166334,-0.03848451,0.0125227375,0.030543262
317,1436624166354,-0.040927973,-0.0009162979,0.040011674
318,1436624166374,-0.042455133,-0.02443461,0.051923547
319,1436624166393,-0.04428773,-0.036957346,0.0580322
320,1436624166415,-0.043982297,-0.056505036,0.061086524
321,1436624166460,-0.04520403,-0.076052725,0.060170226
322,1436624166461,-0.045814894,-0.093462385,0.04520403
323,1436624166475,-0.04795292,-0.100792766,0.043676864
324,1436624166492,-0.04734206,-0.09560041,0.03604105
325,1436624166512,-0.050396383,-0.084910266,0.025961773
326,1436624166532,-0.05009095,-0.08827003,0.02107485
327,1436624166552,-0.05100725,-0.10140363,0.00580322
328,1436624166572,-0.051923547,-0.103847094,-0.005497787
329,1436624166592,-0.054061573,-0.10903945,-0.011301007
330,1436624166615,-0.054061573,-0.12156218,-0.01863139
331,1436624166635,-0.046120327,-0.13836098,-0.022296581
332,1436624166653,-0.046120327,-0.14446963,-0.023518313
333,1436624166675,-0.043982297,-0.12767084,-0.022296581
334,1436624166695,-0.03848451,-0.10445796,-0.025350908
335,1436624166715,-0.037873644,-0.0842994,-0.022907447
336,1436624166735,-0.03726278,-0.06566802,-0.014049901
337,1436624166755,-0.042455133,-0.059253927,-0.00580322
338,1436624166776,-0.0421497,-0.06169739,0.002443461
339,1436624166795,-0.043066,-0.06872234,0.007330383
340,1436624166812,-0.04337143,-0.06780604,0.0106901415
341,1436624166832,-0.044593163,-0.07238753,0.007941248
342,1436624166852,-0.049785517,-0.08674286,0.004886922
343,1436624166873,-0.05131268,-0.099571034,0.002443461
344,1436624166895,-0.057421334,-0.101098195,-0.006414085
345,1436624166915,-0.06078109,-0.09743301,-0.018020526
346,1436624166934,-0.06383542,-0.08002335,-0.040317107
347,1436624166956,-0.06414085,-0.062002823,-0.04337143
348,1436624166974,-0.061391957,-0.038789943,-0.043982297
349,1436624166996,-0.058643065,-0.011911872,-0.047036625
350,1436624167015,-0.059864793,0.029626964,-0.040927973
351,1436624167035,-0.0571159,0.064446285,-0.031154128
352,1436624167056,-0.05009095,0.09254608,-0.02107485
353,1436624167076,-0.042760566,0.101098195,-0.004581489
354,1436624167093,-0.03481932,0.09254608,0.013439035
355,1436624167114,-0.029932396,0.07360926,0.028099801
356,1436624167133,-0.022907447,0.04550946,0.04795292
357,1436624167153,-0.022296581,0.009162978,0.050396383
358,1436624167173,-0.021380283,-0.0076358155,0.048563786
359,1436624167208,-0.016493361,-0.0009162979,0.042760566
360,1436624167213,-0.018936822,0.03390302,0.037873644
361,1436624167233,-0.026267206,0.083383106,0.025045475
362,1436624167253,-0.03390302,0.11362094,0.010995574
