id,attr_time,attr_x,attr_y,attr_z
1,1436624160017,0.030529987,0.06983784,0.021738835
2,1436624160037,0.05068854,0.07869539,0.015019317
3,1436624160057,0.04702335,0.099464804,0.021127969
4,1436624160078,0.039998397,0.100686535,0.024487728
5,1436624160097,0.027475659,0.10129739,0.018684508
6,1436624160118,0.025643062,0.086331196,0.01990624
7,1436624160137,0.021977872,0.08266601,0.011964991
8,1436624160157,0.013120324,0.092134416,0.011964991
9,1436624160178,0.003957346,0.09305072,0.011354126
10,1436624160200,0.0064008078,0.0854149,0.012270424
11,1436624160221,0.011593162,0.08144428,0.018989941
12,1436624160240,0.0128148915,0.08022255,0.015019317
13,1436624160260,0.02075614,0.0741139,0.016851913
14,1436624160279,0.031751715,0.09305072,0.014713884
15,1436624160300,0.030224554,0.0985485,0.012270424
16,1436624160321,0.021977872,0.08663663,0.01410302
17,1436624160341,0.020145275,0.066172644,0.019600807
18,1436624160358,0.023199603,0.057925966,0.015019317
19,1436624160379,0.025948495,0.07472476,0.011659558
20,1436624160402,0.014036623,0.08572033,0.014713884
21,1436624160423,0.002124751,0.07533562,0.018073643
22,1436624160442,0.0045682117,0.057925966,0.021433402
23,1436624160460,0.0048736436,0.041738037,0.021738835
24,1436624160477,0.010982296,0.03898914,0.026014892
25,1436624160500,0.018007249,0.03746198,0.02815292
26,1436624160517,0.021672439,0.037767414,0.031512678
27,1436624160548,0.034195177,0.04570866,0.028458353
28,1436624160565,0.029919121,0.05151188,0.03303984
29,1436624160584,0.027475659,0.042654335,0.02357143
30,1436624160601,0.021977872,0.059147697,0.0223497
31,1436624160712,0.018923543,0.06281289,0.024793161
32,1436624160713,0.02289417,0.06281289,0.025404027
33,1436624160714,0.034195177,0.05364991,0.020517105
34,1436624160715,0.036638636,0.05975856,0.023265999
35,1436624160759,0.0372495,0.054260775,0.01990624
36,1436624160760,0.038471233,0.059147697,0.020517105
37,1436624160761,0.02869739,0.071365,0.01990624
38,1436624160762,0.023810469,0.07258673,0.01654648
39,1436624160786,0.020145275,0.06953241,0.01532475
40,1436624160844,0.021061573,0.059147697,0.020211672
41,1436624160845,0.025337629,0.05395534,0.0223497
42,1436624160846,0.025337629,0.0573151,0.026014892
43,1436624160867,0.03541691,0.051206447,0.025098594
44,1436624160877,0.04274729,0.053039044,0.024793161
45,1436624160903,0.04274729,0.045403227,0.024487728
46,1436624160917,0.032057147,0.034713086,0.021127969
47,1436624160937,0.028086524,0.016997993,0.017157346
48,1436624160957,0.02075614,0.013638236,0.020211672
49,1436624160979,0.019839842,0.010583907,0.021127969
50,1436624160997,0.018312681,0.013638236,0.011048693
51,1436624161017,0.010676864,0.021579482,0.012270424
52,1436624161041,0.010982296,0.03288049,0.021433402
53,1436624161060,0.021977872,0.03532395,0.021738835
54,1436624161081,0.034806043,0.0432652,0.018989941
55,1436624161099,0.029613689,0.07105957,0.014713884
56,1436624161118,0.01373119,0.07686279,0.01654648
57,1436624161139,0.0018193182,0.057925966,0.018073643
58,1436624161158,0.0033464814,0.021579482,0.011354126
59,1436624161180,0.013425757,0.011805639,0.013492154
60,1436624161200,0.015869219,0.016997993,0.012270424
61,1436624161220,0.016785517,0.029215299,0.016241048
62,1436624161240,0.022283304,0.033491354,0.018379075
63,1436624161260,0.024115901,0.025244676,0.01532475
64,1436624161279,0.025337629,0.017914291,0.0067726364
65,1436624161297,0.01709095,0.0023372248,0.011048693
66,1436624161320,0.019534409,0.0060024187,0.011659558
67,1436624161340,0.010371431,0.012721941,0.010437828
68,1436624161359,0.011593162,0.017608859,0.0086052315
69,1436624161380,0.015869219,0.005391553,0.007383501
70,1436624161398,0.01709095,-0.008352913,0.009826963
71,1436624161460,0.020450708,-0.0016333982,0.011659558
72,1436624161461,0.02655936,0.0038643926,0.007688934
73,1436624161462,0.018923543,0.0044752583,0.009826963
74,1436624161480,0.010676864,0.0017263666,0.015630182
75,1436624161502,0.006095375,-0.00010623038,0.011964991
76,1436624161518,0.0030410485,0.0011155009,0.0046346076
77,1436624161538,-0.0018458739,0.0026426613,0.0055509056
78,1436624161560,0.0036519142,0.003253527,0.0067726364
79,1436624161579,0.0048736436,0.0008100644,0.011659558
80,1436624161599,0.008538836,-0.0019388273,0.01410302
81,1436624161618,0.012204028,-0.0010225326,0.012575856
82,1436624161644,0.0088442685,-0.0056040213,0.0144084515
83,1436624161660,0.0005975878,-0.0031605586,0.019600807
84,1436624161681,-0.004594767,-0.004687719,0.018073643
85,1436624161701,-0.0015404411,-0.013545267,0.010132395
86,1436624161719,-0.0009295754,-0.0056040213,0.01074326
87,1436624161741,0.006095375,0.010583907,0.021127969
88,1436624161761,0.018007249,0.021579482,0.022960566
89,1436624161781,0.017701816,0.021274053,0.013492154
90,1436624161801,0.012204028,0.030131597,0.011964991
91,1436624161820,-0.0006241426,0.03288049,0.013186721
92,1436624161841,-0.0015404411,0.014249101,0.0144084515
93,1436624161859,0.006095375,-0.011407241,0.018989941
94,1436624161881,0.021672439,-0.0037714243,0.020517105
95,1436624161901,0.027475659,0.019441456,0.018379075
96,1436624161922,0.026253927,0.025244676,0.021127969
97,1436624161942,0.015563785,0.02677184,0.019600807
98,1436624161961,0.011287729,0.02677184,0.02357143
99,1436624161982,0.0146474885,0.034713086,0.018379075
100,1436624162001,0.020145275,0.03257506,0.018073643
101,1436624162022,0.02289417,0.033491354,0.025098594
102,1436624162042,0.014342056,0.040516306,0.026320323
103,1436624162062,0.007622537,0.040210873,0.026320323
104,1436624162082,0.0036519142,0.034713086,0.022655133
105,1436624162100,0.0030410485,0.032269627,0.018379075
106,1436624162121,0.01373119,0.025855541,0.012270424
107,1436624162192,0.017701816,0.026466407,0.01654648
108,1436624162193,0.015258354,0.04204347,0.020517105
109,1436624162194,0.011593162,0.04479236,0.022655133
110,1436624162201,0.0070116734,0.057009667,0.021127969
111,1436624162231,0.011898595,0.061896592,0.019600807
112,1436624162242,0.013425757,0.08022255,0.017157346
113,1436624162259,0.014036623,0.08877466,0.027236622
114,1436624162280,0.015258354,0.096410476,0.027236622
115,1436624162299,0.011898595,0.089385524,0.020822536
116,1436624162323,0.0064008078,0.09182899,0.018684508
117,1436624162339,0.010982296,0.10190827,0.019600807
118,1436624162360,0.010371431,0.09152356,0.021433402
119,1436624162379,0.008538836,0.09305072,0.01990624
120,1436624162402,0.0045682117,0.09182899,0.02570946
121,1436624162423,0.009455134,0.09396701,0.022960566
122,1436624162439,0.007622537,0.08419317,0.012575856
123,1436624162462,0.0088442685,0.070448704,0.007994367
124,1436624162482,0.021367006,0.05364991,0.010437828
125,1436624162502,0.030224554,0.045403227,0.0144084515
126,1436624162522,0.032668013,0.07930625,0.018989941
127,1436624162541,0.024726767,0.083276875,0.018989941
128,1436624162563,0.0033464814,0.061285727,0.018379075
129,1436624162579,0.00029215496,0.03410222,0.023265999
130,1436624162602,0.01373119,0.042348903,0.020211672
131,1436624162623,0.035111476,0.065867215,0.018684508
132,1436624162676,0.04274729,0.100686535,0.019600807
133,1436624162677,0.032973446,0.11046038,0.0223497
134,1436624162680,0.021977872,0.09915937,0.026014892
135,1436624162702,0.015258354,0.07533562,0.017157346
136,1436624162723,0.018007249,0.06861611,0.0144084515
137,1436624162743,0.014952921,0.06311832,0.018379075
138,1436624162763,0.018312681,0.06861611,0.013492154
139,1436624162783,0.029613689,0.07350303,0.018073643
140,1436624162805,0.03694407,0.07564106,0.020517105
141,1436624162820,0.044579886,0.07380846,0.025404027
142,1436624162946,0.049161375,0.06403462,0.024182295
143,1436624162947,0.044274453,0.06220202,0.02815292
144,1436624162948,0.033889744,0.0563988,0.024182295
145,1436624162949,0.030529987,0.06281289,0.026625756
146,1436624162950,0.031751715,0.061285727,0.026320323
147,1436624162951,0.03327888,0.05395534,0.026320323
148,1436624162972,0.037860367,0.065867215,0.026931189
149,1436624162979,0.03450061,0.065867215,0.025098594
150,1436624163002,0.026864793,0.061285727,0.028458353
151,1436624163021,0.024726767,0.06067486,0.031512678
152,1436624163039,0.02869739,0.04937385,0.03426157
153,1436624163060,0.027781092,0.033796787,0.031207247
154,1436624163079,0.027475659,0.029520731,0.031207247
155,1436624163103,0.021977872,0.03257506,0.030596381
156,1436624163125,0.014342056,0.032269627,0.03762133
157,1436624163141,0.015563785,0.027077273,0.037315898
158,1436624163163,0.01709095,0.019746888,0.04128652
159,1436624163182,0.01373119,0.020357754,0.037315898
160,1436624163203,0.019534409,0.016387127,0.037010465
161,1436624163223,0.02075614,0.00722415,0.037315898
162,1436624163243,0.03236258,0.018525157,0.03273441
163,1436624163263,0.031751715,0.03868371,0.032428976
164,1436624163283,0.026253927,0.034713086,0.034872435
165,1436624163303,0.010065998,0.009667613,0.034567002
166,1436624163323,0.01373119,0.0008100644,0.031512678
167,1436624163343,0.02075614,-0.0059094504,0.024182295
168,1436624163361,0.025643062,-0.0049931556,0.019295374
169,1436624163381,0.016785517,-0.0056040213,0.013492154
170,1436624163403,0.011898595,-0.0056040213,0.018379075
171,1436624163421,0.0054845093,0.007835016,0.02570946
172,1436624163442,0.018312681,0.010583907,0.028763786
173,1436624163463,0.020145275,0.017914291,0.02357143
174,1436624163485,0.02289417,0.01150021,0.017462777
175,1436624163506,0.01861811,0.010278478,0.01654648
176,1436624163526,0.015563785,0.006918721,0.01532475
177,1436624163543,0.0064008078,0.0005046353,0.009826963
178,1436624163561,0.0054845093,0.003253527,0.0049400404
179,1436624163580,0.00792797,0.0060024187,0.005856338
180,1436624163603,0.009455134,0.006918721,0.0086052315
181,1436624163622,-0.0018458739,0.0056969896,0.0086052315
182,1436624163643,-0.0015404411,0.009362176,0.0086052315
183,1436624163698,-0.0027621714,0.010889344,0.012270424
184,1436624163710,0.0036519142,0.01455453,0.00371831
185,1436624163711,0.006095375,0.013638236,0.00371831
186,1436624163721,0.003957346,0.006918721,0.00371831
187,1436624163741,-0.0003187107,0.009056747,0.006161771
188,1436624163761,0.0036519142,0.017608859,0.0015802815
189,1436624163781,-0.0049002,0.030742463,0.0040237424
190,1436624163800,-0.011008852,0.03501852,-0.0033066405
191,1436624163822,-0.0103979865,0.028909866,-0.003917506
192,1436624163842,-0.009176256,0.01730343,-0.00025231414
193,1436624163861,-0.005511065,0.007835016,0.010132395
194,1436624163883,-0.006427363,0.019441456,0.010437828
195,1436624163900,0.00029215496,0.025550108,0.00066398364
196,1436624163923,-0.007954526,0.029826164,0.0024965794
197,1436624163940,-0.018644668,0.045097794,0.007688934
198,1436624163963,-0.016506638,0.05151188,0.0040237424
199,1436624163985,-0.01772837,0.06525635,0.005856338
200,1436624164004,-0.025058754,0.07838995,0.011354126
201,1436624164024,-0.036054328,0.058842264,0.016241048
202,1436624164044,-0.041552115,0.035934817,0.011048693
203,1436624164064,-0.016812071,0.03165876,0.016851913
204,1436624164094,-0.0018458739,0.039600007,0.011659558
205,1436624164107,0.0009030197,0.047235824,0.010132395
206,1436624164121,-0.003678469,0.039600007,0.012575856
207,1436624164144,-0.0103979865,0.03501852,0.016241048
208,1436624164162,-0.0076490934,0.025855541,0.0067726364
209,1436624164182,-0.011619718,0.0047806874,-0.0017794773
210,1436624164201,-0.003678469,0.005086124,-0.0026957754
211,1436624164224,-0.0003187107,0.026466407,5.311845e-05
212,1436624164244,-0.0103979865,0.036851116,0.008910664
213,1436624164264,-0.012536015,0.027077273,0.017462777
214,1436624164284,-0.012841448,0.029215299,0.012881289
215,1436624164305,-0.00612193,0.03501852,0.012575856
216,1436624164322,-0.0058164974,0.028604433,0.008910664
217,1436624164343,-0.0003187107,0.019136023,-0.0030012077
218,1436624164361,-0.0003187107,0.006918721,0.0024965794
219,1436624164381,-0.0042893346,-0.008963779,0.0046346076
220,1436624164436,0.0018193182,-0.018432193,0.0067726364
221,1436624164437,0.003957346,-0.0049931556,0.009826963
222,1436624164444,0.0018193182,0.021274053,0.008910664
223,1436624164461,-0.0024567386,0.042654335,0.00371831
224,1436624164483,0.002124751,0.057620533,0.006161771
225,1436624164506,0.005789942,0.04784669,0.007994367
226,1436624164522,0.012509461,0.046014093,0.011659558
227,1436624164543,0.021367006,0.0432652,0.009826963
228,1436624164563,0.01861811,0.05395534,0.011048693
229,1436624164582,0.024421334,0.061896592,0.015019317
230,1436624164603,0.024726767,0.055787936,0.018684508
231,1436624164622,0.019534409,0.051206447,0.021433402
232,1436624164644,0.023505036,0.061591156,0.028458353
233,1436624164664,0.028086524,0.06678351,0.03273441
234,1436624164684,0.029002823,0.07961168,0.023876863
235,1436624164704,0.027475659,0.09121812,0.022044268
236,1436624164724,0.021367006,0.102213696,0.029680083
237,1436624164744,0.014036623,0.084804036,0.02570946
238,1436624164764,0.009760567,0.067394376,0.029069217
239,1436624164784,0.008233403,0.059147697,0.022655133
240,1436624164806,0.015563785,0.06098029,0.01990624
241,1436624164825,0.0250322,0.055787936,0.016851913
242,1436624164846,0.01709095,0.06525635,0.0223497
243,1436624164862,0.009760567,0.06769981,0.02937465
244,1436624164884,0.012509461,0.068921536,0.026931189
245,1436624164901,0.01861811,0.06250745,0.021738835
246,1436624164921,0.023199603,0.056093372,0.019600807
247,1436624164941,0.030224554,0.053344477,0.019295374
248,1436624164967,0.03083542,0.064645484,0.021738835
249,1436624164987,0.026253927,0.076251924,0.02570946
250,1436624165009,0.022588737,0.07380846,0.022655133
251,1436624165025,0.022588737,0.068921536,0.01654648
252,1436624165041,0.024726767,0.05975856,0.016241048
253,1436624165062,0.024421334,0.055787936,0.017157346
254,1436624165081,0.026864793,0.048152123,0.016241048
255,1436624165102,0.023810469,0.050901014,0.018684508
256,1436624165121,0.025948495,0.06556178,0.01532475
257,1436624165179,0.025337629,0.065867215,0.012270424
258,1436624165180,0.027781092,0.055482507,0.011659558
259,1436624165184,0.0250322,0.045403227,0.012575856
260,1436624165201,0.016174652,0.04906842,0.026014892
261,1436624165223,0.01861811,0.055787936,0.024793161
262,1436624165244,0.02869739,0.06250745,0.019600807
263,1436624165262,0.021672439,0.054566205,0.012270424
264,1436624165282,0.013425757,0.050290152,0.013797587
265,1436624165303,0.01861811,0.05273361,0.020211672
266,1436624165325,0.02075614,0.051206447,0.026931189
267,1436624165342,0.019839842,0.053039044,0.019600807
268,1436624165365,0.019839842,0.055482507,0.01776821
269,1436624165384,0.014036623,0.046319526,0.015630182
270,1436624165403,0.013120324,0.03257506,0.018379075
271,1436624165426,0.015258354,0.036851116,0.020517105
272,1436624165445,0.015869219,0.061591156,0.018073643
273,1436624165465,0.00792797,0.061591156,0.01990624
274,1436624165485,0.0012084525,0.047235824,0.017462777
275,1436624165505,0.015258354,0.040210873,0.01532475
276,1436624165525,0.020450708,0.041432604,0.0144084515
277,1436624165545,0.016174652,0.04112717,0.01776821
278,1436624165565,0.011287729,0.03288049,0.013492154
279,1436624165586,0.012509461,0.03135333,0.016241048
280,1436624165602,0.026253927,0.02677184,0.011354126
281,1436624165625,0.036027774,0.027382702,0.012575856
282,1436624165645,0.040609263,0.015776262,0.013797587
283,1436624165664,0.034806043,0.016387127,0.015935615
284,1436624165684,0.030529987,0.00722415,0.01532475
285,1436624165702,0.027170226,0.003558956,0.013186721
286,1436624165722,0.019839842,0.0008100644,0.014713884
287,1436624165742,0.020145275,-0.0049931556,0.0082998
288,1436624165764,0.02655936,-0.0086583495,0.01074326
289,1436624165785,0.029613689,0.003558956,0.015935615
290,1436624165806,0.03694407,0.020663187,0.01654648
291,1436624165826,0.03144628,0.027993567,0.01074326
292,1436624165842,0.015258354,0.027382702,0.014713884
293,1436624165865,0.010065998,0.03043703,0.01410302
294,1436624165917,0.0015138853,0.016081698,0.010437828
295,1436624165918,0.0036519142,0.015165396,0.011354126
296,1436624165923,0.00029215496,0.02677184,0.011659558
297,1436624165944,0.0064008078,0.022801213,0.013186721
298,1436624165963,0.0027356157,0.016692564,0.011354126
299,1436624165982,0.0054845093,0.009973042,0.012270424
300,1436624166002,0.0018193182,-0.01018551,-0.0014740445
301,1436624166022,-0.0003187107,-0.024235412,0.00035855104
302,1436624166042,-0.0027621714,-0.030344062,0.00096941635
303,1436624166063,-0.0042893346,-0.025457144,-0.005750101
304,1436624166083,-0.020477263,-0.026068002,-0.013385916
305,1436624166103,-0.03513803,-0.023929976,-0.013996782
306,1436624166125,-0.032694567,-0.03339839,-0.011858754
307,1436624166143,-0.026280483,-0.03339839,-0.009720725
308,1436624166164,-0.019255534,-0.015377864,-0.0023903425
309,1436624166186,-0.018950101,0.020357754,-0.00025231414
310,1436624166206,-0.036054328,0.027382702,0.006161771
311,1436624166226,-0.05040966,0.015776262,0.0049400404
312,1436624166246,-0.05499115,0.011194773,0.0024965794
313,1436624166265,-0.049798794,0.020052321,-0.0048338035
314,1436624166286,-0.04827163,0.027382702,0.002802012
315,1436624166306,-0.052853122,0.03624025,0.017157346
316,1436624166323,-0.04002495,0.050901014,0.020822536
317,1436624166347,-0.034527164,0.057009667,0.019295374
318,1436624166365,-0.036970627,0.054260775,0.011048693
319,1436624166386,-0.05132596,0.027077273,0.0012748489
320,1436624166405,-0.050715093,0.025855541,0.007994367
321,1436624166422,-0.046133604,0.034407653,0.011354126
322,1436624166443,-0.039414085,0.0432652,0.012881289
323,1436624166465,-0.030251108,0.04295977,0.010132395
324,1436624166483,-0.024447888,0.04479236,0.01410302
325,1436624166507,-0.016506638,0.043570634,0.017157346
326,1436624166543,-0.013452313,0.041432604,0.015935615
327,1436624166544,-0.0030676043,0.03715655,0.018989941
328,1436624166563,0.0027356157,0.036545683,0.021738835
329,1436624166583,0.011898595,0.052122746,0.030596381
330,1436624166603,0.010065998,0.06372918,0.025404027
331,1436624166634,0.016174652,0.055787936,0.024793161
332,1436624166650,0.025643062,0.049984716,0.023876863
333,1436624166663,0.024115901,0.04570866,0.026625756
334,1436624166683,0.025643062,0.030742463,0.02357143
335,1436624166703,0.029002823,0.026466407,0.019600807
336,1436624166723,0.031751715,0.031964194,0.014713884
337,1436624166743,0.024726767,0.047235824,0.014713884
338,1436624166777,0.03327888,0.04937385,0.018379075
339,1436624166795,0.035111476,0.052122746,0.022044268
340,1436624166804,0.034806043,0.054566205,0.015935615
341,1436624166823,0.038471233,0.051206447,0.01990624
342,1436624166843,0.051604837,0.032269627,0.019295374
343,1436624166863,0.054659165,0.03715655,0.012270424
344,1436624166883,0.046412483,0.045403227,0.00952153
345,1436624166904,0.025643062,0.05242818,0.013186721
346,1436624166923,0.021061573,0.03715655,0.012881289
347,1436624166943,0.021367006,0.01455453,0.012270424
348,1436624166962,0.027781092,0.008445881,0.011659558
349,1436624166985,0.043358155,0.01730343,0.005856338
350,1436624167003,0.051910266,0.027077273,0.012270424
351,1436624167024,0.05862979,0.033796787,0.008910664
352,1436624167042,0.04519075,0.02463381,0.01532475
353,1436624167064,0.04396902,0.013943665,0.015935615
354,1436624167084,0.04396902,-0.0010225326,0.018684508
355,1436624167105,0.035111476,-0.00438229,0.0144084515
356,1436624167125,0.03236258,0.011805639,0.013492154
357,1436624167144,0.031140849,0.025244676,0.016851913
358,1436624167163,0.028086524,0.020663187,0.018684508
359,1436624167183,0.022588737,0.021884914,0.018989941
360,1436624167202,0.01861811,0.028909866,0.015630182
361,1436624167224,0.018923543,0.022801213,0.016241048
362,1436624167245,0.024726767,0.025855541,0.022044268
363,1436624167265,0.029308256,0.05395534,0.032428976
364,1436624167283,0.033889744,0.08174971,0.029985515
365,1436624167302,0.024115901,0.090607256,0.021433402
366,1436624167325,0.013120324,0.07350303,0.012881289
367,1436624167344,0.005789942,0.060369425,0.00952153
368,1436624167363,0.0005975878,0.065867215,0.012270424
369,1436624167383,-0.0018458739,0.07808452,0.016241048
370,1436624167404,-0.0073436606,0.08877466,0.01990624
371,1436624167423,-0.0073436606,0.09182899,0.022044268
