id,attr_time,attr_x,attr_y,attr_z
1,1438343226015,-0.030848695,-0.00030543262,0.007330383
2,1438343226027,-0.029321533,0.00061086525,-0.0061086523
3,1438343226046,-0.021991149,0.018020526,-0.003970624
4,1438343226070,-0.018936822,0.014049901,0.009468411
5,1438343226089,-0.02687807,-0.0076358155,0.014966198
6,1438343226110,-0.02565634,-0.016798794,0.0061086523
7,1438343226130,-0.029932396,-0.012217305,-0.0036651916
8,1438343226173,-0.022907447,0.0036651916,-0.007330383
9,1438343226174,-0.015271631,0.01985312,-0.0018325958
10,1438343226189,-0.027794369,0.018020526,0.01985312
11,1438343226210,-0.03604105,-0.009162978,0.017104227
12,1438343226230,-0.020158553,-0.028099801,0.0030543262
13,1438343226250,-0.018325957,-0.02107485,0.0021380284
14,1438343226270,-0.030848695,0.00030543262,0.016493361
15,1438343226290,-0.03481932,0.00030543262,0.02076942
16,1438343226310,-0.022602014,-0.0018325958,0.014966198
17,1438343226329,-0.025045475,-0.026267206,0.02321288
18,1438343226349,-0.024740042,-0.016798794,0.021685716
19,1438343226369,-0.022602014,0.005497787,-0.0012217305
20,1438343226390,-0.015577064,0.03848451,-0.004886922
21,1438343226410,-0.026572637,0.006414085,0.0030543262
22,1438343226430,-0.033292156,-0.046731193,0.008857546
23,1438343226450,-0.03634648,-0.051923547,0.007941248
24,1438343226470,-0.027488936,-0.025961773,0.005192355
25,1438343226490,-0.024740042,0.005192355,0.00580322
26,1438343226508,-0.021991149,0.035430185,0.0
27,1438343226535,-0.013439035,0.038179077,-0.009773844
28,1438343226602,-0.0125227375,0.026267206,0.003970624
29,1438343226603,-0.028710667,-0.004581489,0.018020526
30,1438343226604,-0.035124753,-0.023823744,0.029626964
31,1438343226611,-0.040927973,-0.01160644,0.013439035
32,1438343226627,-0.034208454,0.0030543262,-0.0018325958
33,1438343226649,-0.019242255,0.026267206,-0.0143553335
34,1438343226667,-0.011301007,0.03726278,-0.0061086523
35,1438343226688,-0.019547688,0.0027488936,0.010079277
36,1438343226707,-0.018020526,-0.019547688,-0.0018325958
37,1438343226729,-0.017104227,-0.008857546,-0.01282817
38,1438343226751,-0.026572637,0.030543262,-0.018936822
39,1438343226769,-0.03268129,0.06658431,-0.016187929
40,1438343226792,-0.036957346,0.042455133,-0.008552114
41,1438343226810,-0.03176499,-0.0125227375,0.008552114
42,1438343226830,-0.038179077,-0.054061573,0.032986723
43,1438343226851,-0.028405234,-0.0888809,0.05222898
44,1438343226870,-0.03145956,-0.06719518,0.04917465
45,1438343226891,-0.044898596,-0.036651913,0.04550946
46,1438343226911,-0.03634648,-0.026572637,0.037873644
47,1438343226931,-0.03023783,-0.022907447,0.016187929
48,1438343226951,-0.026572637,-0.015577064,0.0070249503
49,1438343226971,-0.023518313,0.006414085,0.0033597588
50,1438343226989,-0.01160644,0.015577064,-0.0012217305
51,1438343227011,0.005192355,0.018020526,-0.011301007
52,1438343227029,0.010995574,0.06505715,-0.0143553335
53,1438343227048,0.011301007,0.100792766,0.00061086525
54,1438343227068,0.020463986,0.13164146,0.011911872
55,1438343227090,0.024129177,0.17104226,0.02076942
56,1438343227113,0.03390302,0.20922135,0.031154128
57,1438343227134,0.018325957,0.25717425,0.03481932
58,1438343227151,0.01038471,0.25350907,0.015882496
59,1438343227169,0.025961773,0.22510384,0.0067195175
60,1438343227188,0.032375857,0.19425514,-0.00030543262
61,1438343227209,0.041233405,0.16432275,0.01863139
62,1438343227230,0.05375614,0.1469131,0.033292156
63,1438343227252,0.054367006,0.1554652,0.048563786
64,1438343227349,0.042455133,0.19181168,0.044898596
65,1438343227350,0.04734206,0.22876903,0.03970624
66,1438343227351,0.04520403,0.22235495,0.04550946
67,1438343227352,0.036957346,0.17867808,0.05375614
68,1438343227353,0.024740042,0.15118915,0.0720821
69,1438343227375,0.014660766,0.129198,0.07819075
70,1438343227405,0.004276057,0.11759156,0.07391469
71,1438343227408,-0.021380283,0.08979719,0.06841691
72,1438343227441,-0.040011674,0.02076942,0.045814894
73,1438343227450,-0.03634648,-0.090713486,0.04153884
74,1438343227474,-0.051923547,-0.15332718,0.055283304
75,1438343227490,-0.0852157,-0.22693644,0.061391957
76,1438343227508,-0.06505715,-0.27214047,0.051618114
77,1438343227529,-0.07513642,-0.21166481,0.023823744
78,1438343227551,-0.09590584,-0.11148291,-0.004886922
79,1438343227571,-0.10934488,-0.036957346,-0.015882496
80,1438343227591,-0.13316862,0.02076942,0.015577064
81,1438343227611,-0.1441642,0.02107485,0.035430185
82,1438343227631,-0.12858713,-0.019242255,0.009468411
83,1438343227651,-0.090713486,-0.03848451,-0.027183503
84,1438343227671,-0.090713486,-0.06994407,-0.029932396
85,1438343227691,-0.0571159,-0.040011674,-0.040317107
86,1438343227711,-0.051618114,0.03634648,-0.03481932
87,1438343227730,-0.045814894,0.0729984,-0.023518313
88,1438343227751,-0.049480084,0.06261369,-0.013133603
89,1438343227771,-0.043676864,-0.02443461,-0.02321288
90,1438343227791,-0.058337633,-0.11575896,-0.020463986
91,1438343227811,-0.08368854,-0.16371189,0.014660766
92,1438343227831,-0.07513642,-0.160963,0.02076942
93,1438343227851,-0.05222898,-0.12736541,0.00061086525
94,1438343227872,-0.046731193,-0.100792766,-0.03634648
95,1438343227892,-0.022602014,-0.14385876,-0.06780604
96,1438343227919,0.0027488936,-0.172264,-0.07666359
97,1438343227931,0.027183503,-0.1600467,-0.08460484
98,1438343227951,0.0106901415,-0.10781772,-0.08093964
99,1438343227970,-0.0009162979,-0.019547688,-0.06963864
100,1438343227997,-0.0070249503,0.086437434,-0.06078109
101,1438343228062,0.0012217305,0.10354166,-0.054061573
102,1438343228063,-0.0106901415,0.06994407,-0.06627888
103,1438343228064,-0.0076358155,0.008857546,-0.09101892
104,1438343228073,0.003970624,-0.04886922,-0.095294975
105,1438343228099,0.0,-0.065973446,-0.08552113
106,1438343228110,-0.021380283,-0.030543262,-0.076358154
107,1438343228131,-0.027794369,0.04917465,-0.07269296
108,1438343228151,-0.0290161,0.111177474,-0.070249505
109,1438343228170,-0.030543262,0.13439035,-0.06841691
110,1438343228190,-0.014660766,0.10445796,-0.055283304
111,1438343228210,-0.008857546,0.080634214,-0.041233405
112,1438343228232,-0.018936822,0.0571159,-0.021380283
113,1438343228252,-0.01985312,0.034513887,-0.010995574
114,1438343228270,-0.024740042,0.046731193,0.00061086525
115,1438343228291,-0.046120327,0.06414085,0.017715093
116,1438343228309,-0.05375614,0.08246681,0.0027488936
117,1438343228331,-0.035430185,0.0580322,-0.005192355
118,1438343228350,-0.04337143,0.0012217305,0.01985312
119,1438343228370,-0.048563786,-0.043982297,0.032070424
120,1438343228392,-0.03145956,-0.043676864,0.013133603
121,1438343228412,-0.02687807,-0.043676864,-0.0009162979
122,1438343228430,-0.021380283,0.052534413,-0.014966198
123,1438343228451,-0.0033597588,0.08552113,-0.01985312
124,1438343228472,-0.019242255,0.09437868,-0.01160644
125,1438343228491,-0.028710667,0.064751714,0.0076358155
126,1438343228511,-0.021685716,-0.0061086523,0.02565634
127,1438343228532,-0.037873644,-0.064751714,0.048258353
128,1438343228552,-0.049480084,-0.07727446,0.05375614
129,1438343228572,-0.06261369,-0.058337633,0.046120327
130,1438343228593,-0.05497787,-0.040317107,0.05375614
131,1438343228612,-0.053450707,-0.020158553,0.06414085
132,1438343228631,-0.052839845,-0.015577064,0.076358154
133,1438343228650,-0.053450707,-0.013439035,0.07727446
134,1438343228671,-0.032375857,-0.0125227375,0.057421334
135,1438343228690,-0.03390302,-0.009162978,0.048258353
136,1438343228714,-0.037873644,-0.017715093,0.020158553
137,1438343228773,-0.019242255,-0.01160644,0.002443461
138,1438343228774,-0.01863139,-0.03145956,0.01282817
139,1438343228775,-0.031154128,-0.045814894,0.038179077
140,1438343228790,-0.02107485,-0.053450707,0.04337143
141,1438343228809,-0.017715093,-0.043982297,0.025961773
142,1438343228829,-0.02107485,-0.0061086523,0.017104227
143,1438343228850,-0.025961773,0.0027488936,0.008552114
144,1438343228872,-0.007941248,0.00061086525,-0.01282817
145,1438343228891,-0.024740042,0.012217305,-0.005497787
146,1438343228911,-0.0580322,0.009162978,0.032070424
147,1438343228931,-0.055283304,-0.06872234,0.026267206
148,1438343228950,-0.042760566,-0.122478485,0.015882496
149,1438343228970,-0.05009095,-0.12980886,0.029321533
150,1438343228991,-0.047647487,-0.09773844,0.028099801
151,1438343229013,-0.030848695,-0.034513887,0.015882496
152,1438343229033,-0.02107485,0.01038471,0.021685716
153,1438343229050,-0.03268129,0.03970624,0.038789943
154,1438343229073,-0.03268129,-0.0009162979,0.028405234
155,1438343229093,-0.019547688,-0.07880162,0.009773844
156,1438343229113,-0.018325957,-0.12370021,0.0061086523
157,1438343229133,-0.032986723,-0.099265605,0.009773844
158,1438343229153,-0.03940081,-0.02443461,-0.0033597588
159,1438343229170,-0.025961773,0.036651913,-0.0076358155
160,1438343229193,-0.011301007,0.02565634,0.0030543262
161,1438343229211,-0.018325957,-0.005497787,0.01740966
162,1438343229231,-0.021685716,-0.04520403,0.008857546
163,1438343229253,-0.019547688,-0.03481932,0.002443461
164,1438343229270,-0.034208454,-0.002443461,-0.0021380284
165,1438343229292,-0.038789943,0.024129177,0.005497787
166,1438343229309,-0.030848695,0.03359759,0.008857546
167,1438343229331,-0.032375857,0.008246681,0.030543262
168,1438343229355,-0.043676864,-0.041233405,0.046120327
169,1438343229371,-0.04642576,-0.095294975,0.043066
170,1438343229393,-0.05100725,-0.11148291,0.03145956
171,1438343229413,-0.05222898,-0.09743301,0.020158553
172,1438343229438,-0.03359759,-0.06780604,-0.008857546
173,1438343229491,-0.012217305,-0.02107485,-0.038179077
174,1438343229492,-0.010079277,0.031154128,-0.047647487
175,1438343229493,-0.008857546,0.06505715,-0.040317107
176,1438343229511,-0.003970624,0.05955936,-0.019547688
177,1438343229531,-0.00030543262,0.016493361,0.0036651916
178,1438343229550,0.0015271631,0.004276057,0.025350908
179,1438343229570,-0.0061086523,0.054061573,0.03726278
180,1438343229592,-0.047036625,0.09285152,0.054367006
181,1438343229610,-0.1020145,0.13469578,0.13591751
182,1438343229630,-0.10323623,0.13072516,0.20097467
183,1438343229652,-0.06780604,0.03970624,0.21044308
184,1438343229671,-0.01985312,-0.027794369,0.22876903
185,1438343229691,-0.08246681,-0.062308256,0.22999077
186,1438343229711,-0.08827003,-0.03634648,0.15424347
187,1438343229733,-0.042455133,0.025350908,0.099265605
188,1438343229753,-0.027794369,0.13836098,0.1151481
189,1438343229773,-0.015577064,0.18081611,0.19181168
190,1438343229793,-0.047647487,0.1301143,0.26511553
191,1438343229813,-0.021685716,0.0021380284,0.25870144
192,1438343229833,0.01160644,-0.080634214,0.2415972
193,1438343229853,0.031154128,-0.07696902,0.2660318
194,1438343229873,0.0015271631,-0.005497787,0.36560285
195,1438343229891,-0.099265605,0.10934488,0.45845437
196,1438343229913,-0.21288654,0.16554448,0.4841107
197,1438343229933,-0.28008172,0.106595986,0.48533243
198,1438343229952,-0.33658674,-0.08032878,0.48563787
199,1438343229972,-0.33353242,-0.34238997,0.5152648
200,1438343229994,-0.2932153,-0.44684792,0.5222898
201,1438343230013,-0.27916542,-0.36560285,0.54244834
202,1438343230033,-0.25350907,-0.29168814,0.55680364
203,1438343230054,-0.23304509,-0.12217305,0.5479461
204,1438343230073,-0.22693644,0.07391469,0.54428095
205,1438343230094,-0.17134771,0.18661933,0.5494733
206,1438343230112,-0.1572978,0.2941316,0.6270532
207,1438343230132,-0.21197024,0.34483343,0.74281216
208,1438343230151,-0.20891592,0.4092797,0.627664
209,1438343230224,-0.16493362,0.2660318,0.58032197
210,1438343230225,-0.19456059,0.17256944,0.634689
211,1438343230226,-0.2180789,0.1423316,0.6246097
212,1438343230234,-0.18112154,0.069027774,0.5861252
213,1438343230251,-0.11362094,-0.032070424,0.5369505
214,1438343230273,-0.09865474,-0.13072516,0.54428095
215,1438343230291,-0.07666359,-0.17195857,0.56688297
216,1438343230314,-0.009162978,-0.12156218,0.59620446
217,1438343230334,0.01863139,0.0852157,0.6047566
218,1438343230365,0.012217305,0.40103304,0.64721173
219,1438343230372,-0.041233405,0.7144069,0.7021896
220,1438343230391,-0.12034045,0.9773844,0.70554936
221,1438343230413,-0.23426682,1.0662653,0.68936145
222,1438343230434,-0.28985557,0.94714653,0.7797695
223,1438343230454,-0.3659083,0.71593404,0.93523467
224,1438343230474,-0.441961,0.6239988,1.0317514
225,1438343230493,-0.5149594,0.6188065,1.151481
226,1438343230513,-0.5290093,0.59742624,1.2452488
227,1438343230534,-0.46975538,0.6731735,1.2812898
228,1438343230554,-0.31795537,1.0800097,1.2153164
229,1438343230575,-0.14569137,1.4828753,1.181108
230,1438343230592,0.060170226,1.5922203,1.1997393
231,1438343230672,0.13988814,1.6792686,1.2168436
232,1438343230673,0.1441642,1.6658295,1.1246029
233,1438343230674,0.087964594,1.4816537,1.0873401
234,1438343230675,-0.025961773,1.3466524,1.0604621
235,1438343230693,-0.063224554,1.3613132,1.042747
236,1438343230713,0.0027488936,1.4767667,1.1267409
237,1438343230732,0.18784106,1.3680327,1.2721269
238,1438343230753,0.36041048,1.2507466,1.412015
239,1438343230774,0.53023106,0.9737192,1.568091
240,1438343230793,0.50885075,0.3866777,1.3231341
241,1438343230814,0.44593164,0.098043874,0.8173377
242,1438343230834,0.23609942,0.39614612,0.36743546
243,1438343230854,0.07238753,1.0366384,0.23457226
244,1438343230874,0.005497787,1.3283265,0.45448375
245,1438343230893,0.031154128,1.2678508,0.602924
246,1438343230912,0.034208454,0.8762862,0.6985244
247,1438343230932,0.086132,0.6133087,0.72784597
248,1438343230993,0.21166481,0.61422503,0.63071835
249,1438343230994,0.28099802,0.70524395,0.5314528
250,1438343230995,0.33078352,0.59589905,0.4801401
251,1438343231016,0.312763,0.28496864,0.3100141
252,1438343231032,0.31642818,-0.05681047,0.12003502
253,1438343231052,0.3662137,-0.3191771,-0.15577064
254,1438343231071,0.3866777,-0.60139686,-0.4905248
255,1438343231092,0.33078352,-0.8933904,-0.80878556
256,1438343231113,0.3594942,-1.0855075,-0.9691377
257,1438343231134,0.38637227,-1.1435398,-1.0708468
258,1438343231153,0.6704246,-1.1221595,-0.74372846
259,1438343231173,0.915687,-1.0372492,-0.44715336
260,1438343231193,0.27458394,-0.24923302,-0.91538155
261,1438343231215,0.076052725,0.49510628,-0.9092729
262,1438343231235,0.043982297,0.6151413,-0.35888332
263,1438343231255,-0.31673363,0.4804455,-0.2837469
264,1438343231274,-0.44684792,0.4266894,-0.43066
265,1438343231292,-0.20891592,0.4560109,-0.26450464
266,1438343231314,-0.226631,0.945314,-0.20799962
267,1438343231332,-0.5036584,1.5360206,-0.3640757
268,1438343231354,-0.72082096,2.01555,-0.6310238
269,1438343231372,-0.63591075,2.1618521,-0.73426
270,1438343231396,-0.43249258,2.1887302,-0.63041294
271,1438343231412,-0.21135938,1.7760907,-0.4071417
272,1438343231435,-0.4260785,1.0396926,-0.3231477
273,1438343231455,-0.5516113,1.010982,-0.408058
274,1438343231475,-0.36102137,1.1365148,-0.49327368
275,1438343231494,-0.24312437,1.4395039,-0.4288274
276,1438343231512,-0.4288274,1.5057828,0.0061086523
277,1438343231535,-0.22632557,0.9972375,0.44165558
278,1438343231555,-0.086437434,0.50976706,0.54367006
279,1438343231578,-0.036957346,-0.022907447,0.5534439
280,1438343231592,0.05955936,-0.41905355,0.57543504
281,1438343231612,0.09865474,-1.2052372,0.5186246
282,1438343231632,0.18020524,-1.9785925,0.42332962
283,1438343231652,0.22327125,-2.4294112,0.3707952
284,1438343231672,0.258396,-2.5873199,0.25259277
285,1438343231696,0.35185838,-2.6493225,0.14813483
286,1438343231720,0.48624873,-2.8151724,0.19150625
287,1438343231734,0.552833,-3.0439415,0.16279559
288,1438343231752,0.56413406,-3.1209106,-0.029321533
289,1438343231772,0.50854534,-3.080288,-0.23426682
290,1438343231793,0.453262,-2.9495628,-0.46639562
291,1438343231812,0.48349985,-2.9061913,-0.56077427
292,1438343231834,0.40439278,-3.1041117,-0.6270532
293,1438343231852,0.35979962,-3.3011158,-0.73731434
294,1438343231873,0.3915646,-3.44528,-0.95814216
295,1438343231894,0.35796702,-3.552487,-1.1490375
296,1438343231913,0.22632557,-3.5253034,-1.2568552
297,1438343231936,0.14782938,-3.3115005,-1.317331
298,1438343231953,0.112399206,-3.1963525,-1.3310753
299,1438343231973,0.12064589,-3.1328225,-1.2455542
300,1438343231994,0.18081611,-2.722321,-1.1337659
301,1438343232016,0.30085114,-2.3197608,-1.0503827
302,1438343232036,0.39736784,-2.0781636,-0.93554014
303,1438343232056,0.42913285,-1.885741,-0.6637051
304,1438343232076,0.36163223,-1.6319265,-0.27550024
305,1438343232093,0.28863382,-1.3286319,0.0983493
306,1438343232114,0.23243423,-0.83658,0.29535335
307,1438343232132,0.22266038,-0.21135938,0.3203988
308,1438343232157,0.22418754,0.19975294,0.29718593
309,1438343232173,0.17073683,0.5589417,0.33383787
310,1438343232194,0.10048734,0.6337727,0.4089743
311,1438343232214,0.08827003,0.39461896,0.48716503
312,1438343232233,0.10567969,0.14172074,0.5381723
313,1438343232256,0.122783914,-0.024740042,0.50671273
314,1438343232275,0.07574729,0.06658431,0.46028697
315,1438343232293,0.008552114,0.23762658,0.42913285
316,1438343232321,-0.012217305,0.27183503,0.40225476
317,1438343232338,-0.0067195175,0.27366763,0.36041048
318,1438343232356,-0.05955936,0.33383787,0.36193767
319,1438343232375,-0.1731803,0.48258355,0.410196
320,1438343232395,-0.25809056,0.65668017,0.48197266
321,1438343232442,-0.3381139,0.6918049,0.50732356
322,1438343232445,-0.3662137,0.61850107,0.4746423
323,1438343232460,-0.3817908,0.39522982,0.3717115
324,1438343232473,-0.42577308,0.093767814,0.21563543
325,1438343232493,-0.46853364,-0.18173242,0.09010262
326,1438343232513,-0.52290064,-0.30573806,-0.05131268
327,1438343232533,-0.4896085,-0.25992316,-0.22204952
328,1438343232553,-0.30726522,0.13500121,-0.34605515
329,1438343232575,-0.011301007,0.7657196,-0.34574974
330,1438343232595,0.17715092,1.5088371,-0.26847526
331,1438343232615,0.33567044,1.9517145,-0.16218472
332,1438343232633,0.44868052,2.287385,-0.074830994
333,1438343232654,0.5626069,2.282498,0.029321533
334,1438343232674,0.6795876,1.9700404,0.07574729
335,1438343232693,0.9193522,1.5897768,0.13500121
336,1438343232714,1.1246029,1.0687088,0.38698313
337,1438343232733,0.95417154,0.5467244,0.5839872
338,1438343232754,0.36468655,-0.23151793,0.51923543
339,1438343232775,-0.101098195,-1.2767084,0.42546764
340,1438343232794,-0.44104472,-1.9825631,0.33444872
341,1438343232815,-0.5198463,-2.4599543,0.3277292
342,1438343232839,-0.47555858,-2.3267858,0.36346483
343,1438343232854,-0.43951756,-1.9529362,0.33933565
344,1438343232878,-0.48624873,-1.7424932,0.17165314
345,1438343232899,-0.53969944,-1.6380352,-0.09285152
346,1438343232914,-0.5039638,-1.5329664,-0.42332962
347,1438343232936,-0.36193767,-1.3738359,-0.6762278
348,1438343232953,-0.2415972,-1.1542299,-0.7330383
349,1438343232974,-0.12797627,-0.98746365,-0.6612616
350,1438343232993,-0.10293079,-0.893085,-0.5174029
351,1438343233020,-0.17134771,-0.9086621,-0.3885103
352,1438343233034,-0.24617869,-0.91965765,-0.31429017
353,1438343233054,-0.25411993,-0.85918194,-0.26511553
354,1438343233076,-0.22632557,-0.7538077,-0.1957823
355,1438343233098,-0.20555615,-0.5992588,-0.16035213
356,1438343233146,-0.21013765,-0.59986967,-0.19333886
357,1438343233147,-0.23915374,-0.8512407,-0.27855456
358,1438343233164,-0.31703907,-1.1178834,-0.44623706
359,1438343233173,-0.38240165,-1.4056009,-0.6224717
360,1438343233195,-0.42271876,-1.6575829,-0.7852673
361,1438343233213,-0.3680463,-1.8982637,-0.8582657
362,1438343233234,-0.2125811,-1.9495764,-0.82650065
363,1438343233254,-0.024740042,-1.8350391,-0.6805039
364,1438343233275,0.10354166,-1.6520851,-0.45753807
365,1438343233298,0.21288654,-1.5100589,-0.22449298
366,1438343233323,0.269697,-1.4840971,-0.0983493
367,1438343233338,0.23793201,-1.4001031,0.019242255
368,1438343233355,0.14752395,-1.1786644,0.07269296
369,1438343233374,0.07941248,-0.8436049,0.058643065
370,1438343233395,0.049480084,-0.40561453,-0.015271631
371,1438343233417,0.035124753,0.2134974,-0.032986723
372,1438343233436,0.043982297,0.713796,0.054061573
373,1438343233457,0.08246681,1.1902709,0.19303341
374,1438343233477,0.090713486,1.3423764,0.28405234
375,1438343233495,0.07238753,1.215011,0.31306845
376,1438343233516,0.019547688,1.0118983,0.29779682
377,1438343233535,-0.058337633,0.70249504,0.20799962
378,1438343233560,-0.118507855,0.41080686,0.0421497
379,1438343233577,-0.106595986,0.16340645,-0.14202617
