id,attr_time,attr_x,attr_y,attr_z
1,1438343226014,-0.0882263,-0.00140381,0.0262604
2,1438343226032,-0.0027771,0.006073,0.0358734
3,1438343226052,-0.0102539,-0.00140381,0.0219879
4,1438343226072,0.00256348,0.000732422,0.00917053
5,1438343226091,-0.0134583,0.00500488,-0.00151062
6,1438343226114,0.0111084,0.0103455,-0.00471497
7,1438343226131,-0.0134583,0.0167541,-0.00898743
8,1438343226151,-0.0262756,0.0252991,-0.0100555
9,1438343226171,-0.00811768,0.024231,-0.00364685
10,1438343226191,-0.0262756,0.0210266,0.00596619
11,1438343226211,-0.0412292,0.0188904,0.0102386
12,1438343226229,-0.0380249,0.006073,0.00169373
13,1438343226251,-0.0348206,-0.0078125,0.00276184
14,1438343226270,-0.0476379,-0.0174255,0.00169373
15,1438343226289,-0.0722046,-0.0281067,-0.00151062
16,1438343226310,-0.105316,-0.0334473,-0.0121918
17,1438343226328,-0.106384,-0.0387878,-0.023941
18,1438343226350,-0.109589,-0.0377197,-0.0282135
19,1438343226368,-0.12027,-0.0334473,-0.0303497
20,1438343226389,-0.126678,-0.0323792,-0.023941
21,1438343226408,-0.0989075,-0.0334473,-0.0121918
22,1438343226429,-0.0882263,-0.0302429,0.00169373
23,1438343226451,-0.0839539,-0.0270386,0.00382996
24,1438343226469,-0.0732727,-0.0206299,0.00382996
25,1438343226489,-0.0775452,-0.0259705,0.00169373
26,1438343226508,-0.0700684,-0.021698,0.00596619
27,1438343226528,-0.105316,-0.0291748,0.00489807
28,1438343226551,-0.0967712,-0.0377197,0.00489807
29,1438343226568,-0.111725,-0.0441284,0.00917053
30,1438343226588,-0.102112,-0.0462646,0.0113068
31,1438343226608,-0.0882263,-0.0377197,0.0145111
32,1438343226627,-0.0369568,-0.00994873,0.031601
33,1438343226648,-0.0198669,0.00927734,0.050827
34,1438343226667,0.00790405,0.0317078,0.0743256
35,1438343226686,0.0410156,0.0455933,0.0764618
36,1438343226707,0.0516968,0.0584106,0.0647125
37,1438343226816,0.0484924,0.0541382,0.041214
38,1438343226817,0.0613098,0.0466614,0.0145111
39,1438343226818,0.0527649,0.0477295,-0.00151062
40,1438343226819,0.0111084,0.0263672,-0.0260773
41,1438343226820,0.0399475,0.0220947,-0.0346222
42,1438343226824,0.00790405,0.00820923,-0.0527801
43,1438343226849,0.0271301,-0.00140381,-0.0645294
44,1438343226866,0.0516968,0.000732422,-0.0688019
45,1438343226886,0.0559692,0.00286865,-0.0677338
46,1438343226905,0.0303345,0.00820923,-0.0581207
47,1438343226924,-0.00598145,-0.0110168,-0.0485077
48,1438343226946,-0.0123901,-0.0152893,-0.0303497
49,1438343226965,-0.0358887,-0.0259705,-0.032486
50,1438343226985,-0.0252075,-0.0131531,-0.0218048
51,1438343227003,-0.0155945,-0.00247192,-0.0111237
52,1438343227024,-0.0102539,0.00180054,-0.00791931
53,1438343227045,-0.00598145,0.00820923,-0.00898743
54,1438343227064,0.0185852,0.0135498,-0.0068512
55,1438343227083,0.0527649,0.0188904,0.00169373
56,1438343227103,0.0602417,0.0295715,0.0123749
57,1438343227124,0.0378113,0.0210266,0.031601
58,1438343227143,0.0346069,0.00714111,0.0476227
59,1438343227163,0.0314026,-0.00567627,0.0518951
60,1438343227183,0.0239258,-0.0291748,0.0401459
61,1438343227203,0.0249939,-0.0377197,0.0187836
62,1438343227223,0.0132446,-0.039856,-0.00364685
63,1438343227243,0.0239258,-0.0441284,-0.0196686
64,1438343227263,0.0506287,-0.0334473,-0.0250092
65,1438343227282,0.0698547,-0.0366516,-0.0314178
66,1438343227302,0.10083,-0.0302429,-0.0271454
67,1438343227322,0.109375,-0.031311,-0.0196686
68,1438343227345,0.0431519,-0.0323792,-0.0282135
69,1438343227362,-0.0134583,-0.0281067,-0.042099
70,1438343227382,-0.0198669,-0.0238342,-0.0388947
71,1438343227401,-0.0369568,-0.0291748,-0.0335541
72,1438343227419,-0.0241394,-0.031311,-0.014328
73,1438343227444,-0.0412292,-0.0334473,-0.0100555
74,1438343227457,-0.0262756,-0.0387878,-0.0100555
75,1438343227479,0.0121765,-0.0537415,-0.00791931
76,1438343227499,0.0367432,-0.0473328,-0.0068512
77,1438343227518,0.0602417,-0.0526733,-0.00471497
78,1438343227538,0.0826721,-0.0430603,0.00489807
79,1438343227558,0.0922852,-0.0387878,0.0123749
80,1438343227578,0.122192,-0.0227661,0.0326691
81,1438343227598,0.0837402,-0.0238342,0.0305328
82,1438343227618,0.0570374,-0.031311,0.0273285
83,1438343227638,0.0762634,-0.0377197,0.0251923
84,1438343227658,0.0346069,-0.0451965,0.0283966
85,1438343227680,0.0228577,-0.0516052,0.041214
86,1438343227699,0.04422,-0.0451965,0.0540314
87,1438343227719,0.00897217,-0.0419922,0.0572357
88,1438343227738,0.0527649,-0.0270386,0.0572357
89,1438343227759,0.0751953,-0.0174255,0.0476227
90,1438343227778,0.0623779,-0.0142212,0.0380096
91,1438343227798,0.0613098,-0.00354004,0.0337372
92,1438343227818,0.0826721,0.00714111,0.0273285
93,1438343227838,0.0581055,0.00927734,0.0273285
94,1438343227858,0.0570374,0.00500488,0.0145111
95,1438343227879,0.0591736,0.0146179,0.00169373
96,1438343227898,0.0463562,0.00500488,-0.00898743
97,1438343227916,0.0516968,0.006073,-0.0111237
98,1438343227937,0.0399475,0.006073,0.00062561
99,1438343227957,0.035675,0.00820923,0.0187836
100,1438343227980,0.0484924,0.0103455,0.0369415
101,1438343227997,0.04422,0.00927734,0.0337372
102,1438343228015,0.0410156,0.0114136,0.0219879
103,1438343228036,0.0452881,0.00820923,0.00596619
104,1438343228056,0.0516968,0.0103455,-0.00364685
105,1438343228076,0.0207214,0.00393677,-0.00791931
106,1438343228096,-0.000640869,-0.000335693,-0.00257874
107,1438343228116,0.00576782,0.006073,0.00917053
108,1438343228136,-0.0209351,0.006073,0.0070343
109,1438343228156,-0.00170898,0.0210266,0.00276184
110,1438343228176,0.0217896,0.0349121,-0.00151062
111,1438343228195,0.0314026,0.0423889,-0.00364685
112,1438343228215,0.00149536,0.033844,-0.0068512
113,1438343228234,-0.00384521,0.0327759,-0.00364685
114,1438343228255,0.0239258,0.0274353,-0.00364685
115,1438343228277,-0.00598145,0.0210266,-0.00898743
116,1438343228295,0.00149536,0.0210266,-0.00898743
117,1438343228314,0.0196533,0.0199585,-0.0132599
118,1438343228333,0.0324707,0.0231628,-0.00364685
119,1438343228354,0.0153809,0.0263672,0.00276184
120,1438343228376,-0.0187988,0.0178223,-0.00151062
121,1438343228394,-0.000640869,0.0178223,-0.0068512
122,1438343228413,0.00363159,0.0178223,-0.00791931
123,1438343228433,0.00576782,0.0135498,-0.00578308
124,1438343228453,-0.0155945,0.00500488,-0.00791931
125,1438343228476,-0.0198669,-0.00567627,-0.0121918
126,1438343228493,-0.00170898,0.00393677,-0.00578308
127,1438343228512,-0.0187988,0.00393677,-0.00257874
128,1438343228533,-0.0155945,0.015686,0.00489807
129,1438343228553,-0.0220032,0.0135498,0.00382996
130,1438343228575,-0.0262756,0.0199585,0.00062561
131,1438343228592,-0.039093,0.015686,-0.0121918
132,1438343228612,-0.0134583,0.00820923,-0.0228729
133,1438343228632,-0.00491333,0.006073,-0.032486
134,1438343228650,-0.0262756,0.00180054,-0.0399628
135,1438343228674,-0.00704956,0.00820923,-0.032486
136,1438343228690,-0.0230713,-0.00354004,-0.023941
137,1438343228711,-0.0241394,-0.0110168,-0.0068512
138,1438343228730,-0.0337524,-0.0152893,-0.00471497
139,1438343228751,-0.0166626,-0.0152893,-0.00578308
140,1438343228773,-0.0220032,-0.0142212,-0.0218048
141,1438343228789,-0.0230713,-0.0259705,-0.0463715
142,1438343228811,-0.0241394,-0.0163574,-0.0570526
143,1438343228829,-0.0134583,-0.0249023,-0.0634613
144,1438343228850,0.0228577,-0.00460815,-0.0570526
145,1438343228870,-0.00170898,0.00927734,-0.06987
146,1438343228890,0.0228577,0.0252991,-0.0837555
147,1438343228909,0.0153809,0.0220947,-0.10939
148,1438343228930,-0.0252075,0.0178223,-0.12648
149,1438343228950,-0.118134,-0.0078125,-0.113663
150,1438343228969,0.0549011,-0.0078125,-0.0506439
151,1438343228989,0.0378113,-0.00460815,-0.0132599
152,1438343229009,-0.0412292,-0.0249023,0.00276184
153,1438343229029,0.00683594,-0.021698,0.00062561
154,1438343229049,0.00149536,-0.0409241,-0.0153961
155,1438343229068,0.137146,-0.031311,0.0241241
156,1438343229088,0.137146,-0.0505371,0.0518951
157,1438343229107,0.0805359,-0.0686951,0.0187836
158,1438343229128,0.130737,-0.0558777,-0.0164642
159,1438343229149,0.155304,-0.00994873,-0.0495758
160,1438343229168,0.34436,0.0637512,-0.0527801
161,1438343229188,0.562256,0.144928,-0.0378265
162,1438343229207,0.569733,0.181244,-0.0292816
163,1438343229227,0.427673,0.206879,-0.0111237
164,1438343229248,0.242889,0.2229,0.023056
165,1438343229267,0.0677185,0.189789,0.0273285
166,1438343229286,0.171326,0.179108,0.0433502
167,1438343229306,0.151032,0.180176,0.041214
168,1438343229327,0.0591736,0.128906,0.00810242
169,1438343229349,0.122192,0.113953,0.0219879
170,1438343229365,0.0111084,0.0733643,0.00489807
171,1438343229386,-0.112793,0.0680237,-0.0100555
172,1438343229406,-0.0978394,0.0733643,-0.00151062
173,1438343229426,-0.0177307,0.0819092,0.0283966
174,1438343229448,0.00683594,0.0722961,0.0497589
175,1438343229465,0.0549011,0.0487976,0.0818024
176,1438343229485,0.163849,-0.00247192,0.103165
177,1438343229505,0.243958,-0.0569458,0.128799
178,1438343229525,0.285614,-0.086853,0.122391
179,1438343229545,0.179871,-0.131714,0.0839386
180,1438343229564,0.233276,-0.196869,0.0572357
181,1438343229585,0.425537,-0.227844,0.0198517
182,1438343229603,0.549439,-0.270569,-0.0933685
183,1438343229624,0.594299,-0.289795,-0.101913
184,1438343229647,0.659454,-0.349609,-0.225815
185,1438343229664,1.00125,-0.399811,-0.232224
186,1438343229684,1.40393,-0.429718,-0.293106
187,1438343229704,1.38043,-0.382721,-0.379623
188,1438343229723,1.23517,-0.461761,-0.601791
189,1438343229743,2.09073,-0.600616,-0.781235
190,1438343229763,2.50516,-0.691406,-0.834641
191,1438343229783,2.19006,-0.874054,-0.88591
192,1438343229803,1.38577,-1.18381,-0.909409
193,1438343229823,1.1337,-1.35898,-0.740646
194,1438343229845,0.562256,-1.58649,-0.614609
195,1438343229862,0.0933533,-1.69757,-0.503525
196,1438343229880,-0.242035,-1.71466,-0.410599
197,1438343229902,0.13501,-1.67087,-0.361465
198,1438343229920,0.365723,-1.65912,-0.371078
199,1438343229944,0.19696,-1.7435,-0.420212
200,1438343229962,0.0271301,-1.84817,-0.485367
201,1438343229982,-0.279419,-1.99985,-0.554794
202,1438343230001,-0.497314,-2.10452,-0.570816
203,1438343230019,-0.322144,-2.15579,-0.482162
204,1438343230044,0.226868,-2.03616,-0.278152
205,1438343230059,0.700043,-1.79584,0.0145111
206,1438343230081,-0.00704956,-1.38141,0.139481
207,1438343230100,0.409515,-1.09836,0.078598
208,1438343230120,0.557983,-0.820648,0.0145111
209,1438343230143,0.15744,-0.720245,-0.0121918
210,1438343230160,-0.224945,-0.556824,-0.00898743
211,1438343230180,-0.575287,-0.542938,0.0593719
212,1438343230199,-0.744049,-0.395538,0.0465546
213,1438343230219,-0.745117,-0.312225,-0.156387
214,1438343230240,-0.859406,-0.270569,-0.305923
215,1438343230259,-0.740845,-0.19046,-0.635971
216,1438343230280,-0.707733,-0.160553,-0.711807
217,1438343230299,-0.734436,-0.107147,-0.865616
218,1438343230318,-0.751526,-0.212891,-0.95961
219,1438343230337,-0.5112,-0.236389,-1.07924
220,1438343230359,-0.331757,-0.305817,-1.06749
221,1438343230378,0.768402,-0.617706,-0.947861
222,1438343230398,1.83865,-0.822784,0.0753937
223,1438343230418,-0.522949,-1.72961,-0.00791931
224,1438343230438,-1.17557,-1.98917,-0.832504
225,1438343230458,0.753448,-1.28955,-0.267471
226,1438343230479,-0.134155,-1.21585,-0.849594
227,1438343230497,-0.874359,-0.963776,-1.14653
228,1438343230517,0.0452881,-0.886871,-1.04185
229,1438343230537,1.17429,-1.26071,-0.486435
230,1438343230557,1.7532,-1.87808,0.023056
231,1438343230577,1.74252,-2.13016,0.0561676
232,1438343230597,1.45734,-2.17929,-0.112595
233,1438343230617,1.21594,-2.02441,-0.245041
234,1438343230636,1.83224,-1.76593,-0.189499
235,1438343230656,2.82986,-1.45938,0.0433502
236,1438343230677,2.07898,-1.44977,0.136276
237,1438343230695,0.701111,-1.5459,0.270859
238,1438343230716,0.0111084,-1.40063,0.274063
239,1438343230735,-0.0337524,-1.06845,0.217453
240,1438343230756,-0.583832,-0.629456,-0.00578308
241,1438343230776,-1.61029,-0.50235,-0.0410309
242,1438343230794,-1.7641,-0.413696,-0.32515
243,1438343230815,-1.0036,0.0541382,-0.406326
244,1438343230834,-0.989716,0.680054,-0.408463
245,1438343230855,-1.33472,1.45871,-0.559067
246,1438343230875,-1.41803,2.01733,-0.454391
247,1438343230894,-1.99695,2.52789,-0.77803
248,1438343230913,-3.19217,2.84512,-0.825027
249,1438343230934,-3.4592,3.26382,-0.939316
250,1438343230953,-3.42822,3.65582,-0.935043
251,1438343230974,-3.40152,4.02646,-0.820755
252,1438343230994,-3.40793,4.36932,-0.603928
253,1438343231014,-3.67389,4.53381,-0.289902
254,1438343231033,-3.63223,4.6716,0.0978241
255,1438343231053,-3.44531,4.73676,0.546432
256,1438343231076,-2.95932,4.73035,0.986496
257,1438343231093,-1.65515,4.57761,1.42549
258,1438343231111,0.0709228,4.56799,1.64232
259,1438343231132,1.26294,4.51245,1.69252
260,1438343231151,1.98071,4.50391,1.69679
261,1438343231175,2.31396,4.50818,1.78224
262,1438343231192,2.17938,4.36292,1.77583
263,1438343231212,1.69766,4.04889,1.71495
264,1438343231232,1.50861,3.84595,1.79079
265,1438343231250,1.55347,3.6665,1.85487
266,1438343231274,1.79059,3.41016,1.83992
267,1438343231290,1.78632,3.13031,1.77156
268,1438343231310,1.33237,2.73404,1.62737
269,1438343231331,0.853851,2.20425,1.41588
270,1438343231351,0.473602,1.78021,1.1403
271,1438343231373,0.182007,1.43735,0.848709
272,1438343231390,-0.0145264,1.21304,0.63829
273,1438343231411,-0.317871,1.06564,0.528275
274,1438343231430,-0.854065,0.909698,0.516525
275,1438343231450,-1.22043,0.693939,0.538956
276,1438343231473,-1.3486,0.479248,0.517593
277,1438343231490,-1.49493,0.423706,0.410782
278,1438343231510,-1.16809,0.305145,0.455643
279,1438343231530,-1.23111,0.272034,0.417191
280,1438343231549,-1.3956,0.220764,0.383011
281,1438343231570,-1.49173,0.185516,0.364853
282,1438343231589,-1.56009,0.192993,0.327469
283,1438343231609,-1.53659,0.180176,0.272995
284,1438343231629,-1.56863,0.162018,0.209976
285,1438343231649,-1.52591,0.089386,0.122391
286,1438343231668,-1.33044,0.0391846,0.0465546
287,1438343231688,-1.08051,0.0188904,0.00596619
288,1438343231710,-0.852997,0.006073,-0.023941
289,1438343231727,-0.638306,-0.0751038,-0.00257874
290,1438343231749,-0.5112,-0.196869,0.0219879
291,1438343231768,-0.4375,-0.325043,0.050827
292,1438343231788,-0.430023,-0.520508,0.0711212
293,1438343231808,-0.517609,-0.738403,0.0903473
294,1438343231827,-0.787842,-0.933868,0.112778
295,1438343231847,-1.28131,-1.12827,0.133072
296,1438343231866,-1.91684,-1.29489,0.148026
297,1438343231887,-2.51712,-1.37393,0.159775
298,1438343231906,-3.03729,-1.35471,0.177933
299,1438343231926,-3.33957,-1.23508,0.236679
300,1438343231946,-3.44211,-1.03214,0.374466
301,1438343231966,-3.5329,-0.774719,0.556046
302,1438343231986,-3.54892,-0.546143,0.734421
303,1438343232008,-3.27655,-0.260956,0.890366
304,1438343232025,-2.53528,0.304077,0.953384
305,1438343232046,-1.20868,1.01651,0.924545
306,1438343232064,0.318726,1.49396,0.7686
307,1438343232085,1.5022,1.53882,0.477005
308,1438343232106,1.28217,1.4256,0.179001
309,1438343232125,0.759857,1.24402,-0.0346222
310,1438343232145,1.14331,0.705689,-0.0837555
311,1438343232164,1.82584,0.38205,0.103165
312,1438343232184,1.80127,0.298737,0.0113068
313,1438343232206,1.62717,0.228241,-0.169205
314,1438343232224,1.39539,0.0722961,-0.243973
315,1438343232244,0.923279,0.0317078,-0.431961
316,1438343232264,0.632751,0.112885,-0.6082
317,1438343232284,0.797241,0.189789,-0.762009
318,1438343232304,0.878418,0.312622,-0.983109
319,1438343232323,1.00766,0.429047,-1.13264
320,1438343232341,1.25119,0.582855,-1.20955
321,1438343232363,1.4285,0.730255,-1.21809
322,1438343232381,1.5524,0.814636,-1.15187
323,1438343232405,1.66989,0.85202,-1.04079
324,1438343232423,1.78738,0.913971,-0.893387
325,1438343232442,1.96255,1.02078,-0.692581
326,1438343232462,2.22104,1.12973,-0.462936
327,1438343232480,2.39194,1.11584,-0.25145
328,1438343232503,2.30862,1.01865,-0.0677338
329,1438343232521,1.99887,0.845612,0.0807342
330,1438343232542,1.50861,0.684326,0.186478
331,1438343232561,0.924347,0.530518,0.246292
332,1438343232581,0.348633,0.338257,0.252701
333,1438343232602,-0.0262756,0.204742,0.234543
334,1438343232621,-0.1427,0.20047,0.20784
335,1438343232641,-0.111725,0.151337,0.130936
336,1438343232660,-0.109589,0.0701599,0.0294647
337,1438343232681,-0.247375,0.00714111,-0.0634613
338,1438343232702,-0.487701,-0.0633545,-0.137161
339,1438343232720,-0.722687,-0.124237,-0.175613
340,1438343232740,-0.927765,-0.18512,-0.189499
341,1438343232760,-1.02069,-0.221436,-0.180954
342,1438343232780,-0.930969,-0.238525,-0.155319
343,1438343232801,-0.686371,-0.200073,-0.110458
344,1438343232820,-0.334961,-0.131714,-0.0591888
345,1438343232838,0.0388794,-0.0804443,-0.00578308
346,1438343232859,0.277069,-0.0825806,0.0497589
347,1438343232879,0.256775,-0.135986,0.118118
348,1438343232901,0.0730591,-0.246002,0.209976
349,1438343232918,-0.271942,-0.398743,0.29863
350,1438343232940,-0.662872,-0.583527,0.348831
351,1438343232958,-0.952332,-0.710632,0.346695
352,1438343232978,-1.08585,-0.698883,0.347763
353,1438343232998,-1.13498,-0.57605,0.404373
354,1438343233018,-1.12643,-0.441467,0.544296
355,1438343233038,-1.13818,-0.473511,0.68956
356,1438343233057,-1.18839,-0.648682,0.758987
357,1438343233078,-1.04526,-0.577118,0.828415
358,1438343233097,-0.501587,-0.15094,0.926682
359,1438343233117,0.0292664,0.329712,0.952316
360,1438343233140,0.0559692,0.550812,0.863663
361,1438343233156,0.425537,0.405548,0.705582
362,1438343233177,1.19458,0.127838,0.490891
363,1438343233196,1.0867,0.182312,0.333878
364,1438343233216,1.2608,0.133179,0.193954
365,1438343233239,1.87177,0.147064,0.169388
366,1438343233254,2.26804,0.202606,0.227066
367,1438343233276,2.1687,0.188721,0.282608
368,1438343233294,1.69339,0.0680237,0.300766
369,1438343233315,1.13904,-0.102875,0.261246
370,1438343233336,0.701111,-0.153076,0.158707
371,1438343233355,0.440491,-0.0419922,0.0198517
372,1438343233374,0.433014,0.132111,-0.119003
373,1438343233395,0.593231,0.338257,-0.263199
374,1438343233415,0.93396,0.515564,-0.389236
375,1438343233437,1.35693,0.5914,-0.45546
376,1438343233455,1.73077,0.56897,-0.488571
377,1438343233474,1.96576,0.55188,-0.502457
378,1438343233494,2.06723,0.564697,-0.499252
379,1438343233514,2.11957,0.596741,-0.473618
380,1438343233536,2.15802,0.605286,-0.442642
381,1438343233554,2.13666,0.565765,-0.39885
382,1438343233572,1.98285,0.429047,-0.360397
383,1438343233593,1.64746,0.215424,-0.348648
384,1438343233612,1.14331,0.0263672,-0.359329
385,1438343233636,0.507782,-0.0569458,-0.40419
386,1438343233653,-0.214264,-0.0355835,-0.483231
387,1438343233673,-0.877564,0.0285034,-0.575089
388,1438343233692,-1.29947,0.0658875,-0.658401
389,1438343233711,-1.4458,0.164154,-0.697922
390,1438343233736,-1.25034,0.317963,-0.712875
391,1438343233751,-0.7323,0.497406,-0.707535
392,1438343233772,-0.0924988,0.654419,-0.703262
393,1438343233792,0.481079,0.72171,-0.707535
394,1438343233810,0.873077,0.678986,-0.73317
395,1438343233834,0.872009,0.611694,-0.763077
396,1438343233850,0.804718,0.458954,-0.80687
397,1438343233871,0.732086,0.343597,-0.882706
398,1438343233890,0.551575,0.261353,-0.963882
399,1438343233910,0.465057,0.154541,-1.02797
400,1438343233931,0.499237,0.0701599,-1.06535
401,1438343233951,0.500305,0.0349121,-1.06963
402,1438343233969,0.544098,0.0146179,-1.07176
403,1438343233990,0.615662,0.0829773,-1.08992
404,1438343234009,0.722473,0.260284,-1.09847
405,1438343234031,0.874146,0.469635,-1.08351
406,1438343234049,1.02261,0.656555,-1.05681
407,1438343234069,1.10272,0.805023,-1.00981
408,1438343234087,1.15613,0.909698,-0.93718
409,1438343234109,1.20633,0.972717,-0.833572
410,1438343234132,1.21594,0.967377,-0.725693
411,1438343234149,1.18604,0.923584,-0.594315
412,1438343234167,1.15399,0.933197,-0.409531
413,1438343234189,1.11874,1.01224,-0.131821
414,1438343234207,1.05679,1.08701,0.261246
415,1438343234231,0.959595,1.10944,0.658585
416,1438343234247,0.910461,0.859497,0.890366
417,1438343234268,1.19565,0.5177,0.878616
418,1438343234288,1.77243,0.480316,0.610519
419,1438343234307,2.2926,0.83493,0.249496
420,1438343234328,2.43893,1.12332,-0.198044
421,1438343234346,2.07471,0.936401,-0.565475
422,1438343234370,1.55667,0.752686,-0.673355
423,1438343234386,1.24799,0.717438,-0.599655
424,1438343234407,1.12836,0.687531,-0.440506
425,1438343234427,1.0899,0.629852,-0.285629
