id,attr_time,attr_x,attr_y,attr_z
1,1436985153420,-0.14844051,10.087969,-0.9983821
2,1436985153442,-0.073621705,10.068815,-0.9552865
3,1436985153457,-0.09935937,10.034698,-1.0660183
4,1436985153479,-0.142455,10.029311,-1.0570401
5,1436985153501,-0.14604631,10.093356,-1.0354922
6,1436985153521,-0.12569559,10.063428,-1.06123
7,1436985153541,-0.05686229,10.081385,-1.0301052
8,1436985153560,-0.060453594,10.037092,-1.0103531
9,1436985153580,-0.034715924,10.081385,-0.9696517
10,1436985153632,0.0077811554,10.059837,-0.9552865
11,1436985153633,0.08798691,10.056845,-0.9403227
12,1436985153645,0.060453594,10.088568,-0.95109665
13,1436985153656,0.04189853,10.113108,-0.9391256
14,1436985153682,-0.019752163,10.109517,-0.94690675
15,1436985153697,-0.021547815,10.081984,-0.94331545
16,1436985153719,-0.091578215,10.0269165,-0.99060094
17,1436985153738,-0.11552023,10.031705,-1.0372878
18,1436985153759,-0.1340753,10.061034,-1.021127
19,1436985153777,-0.1412579,10.073005,-1.0073603
20,1436985153800,-0.12449849,10.070611,-1.0229226
21,1436985153820,-0.11851298,10.071808,-0.9995792
22,1436985153837,-0.053869538,10.077793,-0.9540894
23,1436985153860,-0.029927522,10.05864,-0.96426475
24,1436985153880,0.002992752,10.096349,-0.961272
25,1436985153900,0.029927522,10.081984,-0.9091981
26,1436985153920,0.032920275,10.101137,-0.8774749
27,1436985153940,-0.005985504,10.065823,-0.9091981
28,1436985153960,0.0077811554,10.055049,-0.9498995
29,1436985153980,-0.05207389,10.049063,-0.97623575
30,1436985153999,-0.061650693,10.065823,-0.9516952
31,1436985154044,-0.0700304,10.067019,-0.9840169
32,1436985154045,-0.05626374,10.064626,-0.95708215
33,1436985154058,-0.047285482,10.0664215,-0.93852705
34,1436985154077,-0.020949265,10.087969,-0.92535895
35,1436985154097,-0.033518825,10.062231,-0.91937345
36,1436985154123,-0.02932897,10.079589,-0.91219085
37,1436985154143,-0.02873042,10.09156,-0.9091981
38,1436985154163,-0.025737667,10.093954,-0.89303726
39,1436985154180,-0.08738836,10.086173,-0.90740246
40,1436985154198,-0.074818805,10.06283,-0.92296475
41,1436985154217,-0.0796072,10.070611,-0.9624691
42,1436985154237,-0.08080431,10.070611,-0.9540894
43,1436985154260,-0.065242,10.068815,-0.9403227
44,1436985154278,-0.089184016,10.079589,-0.92655605
45,1436985154341,-0.074818805,10.070611,-0.92296475
46,1436985154342,-0.06943185,10.094553,-0.9516952
47,1436985154343,-0.091578215,10.069414,-0.943914
48,1436985154369,-0.11731588,10.096947,-0.9271546
49,1436985154377,-0.05746084,10.08737,-0.88405895
50,1436985154399,-0.08259996,10.092158,-0.93852705
51,1436985154418,-0.09756372,10.052056,-0.91817635
52,1436985154438,-0.07182605,10.102334,-0.92895025
53,1436985154458,-0.11432313,10.070611,-0.9307459
54,1436985154513,-0.094570965,10.081984,-0.91458505
55,1436985154514,-0.093373865,10.087969,-0.9427169
56,1436985154519,-0.06823475,10.074203,-0.89064306
57,1436985154537,-0.0724246,10.089166,-0.88944596
58,1436985154557,-0.047285482,10.090961,-0.89423436
59,1436985154578,-0.031124622,10.09156,-0.85054016
60,1436985154597,-0.12449849,10.092158,-0.8936358
61,1436985154617,-0.1388637,10.06283,-0.90740246
62,1436985154638,-0.11432313,10.0825815,-0.92535895
63,1436985154658,-0.1340753,10.05864,-0.9343372
64,1436985154678,-0.15322891,10.064626,-0.96067345
65,1436985154698,-0.18614918,10.065823,-0.9403227
66,1436985154718,-0.13706805,10.064027,-0.95827925
67,1436985154738,-0.12928689,10.068216,-0.9498995
68,1436985154767,-0.091578215,10.056845,-0.92057055
69,1436985154781,-0.06943185,10.107122,-0.9008184
70,1436985154798,-0.004189853,10.101735,-0.86610246
71,1436985154818,-0.032920275,10.095152,-0.88405895
72,1436985154836,0.0077811554,10.119094,-0.86490536
73,1436985154860,-0.023942016,10.085575,-0.8319851
74,1436985154878,-0.05865794,10.062231,-0.87208796
75,1436985154900,-0.090979666,10.06283,-0.87927055
76,1436985154918,-0.11851298,10.076596,-0.89902276
77,1436985154938,-0.11851298,10.0825815,-0.89902276
78,1436985154961,-0.15801731,10.0748005,-0.93254155
79,1436985154982,-0.14963761,10.053851,-0.9163807
80,1436985155001,-0.10295067,10.08318,-0.92775315
81,1436985155018,-0.09995792,10.067618,-0.8870517
82,1436985155037,-0.08439561,10.073604,-0.86011696
83,1436985155061,-0.03172317,10.086173,-0.86490536
84,1436985155077,-0.0023942017,10.102334,-0.8810662
85,1436985155097,-0.01616086,10.099341,-0.8194155
86,1436985155117,-0.025139118,10.064027,-0.8403648
87,1436985155139,-0.0023942017,10.08318,-0.8206126
88,1436985155162,-0.11731588,10.070611,-0.90859956
89,1436985155178,-0.15442601,10.06283,-0.9343372
90,1436985155202,-0.16759412,10.053253,-0.93254155
91,1436985155218,-0.13946225,10.0748005,-0.9528923
92,1436985155241,-0.12749124,10.080787,-0.90979666
93,1436985155262,-0.12030864,10.086173,-0.8738836
94,1436985155277,-0.05207389,10.077793,-0.8870517
95,1436985155302,-0.049081136,10.099341,-0.8643068
96,1436985155322,-0.04249708,10.105926,-0.8702923
97,1436985155342,-0.01436521,10.087969,-0.8750807
98,1436985155363,-0.018555064,10.097546,-0.8643068
99,1436985155379,-0.046088383,10.078991,-0.8726865
100,1436985155400,-0.055066638,10.08318,-0.87089086
101,1436985155420,-0.076015905,10.075998,-0.90261406
102,1436985155442,-0.089184016,10.069414,-0.90261406
103,1436985155460,-0.095169514,10.085575,-0.92535895
104,1436985155479,-0.11611878,10.068815,-0.8948329
105,1436985155499,-0.09756372,10.08737,-0.9187749
106,1436985155524,-0.079008654,10.0987425,-0.9211691
107,1436985155544,-0.093373865,10.101735,-0.87807345
108,1436985155564,-0.109534726,10.062231,-0.87807345
109,1436985155582,-0.092176765,10.09156,-0.8798691
110,1436985155599,-0.090979666,10.075998,-0.90141696
111,1436985155618,-0.092775315,10.073604,-0.8738836
112,1436985155640,-0.077213004,10.092757,-0.87208796
113,1436985155660,-0.110731825,10.092757,-0.86849666
114,1436985155680,-0.11911154,10.08737,-0.92416185
115,1436985155752,-0.15682021,10.045472,-0.8858546
116,1436985155753,-0.12689269,10.08318,-0.9235633
117,1436985155754,-0.12808979,10.075399,-0.9163807
118,1436985155760,-0.092775315,10.0748005,-0.8888474
119,1436985155779,-0.08439561,10.075998,-0.92775315
120,1436985155799,-0.08439561,10.092158,-0.88944596
121,1436985155821,-0.0676362,10.10413,-0.88765025
122,1436985155839,-0.049081136,10.08318,-0.8858546
123,1436985155861,-0.09756372,10.068815,-0.8738836
124,1436985155879,-0.026934769,10.080188,-0.878672
125,1436985155899,-0.090381116,10.081385,-0.91338795
126,1436985155925,-0.04129998,10.1161,-0.8559271
127,1436985155939,-0.065242,10.067618,-0.8834604
128,1436985155963,-0.06703765,10.067618,-0.8810662
129,1436985155979,-0.04369418,10.089765,-0.87448215
130,1436985156002,-0.061052144,10.080787,-0.866701
131,1436985156022,-0.07182605,10.076596,-0.87208796
132,1436985156042,-0.08080431,10.0825815,-0.8888474
133,1436985156062,-0.08379706,10.070611,-0.8822633
134,1436985156082,-0.08499416,10.0748005,-0.8900445
135,1436985156102,-0.08439561,10.093356,-0.9139865
136,1436985156122,-0.10235212,10.073604,-0.86370826
137,1436985156143,-0.11492168,10.075399,-0.88645315
138,1436985156160,-0.088585466,10.09994,-0.8750807
139,1436985156182,-0.077213004,10.074203,-0.87328506
140,1436985156204,-0.0676362,10.08737,-0.8655039
141,1436985156224,-0.089782566,10.074203,-0.86969376
142,1436985156244,-0.10115502,10.070012,-0.8391677
143,1436985156262,-0.050876785,10.075998,-0.9115923
144,1436985156280,-0.0712275,10.10413,-0.8655039
145,1436985156299,-0.11192893,10.068815,-0.87448215
146,1436985156321,-0.044292733,10.101137,-0.8762778
147,1436985156344,-0.08499416,10.068216,-0.8810662
148,1436985156369,-0.053869538,10.075998,-0.8559271
149,1436985156386,-0.06703765,10.096349,-0.878672
150,1436985156401,-0.061650693,10.06283,-0.83976626
151,1436985156511,-0.049679685,10.065823,-0.8631097
152,1436985156512,0.002992752,10.076596,-0.86370826
153,1436985156513,0.029927522,10.077195,-0.85173726
154,1436985156514,0.008978256,10.092757,-0.8678981
155,1436985156515,-0.011971008,10.067019,-0.8690952
156,1436985156525,-0.020350715,10.07121,-0.8714894
157,1436985156539,-0.01616086,10.099341,-0.8343793
158,1436985156560,-0.017956512,10.101735,-0.8655039
159,1436985156580,-0.02873042,10.070611,-0.89064306
160,1436985156605,0.0011971008,10.064626,-0.8643068
161,1436985156621,0.011971008,10.0825815,-0.85413146
162,1436985156641,0.038307227,10.061034,-0.86490536
163,1436985156660,0.03232172,10.064027,-0.8523358
164,1436985156681,0.036511578,10.081984,-0.8283938
165,1436985156700,0.018555064,10.08737,-0.8343793
166,1436985156723,0.027533319,10.075399,-0.82121116
167,1436985156743,0.014963761,10.067019,-0.8643068
168,1436985156763,0.019752163,10.077195,-0.85054016
169,1436985156783,0.017956512,10.064027,-0.866701
170,1436985156803,-0.004189853,10.073005,-0.86490536
171,1436985156823,-0.035913024,10.094553,-0.85293436
172,1436985156843,-0.031124622,10.097546,-0.84575176
173,1436985156863,-0.06584055,10.073604,-0.86969376
174,1436985156883,-0.05746084,10.096349,-0.89902276
175,1436985156901,-0.038905777,10.088568,-0.86849666
176,1436985156922,-0.054468088,10.090961,-0.88286185
177,1436985156943,-0.061052144,10.069414,-0.8678981
178,1436985156960,-0.04369418,10.113707,-0.8523358
179,1436985156980,-0.036511578,10.075399,-0.8888474
180,1436985157000,-0.033518825,10.075399,-0.87807345
181,1436985157025,-0.037708677,10.071808,-0.85473
182,1436985157046,-0.031124622,10.0903635,-0.8559271
183,1436985157066,-0.05865794,10.092158,-0.8810662
184,1436985157083,-0.05805939,10.097546,-0.9008184
185,1436985157101,-0.0676362,10.077195,-0.87208796
186,1436985157121,-0.050278235,10.081984,-0.88765025
187,1436985157140,-0.037110128,10.077793,-0.88645315
188,1436985157162,-0.023343466,10.089765,-0.8900445
189,1436985157185,-0.038307227,10.0825815,-0.89184016
190,1436985157253,-0.02873042,10.099341,-0.8511387
191,1436985157254,-0.035314474,10.101735,-0.8702923
192,1436985157255,-0.030526072,10.0748005,-0.8750807
193,1436985157263,-0.045489833,10.084377,-0.87328506
194,1436985157280,-0.061052144,10.108319,-0.86969376
195,1436985157332,-0.04189853,10.113707,-0.85054016
196,1436985157333,-0.04249708,10.068815,-0.8924387
197,1436985157340,-0.04129998,10.067019,-0.88525605
198,1436985157365,-0.031124622,10.094553,-0.86969376
199,1436985157392,-0.037708677,10.096947,-0.86370826
200,1436985157401,-0.046088383,10.107122,-0.85473
201,1436985157422,-0.07182605,10.068216,-0.90620536
202,1436985157442,-0.08379706,10.094553,-0.89064306
203,1436985157461,-0.06943185,10.087969,-0.90620536
204,1436985157484,-0.0712275,10.08737,-0.878672
205,1436985157504,-0.08200141,10.087969,-0.8655039
206,1436985157524,-0.07062895,10.102334,-0.88046765
207,1436985157544,-0.073023155,10.063428,-0.8774749
208,1436985157564,-0.08678981,10.0903635,-0.8948329
209,1436985157584,-0.094570965,10.073005,-0.8726865
210,1436985157602,-0.0688333,10.104729,-0.87927055
211,1436985157623,-0.089782566,10.059837,-0.89303726
212,1436985157644,-0.09935937,10.0748005,-0.8858546
213,1436985157661,-0.078410104,10.077793,-0.91099375
214,1436985157680,-0.08798691,10.0748005,-0.8810662
215,1436985157700,-0.049679685,10.119692,-0.8936358
216,1436985157726,-0.1364695,10.050261,-0.85891986
217,1436985157746,-0.0664391,10.092158,-0.87567925
218,1436985157767,-0.109534726,10.076596,-0.878672
219,1436985157785,-0.050876785,10.081385,-0.87448215
220,1436985157801,-0.0688333,10.073005,-0.8846575
221,1436985157821,-0.08379706,10.086173,-0.88765025
222,1436985157842,-0.08678981,10.094553,-0.8810662
223,1436985157862,-0.036511578,10.113707,-0.8714894
224,1436985157883,-0.07182605,10.065823,-0.8858546
225,1436985157945,-0.109534726,10.08318,-0.8870517
226,1436985157946,-0.093373865,10.070012,-0.8822633
227,1436985157947,-0.06943185,10.0748005,-0.87567925
228,1436985157961,-0.093972415,10.081984,-0.8870517
229,1436985158014,-0.04189853,10.102334,-0.8535329
230,1436985158015,-0.06584055,10.092158,-0.8655039
231,1436985158021,-0.060453594,10.077793,-0.8810662
232,1436985158042,-0.05925649,10.089166,-0.89303726
233,1436985158062,-0.073621705,10.0664215,-0.87208796
234,1436985158081,-0.090979666,10.088568,-0.8726865
235,1436985158104,-0.049081136,10.0825815,-0.89184016
236,1436985158124,-0.06584055,10.089166,-0.88166475
237,1436985158142,-0.045489833,10.075399,-0.8882488
238,1436985158164,-0.06823475,10.09994,-0.90740246
239,1436985158184,-0.090381116,10.074203,-0.9020155
240,1436985158204,-0.090979666,10.08737,-0.8972271
241,1436985158224,-0.073023155,10.071808,-0.88645315
242,1436985158250,-0.089782566,10.068216,-0.87208796
243,1436985158261,-0.10175357,10.08318,-0.9175778
244,1436985158283,-0.09995792,10.083779,-0.8690952
245,1436985158305,-0.051475335,10.089166,-0.8726865
246,1436985158322,-0.073023155,10.078392,-0.8948329
247,1436985158344,-0.044891283,10.094553,-0.8678981
248,1436985158362,-0.049679685,10.073005,-0.8798691
249,1436985158383,-0.062249243,10.079589,-0.8882488
250,1436985158402,-0.12210429,10.081385,-0.8810662
251,1436985158423,-0.090381116,10.0903635,-0.87448215
252,1436985158441,-0.08439561,10.09156,-0.90261406
253,1436985158463,-0.08439561,10.081984,-0.9103952
254,1436985158484,-0.08020575,10.067618,-0.9091981
255,1436985158501,-0.089782566,10.075399,-0.8888474
256,1436985158522,-0.049679685,10.096349,-0.88166475
257,1436985158541,-0.05626374,10.070611,-0.88405895
258,1436985158563,-0.03232172,10.078392,-0.8631097
259,1436985158586,-0.06823475,10.078392,-0.8900445
260,1436985158634,-0.074220255,10.081385,-0.90021986
261,1436985158635,-0.079008654,10.080787,-0.89662856
262,1436985158650,-0.08559271,10.093954,-0.89902276
263,1436985158663,-0.054468088,10.08318,-0.8888474
264,1436985158686,-0.055066638,10.092757,-0.9056068
265,1436985158702,-0.054468088,10.069414,-0.85652566
266,1436985158722,-0.036511578,10.092158,-0.866701
267,1436985158747,-0.06464344,10.086772,-0.85413146
268,1436985158764,-0.04129998,10.089166,-0.8750807
269,1436985158783,-0.061650693,10.092757,-0.8798691
270,1436985158803,-0.055066638,10.088568,-0.8972271
271,1436985158825,-0.062249243,10.073005,-0.8774749
272,1436985158843,-0.073621705,10.067618,-0.9115923
273,1436985158865,-0.04129998,10.074203,-0.88944596
274,1436985158884,-0.08020575,10.102334,-0.8996213
275,1436985158904,-0.094570965,10.081984,-0.908001
276,1436985158924,-0.073023155,10.084976,-0.89782566
277,1436985158944,-0.05566519,10.085575,-0.8936358
278,1436985158965,-0.06464344,10.053851,-0.9008184
279,1436985158984,-0.050278235,10.096947,-0.89603
280,1436985159004,-0.10235212,10.07121,-0.931943
281,1436985159022,-0.08140286,10.073005,-0.9056068
282,1436985159044,-0.08559271,10.078392,-0.9091981
283,1436985159065,-0.095768064,10.086772,-0.9103952
284,1436985159084,-0.108337626,10.081385,-0.9187749
285,1436985159104,-0.10295067,10.078392,-0.89184016
286,1436985159125,-0.093373865,10.06283,-0.89662856
287,1436985159143,-0.048482586,10.08318,-0.8972271
288,1436985159163,-0.08678981,10.07121,-0.9163807
289,1436985159185,-0.11252748,10.063428,-0.91697925
290,1436985159204,-0.12449849,10.061034,-0.9307459
291,1436985159225,-0.10474633,10.089166,-0.9139865
292,1436985159244,-0.1376666,10.070611,-0.9463082
293,1436985159263,-0.1412579,10.065823,-0.91937345
294,1436985159289,-0.1388637,10.078991,-0.90620536
295,1436985159356,-0.1376666,10.08318,-0.93134445
296,1436985159357,-0.15322891,10.08318,-0.92296475
297,1436985159358,-0.16101007,10.062231,-0.96426475
298,1436985159369,-0.17238252,10.074203,-0.9415198
299,1436985159384,-0.16460137,10.0748005,-0.91219085
300,1436985159423,-0.13946225,10.047267,-0.91937345
301,1436985159424,-0.110731825,10.081984,-0.94570965
302,1436985159442,-0.091578215,10.0748005,-0.9223662
303,1436985159496,-0.10235212,10.107122,-0.9091981
304,1436985159497,-0.110731825,10.073005,-0.86251116
305,1436985159503,-0.10055647,10.096947,-0.86131406
306,1436985159536,-0.109534726,10.044873,-0.8655039
307,1436985159546,-0.060453594,10.070611,-0.9139865
308,1436985159562,-0.08678981,10.067019,-0.92655605
309,1436985159584,-0.0688333,10.062231,-0.919972
310,1436985159604,-0.17776948,10.047866,-0.9576807
311,1436985159624,-0.17238252,10.070611,-0.9151836
312,1436985159644,-0.20949265,10.099341,-0.95229375
313,1436985159666,-0.26994625,10.065224,-0.9744401
314,1436985159686,-0.21308395,10.095152,-0.9463082
315,1436985159706,-0.12749124,10.067019,-0.96067345
316,1436985159726,-0.15502456,10.089166,-0.9660604
317,1436985159745,-0.092775315,10.080787,-0.943914
318,1436985159763,-0.11492168,10.06283,-0.91458505
319,1436985159786,-0.13587095,10.081385,-0.9367314
320,1436985159803,-0.10654198,10.068815,-0.9103952
321,1436985159822,-0.077213004,10.04607,-0.9648633
322,1436985159843,-0.16400282,10.118495,-0.97503865
323,1436985159863,-0.12150574,10.078991,-0.96785605
324,1436985159884,-0.13946225,10.079589,-0.96306765
325,1436985159904,-0.20530279,10.046669,-0.9900024
326,1436985159923,-0.17178397,10.049063,-0.97384155
327,1436985159943,-0.20590134,10.09156,-1.0247183
328,1436985159964,-0.19692309,10.038888,-0.98700964
329,1436985159984,-0.23104046,10.094553,-1.0019734
330,1436985160004,-0.30645782,10.102334,-1.0271125
331,1436985160028,-0.28311434,10.059837,-1.0055647
332,1436985160094,-0.29807812,10.073005,-1.0193313
333,1436985160095,-0.29209262,10.065224,-1.0498575
334,1436985160096,-0.24660277,10.04607,-1.0426749
335,1436985160103,-0.27234045,10.068216,-1.0498575
336,1436985160131,-0.23104046,10.065823,-1.0378864
337,1436985160144,-0.2825158,10.039486,-1.0702082
338,1436985160163,-0.21188685,10.068216,-1.0319009
339,1436985160184,-0.22924481,10.020931,-1.0474633
340,1436985160204,-0.26874915,10.055647,-1.0390835
341,1436985160225,-0.27114335,10.051457,-1.0378864
342,1436985160244,-0.18794483,10.058042,-0.9959879
343,1436985160264,-0.20709845,10.070012,-1.0169371
344,1436985160284,-0.20410569,10.068216,-1.0013748
345,1436985160306,-0.12090719,10.101735,-0.95229375
346,1436985160326,-0.12030864,10.113108,-0.93014735
347,1436985160353,-0.092775315,10.077793,-0.908001
348,1436985160364,-0.12868834,10.070012,-0.94570965
349,1436985160386,-0.16938977,10.102933,-0.9708488
350,1436985160406,-0.15322891,10.09156,-0.9463082
351,1436985160426,-0.2088941,10.062231,-0.9792285
352,1436985160446,-0.2801216,10.062231,-0.97264445
353,1436985160466,-0.2220622,10.08737,-0.9720459
354,1436985160486,-0.22565351,10.076596,-0.9923966
355,1436985160506,-0.23882163,10.060435,-0.9672575
356,1436985160531,-0.2184709,10.07121,-0.94690675
357,1436985160549,-0.24660277,10.06283,-0.92895025
358,1436985160567,-0.24839842,10.065224,-0.96067345
359,1436985160592,-0.22445641,10.077195,-0.94211835
360,1436985160608,-0.23403321,10.077793,-0.9684546
361,1436985160629,-0.21667525,10.069414,-0.85413146
362,1436985160644,-0.24720132,10.084976,-0.91817635
363,1436985160666,-0.20231004,10.070611,-0.84575176
364,1436985160684,-0.20051439,10.072407,-0.84575176
365,1436985160706,-0.17417817,10.075399,-0.85652566
366,1436985160724,-0.26755205,10.089765,-0.9151836
367,1436985160792,-0.24301147,10.07121,-0.83018947
368,1436985160793,-0.31064767,10.073604,-0.9187749
369,1436985160794,-0.17836803,10.09575,-0.8451532
370,1436985160815,-0.2220622,10.072407,-0.9103952
371,1436985160823,-0.2160767,10.079589,-0.85413146
372,1436985160847,-0.219668,10.073604,-0.80804306
373,1436985160865,-0.20470424,10.081385,-0.79726917
374,1436985160884,-0.19273324,10.107721,-0.8182184
375,1436985160909,-0.18076223,10.09156,-0.8283938
376,1436985160924,-0.22026655,10.05864,-0.8074445
377,1436985160947,-0.26755205,10.08318,-0.88166475
378,1436985160970,-0.18136078,10.07121,-0.85293436
379,1436985160984,-0.1592144,10.058042,-0.8122329
380,1436985161004,-0.18555063,10.101137,-0.825401
381,1436985161025,-0.20649989,10.072407,-0.8463503
382,1436985161047,-0.2148796,10.068815,-0.81642276
383,1436985161065,-0.17477672,10.0987425,-0.8206126
384,1436985161087,-0.18794483,10.0903635,-0.84575176
385,1436985161107,-0.20590134,10.059837,-0.83856916
386,1436985161127,-0.22266077,10.074203,-0.81163436
387,1436985161147,-0.24420857,10.075399,-0.830788
388,1436985161165,-0.22864626,10.067618,-0.8182184
389,1436985161187,-0.21308395,10.058042,-0.7990648
