id,attr_time,attr_x,attr_y,attr_z
1,1436985153403,-0.8379706,10.302849,-1.01574
2,1436985153423,-0.9391256,10.18254,-1.01574
3,1436985153441,-0.91937345,10.078991,-0.96665895
4,1436985153463,-0.717662,10.127473,-0.9792285
5,1436985153482,-0.41479546,10.107721,-0.84694886
6,1436985153501,-0.059855044,10.1065235,-0.7044938
7,1436985153522,0.107739076,10.123283,-0.6823475
8,1436985153544,0.038905777,10.08318,-0.6572084
9,1436985153564,-0.18375498,10.138845,-0.7152678
10,1436985153585,-0.40761283,10.205883,-0.8206126
11,1436985153603,-0.64942724,10.245388,-0.88525605
12,1436985153621,-0.84934306,10.203489,-0.8924387
13,1436985153641,-0.87448215,10.111312,-0.8559271
14,1436985153662,-0.79367787,10.084377,-0.82001406
15,1436985153682,-0.5398925,10.081984,-0.78170687
16,1436985153700,-0.3333926,10.0825815,-0.801459
17,1436985153757,-0.19393034,10.038888,-0.760159
18,1436985153758,-0.1316811,9.940127,-0.64463884
19,1436985153776,-0.1364695,9.97604,-0.60812724
20,1436985153781,-0.22505496,10.15381,-0.770933
21,1436985153802,-0.40402153,10.220248,-0.8870517
22,1436985153821,-0.6356605,10.276512,-0.9175778
23,1436985153841,-0.89064306,10.329185,-0.97025025
24,1436985153865,-1.0600328,10.28549,-1.0019734
25,1436985153881,-0.97503865,10.259753,-0.97623575
26,1436985153902,-0.6793547,10.200497,-0.90859956
27,1436985153921,-0.33279404,10.121488,-0.75237787
28,1436985153942,-0.04070143,10.09156,-0.6799533
29,1436985153964,0.08619126,9.9951935,-0.57400984
30,1436985153984,0.14903906,9.886257,-0.5434838
31,1436985154004,0.035913024,9.928156,-0.6380547
32,1436985154052,-0.25677812,10.087969,-0.7428011
33,1436985154053,-0.60812724,10.20289,-0.85054016
34,1436985154063,-0.92416185,10.287885,-0.94331545
35,1436985154082,-1.0893618,10.304645,-0.9720459
36,1436985154102,-1.3186066,10.2657385,-1.0109516
37,1436985154125,-1.3204023,10.163984,-1.0151415
38,1436985154144,-0.9828198,10.075399,-0.9403227
39,1436985154162,-0.5069722,10.067618,-0.86251116
40,1436985154184,-0.06464344,10.092757,-0.7727286
41,1436985154204,0.23942018,10.11251,-0.705691
42,1436985154224,0.27832595,10.09994,-0.688333
43,1436985154244,0.092775315,10.002377,-0.7224504
44,1436985154263,-0.25977087,10.006566,-0.7697359
45,1436985154283,-0.6392518,10.152014,-0.86251116
46,1436985154304,-0.95708215,10.254965,-0.9624691
47,1436985154325,-1.1719618,10.317214,-1.0301052
48,1436985154344,-1.3359646,10.316615,-1.079785
49,1436985154364,-1.3676877,10.243592,-1.1246762
50,1436985154383,-1.1288661,10.245986,-1.1192893
51,1436985154402,-0.6931214,10.19092,-1.0265139
52,1436985154421,-0.18974048,10.051457,-0.8230068
53,1436985154444,0.2148796,10.050261,-0.7326257
54,1436985154496,0.33518824,10.105926,-0.7044938
55,1436985154497,0.23104046,9.994595,-0.717662
56,1436985154511,0.077811554,9.892841,-0.7140707
57,1436985154521,-0.12150574,9.967062,-0.8230068
58,1436985154546,-0.362123,10.150218,-0.92296475
59,1436985154562,-0.5907693,10.240001,-0.98700964
60,1436985154582,-0.83617496,10.228029,-0.98102415
61,1436985154603,-0.98700964,10.229825,-0.98940384
62,1436985154622,-0.9600749,10.206482,-0.9660604
63,1436985154643,-0.7433996,10.148422,-0.9415198
64,1436985154662,-0.44951138,10.088568,-0.85652566
65,1436985154684,-0.23463176,10.086173,-0.81163436
66,1436985154701,-0.11851298,10.016742,-0.78410107
67,1436985154724,-0.08259996,10.025121,-0.7870938
68,1436985154744,-0.107140526,10.089166,-0.82001406
69,1436985154764,-0.15083471,10.132261,-0.8487445
70,1436985154784,-0.25498247,10.151415,-0.8948329
71,1436985154804,-0.40102878,10.093356,-0.86131406
72,1436985154824,-0.52492875,10.115502,-0.83737206
73,1436985154844,-0.54288524,10.110714,-0.93373865
74,1436985154864,-0.49919105,10.134656,-0.973243
75,1436985154882,-0.39743748,10.099341,-0.89782566
76,1436985154905,-0.34835634,10.078991,-0.80445176
77,1436985154924,-0.34237084,10.140042,-0.80086046
78,1436985154945,-0.44592008,10.128671,-0.82899237
79,1436985154964,-0.58298814,10.156802,-0.83856916
80,1436985154985,-0.7188591,10.220248,-0.8714894
81,1436985155004,-0.7194576,10.226234,-0.90859956
82,1436985155024,-0.61650693,10.166379,-0.8074445
83,1436985155044,-0.4842273,10.078392,-0.7092823
84,1436985155065,-0.43035775,10.065224,-0.6937199
85,1436985155083,-0.43394905,10.039486,-0.6919243
86,1436985155105,-0.43514615,10.040684,-0.7374141
87,1436985155122,-0.4357447,10.028113,-0.7781156
88,1436985155149,-0.49440265,10.0987425,-0.7739257
89,1436985155205,-0.5506664,10.1226845,-0.7320272
90,1436985155217,-0.5746084,10.125079,-0.75118077
91,1436985155218,-0.61770403,10.14124,-0.79487497
92,1436985155224,-0.6266823,10.181343,-0.7673417
93,1436985155242,-0.56802434,10.114903,-0.74878657
94,1436985155262,-0.42556936,10.068216,-0.7882909
95,1436985155282,-0.32321724,10.069414,-0.84216046
96,1436985155302,-0.24301147,10.047866,-0.82001406
97,1436985155333,-0.20709845,10.120291,-0.7930793
98,1436985155342,-0.32202014,10.184934,-0.8002619
99,1436985155363,-0.51834464,10.197504,-0.8451532
100,1436985155383,-0.6596026,10.199898,-0.85054016
101,1436985155406,-0.7404069,10.155605,-0.88166475
102,1436985155426,-0.7398083,10.152014,-0.9391256
103,1436985155445,-0.7080852,10.228628,-0.9588778
104,1436985155465,-0.6434417,10.152014,-0.9343372
105,1436985155485,-0.5398925,10.072407,-0.8822633
106,1436985155505,-0.4902128,10.098145,-0.87448215
107,1436985155525,-0.5069722,10.133459,-0.89423436
108,1436985155545,-0.4854244,10.144831,-0.87807345
109,1436985155565,-0.46866497,10.174759,-0.8391677
110,1436985155585,-0.51714754,10.256162,-0.88405895
111,1436985155602,-0.57879823,10.232818,-0.9091981
112,1436985155625,-0.5722142,10.190321,-0.90740246
113,1436985155645,-0.5518635,10.166379,-0.91219085
114,1436985155665,-0.52732295,10.119094,-0.8912416
115,1436985155686,-0.45968673,10.126276,-0.90500826
116,1436985155704,-0.41240123,10.144831,-0.908001
117,1436985155727,-0.3633201,10.132261,-0.8888474
118,1436985155746,-0.30107087,10.134656,-0.8535329
119,1436985155766,-0.2681506,10.1544075,-0.85473
120,1436985155785,-0.31244332,10.159795,-0.85772276
121,1436985155805,-0.33877954,10.123283,-0.81642276
122,1436985155823,-0.40761283,10.161591,-0.81283146
123,1436985155844,-0.49919105,10.128671,-0.830788
124,1436985155863,-0.5069722,10.110115,-0.8319851
125,1436985155883,-0.49200845,10.119094,-0.8367735
126,1436985155936,-0.4902128,10.201694,-0.8499416
127,1436985155937,-0.5590461,10.168175,-0.8391677
128,1436985155954,-0.587178,10.055647,-0.7918822
129,1436985155962,-0.5327099,10.007165,-0.7990648
130,1436985155982,-0.39264908,10.013748,-0.7428011
131,1436985156003,-0.2088941,10.013748,-0.7140707
132,1436985156022,-0.108936176,10.068216,-0.7344214
133,1436985156045,-0.108337626,10.063428,-0.75836337
134,1436985156062,-0.13826515,10.06283,-0.74639237
135,1436985156083,-0.1933318,10.052654,-0.7457938
136,1436985156108,-0.20649989,10.093954,-0.7978677
137,1436985156123,-0.2896984,10.105926,-0.866701
138,1436985156144,-0.41120413,10.146626,-0.89303726
139,1436985156166,-0.47524905,10.172364,-0.8595184
140,1436985156186,-0.52732295,10.119692,-0.84814596
141,1436985156206,-0.58777654,10.187328,-0.85532856
142,1436985156226,-0.6859388,10.139444,-0.85772276
143,1436985156246,-0.7308301,10.10413,-0.8984242
144,1436985156266,-0.7308301,10.142437,-0.9504981
145,1436985156286,-0.7020996,10.146626,-0.95468795
146,1436985156306,-0.62249243,10.166379,-0.96067345
147,1436985156326,-0.56982,10.200497,-0.92895025
148,1436985156343,-0.5722142,10.189722,-0.88645315
149,1436985156366,-0.62368953,10.148422,-0.8367735
150,1436985156387,-0.64942724,10.158598,-0.82001406
151,1436985156402,-0.717662,10.131663,-0.8702923
152,1436985156423,-0.7224504,10.123882,-0.8535329
153,1436985156446,-0.7344214,10.131064,-0.8583213
154,1436985156465,-0.74519527,10.089765,-0.8403648
155,1436985156486,-0.7445967,10.075399,-0.84575176
156,1436985156520,-0.6925228,10.157401,-0.8631097
157,1436985156523,-0.6500258,10.220248,-0.89662856
158,1436985156543,-0.6745663,10.185533,-0.86370826
159,1436985156563,-0.75477207,10.119692,-0.84934306
160,1436985156583,-0.8206126,10.121488,-0.8415619
161,1436985156603,-0.78410107,10.135853,-0.842759
162,1436985156623,-0.7260417,10.090961,-0.85413146
163,1436985156650,-0.6937199,10.079589,-0.82121116
164,1436985156665,-0.6775591,10.065823,-0.82360536
165,1436985156683,-0.6206968,10.089166,-0.81283146
166,1436985156703,-0.56563014,10.150218,-0.76554596
167,1436985156723,-0.60453594,10.184934,-0.7649474
168,1436985156743,-0.6596026,10.142437,-0.8295909
169,1436985156774,-0.6991069,10.120889,-0.82240826
170,1436985156794,-0.7086837,10.096947,-0.79128367
171,1436985156803,-0.6392518,10.03769,-0.80804306
172,1436985156823,-0.5859809,10.040684,-0.8972271
173,1436985156843,-0.5363012,10.05445,-0.8924387
174,1436985156864,-0.4201824,10.039486,-0.78170687
175,1436985156883,-0.22565351,10.067618,-0.7398083
176,1436985156903,-0.18195933,10.089166,-0.7038953
177,1436985156923,-0.32561144,10.089765,-0.7284359
178,1436985156943,-0.4818331,10.097546,-0.7164649
179,1436985156963,-0.581791,10.064027,-0.7505822
180,1436985156984,-0.6955156,10.19092,-0.81402856
181,1436985157003,-0.9008184,10.152014,-0.83258367
182,1436985157026,-0.98461545,10.097546,-0.80564886
183,1436985157044,-0.93134445,10.074203,-0.8242039
184,1436985157064,-0.7404069,10.050261,-0.81343
185,1436985157084,-0.55006784,10.062231,-0.7589619
186,1436985157104,-0.39624038,10.135254,-0.6859388
187,1436985157123,-0.50278234,10.140641,-0.7068881
188,1436985157143,-0.76195467,10.126276,-0.8265981
189,1436985157166,-0.997185,10.164583,-0.8912416
190,1436985157186,-1.0049661,10.166978,-0.93972415
191,1436985157206,-0.94810385,10.170568,-0.8996213
192,1436985157225,-0.9247604,10.150817,-0.86729956
193,1436985157243,-0.8996213,10.13286,-0.8822633
194,1436985157264,-0.8218097,10.110115,-0.89064306
195,1436985157284,-0.6889315,10.094553,-0.86969376
196,1436985157303,-0.6476316,10.1382475,-0.85652566
197,1436985157334,-0.62488663,10.144233,-0.86849666
198,1436985157347,-0.5943606,10.1143055,-0.82001406
199,1436985157363,-0.5674258,10.092757,-0.760159
200,1436985157383,-0.60693014,10.086173,-0.7739257
201,1436985157405,-0.7182605,10.0903635,-0.80325466
202,1436985157424,-0.748188,10.063428,-0.82001406
203,1436985157444,-0.7278373,10.06283,-0.830788
204,1436985157463,-0.6925228,10.108319,-0.8415619
205,1436985157486,-0.705691,10.131064,-0.87089086
206,1436985157507,-0.7356185,10.15381,-0.8858546
207,1436985157527,-0.7044938,10.142437,-0.878672
208,1436985157545,-0.6715736,10.123882,-0.8218097
209,1436985157566,-0.6907272,10.120889,-0.83378077
210,1436985157586,-0.7098808,10.098145,-0.81343
211,1436985157607,-0.7260417,10.043676,-0.80564886
212,1436985157627,-0.6584055,10.0664215,-0.8523358
213,1436985157647,-0.5919664,10.126875,-0.93014735
214,1436985157667,-0.599149,10.128671,-0.87208796
215,1436985157689,-0.6631939,10.104729,-0.8702923
216,1436985157707,-0.7990648,10.118495,-0.8571242
217,1436985157729,-0.90261406,10.171766,-0.86849666
218,1436985157746,-0.8870517,10.14543,-0.8218097
219,1436985157767,-0.79367787,10.071808,-0.79008657
220,1436985157786,-0.7188591,10.092158,-0.8379706
221,1436985157808,-0.66498953,10.10413,-0.84335756
222,1436985157826,-0.53211135,10.031107,-0.7799112
223,1436985157848,-0.3824737,10.095152,-0.8738836
224,1436985157868,-0.41299978,10.126276,-0.9091981
225,1436985157884,-0.47405192,10.1065235,-0.8750807
226,1436985157905,-0.55725044,10.117896,-0.86849666
227,1436985157925,-0.6841431,10.146626,-0.8355764
228,1436985157951,-0.92296475,10.155006,-0.9187749
229,1436985158000,-1.0965444,10.116699,-0.9295488
230,1436985158001,-1.1737574,10.105926,-1.0372878
231,1436985158009,-1.1378443,10.094553,-1.06123
232,1436985158034,-1.050456,10.071808,-1.0426749
233,1436985158044,-0.9211691,10.064626,-0.95349085
234,1436985158064,-0.7727286,10.103531,-0.89782566
235,1436985158084,-0.6362591,10.09994,-0.84455466
236,1436985158104,-0.57281274,10.09994,-0.81402856
237,1436985158138,-0.56203884,10.08737,-0.81522566
238,1436985158144,-0.6326678,10.075399,-0.81163436
239,1436985158164,-0.74639237,10.070012,-0.8738836
240,1436985158187,-0.86849666,10.081984,-0.9211691
241,1436985158204,-0.9624691,10.076596,-0.9367314
242,1436985158224,-1.0031705,10.086772,-0.9283517
243,1436985158246,-0.9888053,10.102933,-0.9415198
244,1436985158268,-0.92416185,10.087969,-0.91458505
245,1436985158288,-0.86011696,10.109517,-0.8984242
246,1436985158308,-0.866701,10.1161,-0.91817635
247,1436985158326,-0.8283938,10.094553,-0.91578215
248,1436985158346,-0.7757214,10.094553,-0.9056068
249,1436985158366,-0.7457938,10.160992,-0.96067345
250,1436985158388,-0.79487497,10.110714,-0.90500826
251,1436985158405,-0.7721301,10.001179,-0.8331822
252,1436985158425,-0.7793127,10.02153,-0.85652566
253,1436985158448,-0.8403648,10.061633,-0.88525605
254,1436985158466,-0.82599956,10.015544,-0.83617496
255,1436985158486,-0.79128367,10.048465,-0.7954735
256,1436985158506,-0.8882488,10.080188,-0.84335756
257,1436985158527,-0.93014735,10.107122,-0.86849666
258,1436985158548,-0.83737206,10.113707,-0.84814596
259,1436985158566,-0.7344214,10.046669,-0.830788
260,1436985158588,-0.717662,10.156203,-0.89782566
261,1436985158606,-0.8170213,10.238205,-0.79487497
262,1436985158627,-0.8463503,10.257359,-0.682946
263,1436985158646,-0.8858546,10.261548,-0.9127894
264,1436985158667,-1.0720038,10.372879,-0.97144735
265,1436985158689,-1.3180081,10.433931,-0.95588505
266,1436985158746,-1.4682442,10.405201,-1.0720038
267,1436985158757,-1.4508862,10.305841,-1.2084733
268,1436985158758,-1.4257472,10.24419,-1.2252327
269,1436985158767,-0.9888053,10.526108,-0.87328506
270,1436985158790,-0.7278373,10.4728365,-0.76195467
271,1436985158807,-0.3357868,10.149021,-0.43873745
272,1436985158826,0.0676362,9.863512,-0.06943185
273,1436985158848,0.17836803,9.69951,-0.21787235
274,1436985158871,-0.17477672,9.786898,-0.51834464
275,1436985158885,-0.5686229,9.894038,-0.760159
276,1436985158908,-0.86011696,9.868899,-0.8834604
277,1436985158928,-1.0073603,9.815628,-0.85473
278,1436985158945,-1.2378023,9.734824,-0.8062474
279,1436985158966,-1.3377602,9.894038,-0.7445967
280,1436985158988,-1.4137762,10.239402,-0.78649527
281,1436985159008,-1.5514427,10.331579,-0.78649527
282,1436985159026,-1.4287399,10.274118,-0.676362
283,1436985159048,-1.2042835,10.144233,-0.5722142
284,1436985159068,-1.0995371,10.044873,-0.5494693
285,1436985159087,-0.9331401,10.075998,-0.6302736
286,1436985159106,-0.7314286,9.941324,-0.6290765
287,1436985159129,-0.46866497,9.901819,-0.6584055
288,1436985159145,-0.30226797,9.958682,-0.65780693
289,1436985159168,-0.25977087,10.229227,-0.670975
290,1436985159189,-0.50278234,10.4728365,-0.7428011
291,1436985159205,-0.7308301,10.304645,-0.7098808
292,1436985159225,-0.87807345,10.078392,-0.6003461
293,1436985159246,-1.0654198,10.05445,-0.59735334
294,1436985159272,-1.2354081,10.210671,-0.8050503
295,1436985159286,-1.2372037,10.18254,-0.89902276
296,1436985159312,-1.0205284,9.982624,-0.79726917
297,1436985159329,-0.83497787,9.965266,-0.66618663
298,1436985159345,-0.7290344,10.077195,-0.6769605
299,1436985159366,-0.74639237,10.096349,-0.7954735
300,1436985159385,-0.75956047,10.032902,-0.65900403
301,1436985159407,-0.6955156,10.010158,-0.44711718
302,1436985159430,-0.7080852,10.022727,-0.45908818
303,1436985159502,-0.7649474,10.0269165,-0.6003461
304,1436985159504,-0.8379706,10.093954,-0.664391
305,1436985159506,-0.7751228,10.429143,-0.7990648
306,1436985159507,-0.7433996,10.573992,-0.6991069
307,1436985159526,-0.7074866,10.559627,-0.37229836
308,1436985159547,-0.7954735,10.564415,-0.14185645
309,1436985159566,-0.9983821,10.594941,0.049081136
310,1436985159591,-1.2036849,10.6637745,0.02932897
311,1436985159606,-1.3581109,10.632051,-0.04129998
312,1436985159626,-1.4335283,10.579379,0.0017956513
313,1436985159647,-1.5221137,10.575788,0.14425065
314,1436985159667,-1.6675615,10.398617,0.3333926
315,1436985159689,-1.6280571,10.38066,0.6302736
316,1436985159709,-1.525705,10.445902,0.8086416
317,1436985159726,-1.4927847,10.602123,0.8870517
318,1436985159748,-1.6190789,10.468048,0.9175778
319,1436985159769,-1.7142484,10.372879,1.1833342
320,1436985159788,-1.7465701,10.581773,1.3676877
321,1436985159808,-1.9488802,10.4010105,1.4041992
322,1436985159827,-2.1877017,10.175357,1.5245079
323,1436985159849,-2.327164,10.136452,1.6927006
324,1436985159875,-2.6030958,10.035895,1.8106151
325,1436985159890,-2.8856115,9.7958765,1.8531121
326,1436985159909,-3.1842883,9.609727,1.8896236
327,1436985159929,-3.4159272,9.500193,2.0278888
328,1436985159949,-3.5464113,9.495404,2.106299
329,1436985159969,-3.7421372,9.417592,2.184709
330,1436985159989,-3.8259344,9.388862,2.1517887
331,1436985160009,-3.8510735,9.057863,2.4019828
332,1436985160029,-3.7056258,8.671799,2.8401217
333,1436985160049,-3.7612908,8.520964,2.9406781
334,1436985160070,-4.1276035,8.535928,2.6617537
335,1436985160090,-4.4819455,8.388684,2.5222914
336,1436985160110,-4.7261543,8.073847,2.6246436
337,1436985160129,-4.823119,7.9667063,2.7401638
338,1436985160151,-4.9063177,7.7614036,2.8814218
339,1436985160207,-4.9757495,7.6027875,2.8802247
340,1436985160219,-5.1355624,7.44896,2.7808652
341,1436985160220,-5.3528366,7.3591776,2.7994204
342,1436985160229,-5.4617724,7.32925,2.949058
343,1436985160246,-5.41329,7.3328414,3.2082303
344,1436985160268,-5.415086,7.309498,3.3159695
345,1436985160286,-5.5581393,7.2382703,3.3476925
346,1436985160308,-5.7400985,6.9958572,3.3997664
347,1436985160327,-5.725135,6.950966,3.3123782
348,1436985160350,-5.752668,6.96174,3.318962
349,1436985160366,-5.8262897,6.881534,3.4662056
350,1436985160390,-5.819107,6.8162923,3.5093012
351,1436985160406,-5.903503,6.7845693,3.4662056
352,1436985160429,-5.9801173,6.695385,3.4165258
353,1436985160450,-6.002862,6.5990186,3.4231098
354,1436985160469,-6.010045,6.593033,3.4524388
355,1436985160490,-6.030994,6.5152216,3.4344823
356,1436985160510,-6.0728927,6.4326215,3.430891
357,1436985160529,-6.1141925,6.5020533,3.4614172
358,1436985160550,-6.085462,6.517017,3.4853592
359,1436985160571,-6.0758853,6.405088,3.4560301
360,1436985160587,-6.103419,6.3913217,3.4871547
361,1436985160607,-6.130952,6.5643024,3.6170402
362,1436985160631,-6.113594,6.673837,3.6619315
363,1436985160647,-6.1542954,6.7486563,3.558981
364,1436985160668,-6.2404866,6.7743936,3.5110967
365,1436985160687,-6.2901664,6.8049197,3.5356374
366,1436985160710,-6.1746464,6.8982935,3.5643678
367,1436985160731,-6.0303955,6.995259,3.6164417
368,1436985160749,-5.8945246,6.9120603,3.5685577
369,1436985160770,-5.7664347,6.8085113,3.570952
370,1436985160788,-5.66109,6.71394,3.5613751
371,1436985160813,-5.2768207,6.6427126,3.5009215
372,1436985160832,-5.1277814,6.8438253,3.3075895
373,1436985160850,-5.415086,6.8569937,3.4159272
374,1436985160955,-5.8987145,6.9904704,3.4769795
375,1436985160956,-6.229713,7.037756,3.1591492
376,1436985160957,-6.5804634,7.165247,2.9095535
377,1436985160958,-6.9611416,7.3220673,2.8646624
378,1436985160959,-7.3226657,7.398083,2.8048072
379,1436985160972,-7.4591355,7.7614036,2.8898015
380,1436985160987,-7.21373,7.824251,3.2333694
381,1436985161008,-6.463746,7.6865845,3.638588
382,1436985161027,-5.5886655,7.6111674,4.027047
383,1436985161048,-4.751293,7.506421,4.211401
384,1436985161067,-3.9270895,7.7105265,4.572925
385,1436985161090,-3.268684,8.118738,4.9482164
386,1436985161107,-2.9245174,8.331821,5.195418
387,1436985161130,-2.759916,8.428188,5.3821654
388,1436985161151,-2.779668,8.7370405,5.3025584
389,1436985161171,-2.710835,8.7532015,5.2498856
390,1436985161190,-2.5528176,8.541913,5.2061915
391,1436985161211,-2.5480292,8.46051,5.055357
392,1436985161230,-2.5959132,8.546103,4.8817773
393,1436985161251,-2.4259248,8.330625,4.844667
394,1436985161271,-1.8674773,7.976283,4.9428296
395,1436985161290,-1.2006922,8.234857,4.9506106
396,1436985161311,-0.5931635,8.404246,5.0559554
397,1436985161328,-0.04369418,8.506598,5.2929816
398,1436985161351,0.34237084,8.774749,5.378574
399,1436985161371,0.5398925,8.871715,5.4091
400,1436985161388,0.6925228,8.846576,5.477335
401,1436985161407,0.64942724,8.890269,5.571307
