id,attr_time,attr_x,attr_y,attr_z
1,1436168796305,-0.027533319,9.977836,1.7950528
2,1436168796324,-0.16101007,10.0341,1.7046716
3,1436168796344,-0.3405752,10.100538,1.6693572
4,1436168796364,-0.41000703,10.113707,1.638831
5,1436168796384,-0.3716998,10.1460285,1.5999253
6,1436168796404,-0.24361002,10.140042,1.6352397
7,1436168796424,-0.046686932,10.079589,1.7591397
8,1436168796444,0.05207389,10.004171,1.8632874
9,1436168796464,-0.05566519,10.040684,1.7232267
10,1436168796484,-0.16819267,10.171766,1.726818
11,1436168796504,-0.36032736,10.325593,1.6831238
12,1436168796524,-0.30825347,9.943718,1.6190789
13,1436168796544,-0.15023616,10.068815,1.5071499
14,1436168796564,-0.16101007,9.877279,1.8004397
15,1436168796584,-0.091578215,9.9712515,1.7411832
16,1436168796604,-0.06284779,10.166379,1.6645688
17,1436168796624,-0.15442601,10.212467,1.7082629
18,1436168796644,-0.3226187,10.195109,1.5490485
19,1436168796664,-0.3776853,10.212467,1.5215151
20,1436168796684,-0.2789245,10.105926,1.6591818
21,1436168796704,-0.16759412,10.04607,1.79206
22,1436168796727,-0.15322891,10.018537,1.7465701
23,1436168796745,-0.25617957,10.031107,1.6154876
24,1436168796766,-0.31783026,10.089765,1.5933412
25,1436168796786,-0.25857377,10.1304655,1.6825253
26,1436168796806,-0.21547815,10.09156,1.7286136
27,1436168796826,-0.2220622,10.01315,1.6968905
28,1436168796857,-0.2669535,9.940725,1.6226702
29,1436168796875,-0.31124622,10.001778,1.6675615
30,1436168796885,-0.31543607,10.074203,1.6124948
31,1436168796907,-0.338181,10.386047,1.6753427
32,1436168796932,-0.36631286,10.098145,1.697489
33,1436168796947,-0.16998832,10.084377,1.5646108
34,1436168796966,-0.12928689,10.040085,1.6232687
35,1436168796986,-0.08020575,9.998785,1.797447
36,1436168797007,-0.045489833,10.078991,1.666963
37,1436168797029,-0.09756372,10.119094,1.6334441
38,1436168797047,-0.2633622,10.116699,1.543063
39,1436168797067,-0.29029694,10.180744,1.4496891
40,1436168797089,-0.22325931,10.196306,1.6005238
41,1436168797108,-0.15981296,10.163386,1.7447745
42,1436168797129,-0.16579847,10.11251,1.7615339
43,1436168797148,-0.29388827,10.072407,1.6867151
44,1436168797167,-0.3878607,10.078991,1.6591818
45,1436168797186,-0.49320555,10.09994,1.6196774
46,1436168797206,-0.47764325,10.074203,1.6358383
47,1436168797226,-0.41838676,10.102334,1.6591818
48,1436168797256,-0.3453636,10.065224,1.6897079
49,1436168797313,-0.2908955,10.038888,1.685518
50,1436168797314,-0.27473465,10.046669,1.6376339
51,1436168797315,-0.28191724,10.068815,1.5855601
52,1436168797334,-0.3357868,10.368091,1.6915035
53,1436168797346,-0.33039984,10.047267,1.6226702
54,1436168797380,-0.20290859,10.022128,1.4257472
55,1436168797388,-0.17597382,9.986216,1.4850036
56,1436168797407,-0.095169514,9.954493,1.7232267
57,1436168797428,-0.024540568,10.101137,1.6142905
58,1436168797448,-0.08020575,10.158598,1.6400281
59,1436168797469,-0.24600422,10.113108,1.6280571
60,1436168797487,-0.3669114,10.185533,1.4945804
61,1436168797506,-0.38606504,10.08318,1.54845
62,1436168797526,-0.29927522,10.1065235,1.6555905
63,1436168797547,-0.2148796,10.110115,1.7657237
64,1436168797572,-0.2801216,10.099341,1.7669208
65,1436168797590,-0.39564183,10.077195,1.6573862
66,1436168797612,-0.48482585,10.078991,1.5514427
67,1436168797627,-0.44951138,10.132261,1.5777789
68,1436168797647,-0.3309984,10.157401,1.6747441
69,1436168797666,-0.21906945,10.068216,1.6897079
70,1436168797686,-0.18974048,10.022727,1.6962919
71,1436168797709,-0.28191724,10.027515,1.5807717
72,1436168797772,-0.3788824,10.214862,1.6310499
73,1436168797773,-0.374094,10.314819,1.7196354
74,1436168797774,-0.207697,9.99639,1.6053122
75,1436168797793,-0.15622166,10.061633,1.4347254
76,1436168797820,-0.15083471,9.862315,1.6124948
77,1436168797828,-0.06284779,10.001179,1.6819267
78,1436168797848,-0.053869538,10.049662,1.6651673
79,1436168797868,-0.08020575,10.089166,1.6567876
80,1436168797887,-0.21547815,10.111312,1.5358804
81,1436168797906,-0.32202014,10.185533,1.3299791
82,1436168797933,-0.28550854,10.14543,1.5041572
83,1436168797954,-0.047884032,10.043676,1.6783354
84,1436168797971,0.02932897,9.943718,1.7753005
85,1436168797994,-0.15741876,9.928156,1.6256629
86,1436168798007,-0.3537433,9.994595,1.5089456
87,1436168798029,-0.3854665,10.077195,1.4903905
88,1436168798047,-0.25737667,10.139444,1.5915456
89,1436168798067,-0.1328782,10.139444,1.6843209
90,1436168798087,-0.035314474,10.005967,1.6759412
91,1436168798107,-0.09756372,9.993398,1.6543933
92,1436168798134,-0.16819267,10.02153,1.5711949
93,1436168798148,-0.2717419,10.184934,1.6071079
94,1436168798168,-0.28072014,10.411784,1.6400281
95,1436168798188,-0.16579847,9.904813,1.5227122
96,1436168798211,-0.01316811,10.059837,1.3796587
97,1436168798257,-0.040102877,9.979631,1.6244658
98,1436168798258,0.044891283,10.016143,1.7190368
99,1436168798274,0.022744916,10.050261,1.5388732
100,1436168798288,-0.142455,10.02153,1.6011224
101,1436168798307,-0.26156655,10.101735,1.412579
102,1436168798327,-0.25258827,10.23222,1.3784616
103,1436168798348,-0.07062895,10.201694,1.5699978
104,1436168798368,0.12030864,10.120291,1.7244238
105,1436168798390,0.08379706,10.025121,1.7405846
106,1436168798409,-0.1400608,10.08737,1.5987282
107,1436168798428,-0.36032736,10.131663,1.5568297
108,1436168798450,-0.3393781,10.105327,1.584363
109,1436168798470,-0.20949265,10.108319,1.5508442
110,1436168798490,-0.093972415,10.061633,1.5735891
111,1436168798509,0.006584055,10.036493,1.6011224
112,1436168798528,0.054468088,10.051457,1.6579847
113,1436168798550,0.020350715,10.069414,1.7088615
114,1436168798569,-0.09696517,10.125677,1.5921441
115,1436168798590,-0.17058687,10.505158,1.6160861
116,1436168798610,-0.13467385,9.972448,1.6460136
117,1436168798630,0.02932897,10.047267,1.4454993
118,1436168798650,-0.089782566,9.909002,1.5035586
119,1436168798669,0.038905777,9.931747,1.6352397
120,1436168798773,0.21308395,10.0987425,1.5167267
121,1436168798774,0.19692309,10.14124,1.6663644
122,1436168798775,-0.02813187,10.102334,1.6160861
123,1436168798776,-0.23163901,10.196306,1.3640964
124,1436168798777,-0.26635495,10.166379,1.3856442
125,1436168798788,-0.074220255,10.140042,1.5676036
126,1436168798808,0.11851298,10.086772,1.7621324
127,1436168798828,0.054468088,10.032902,1.7764976
128,1436168798850,-0.2124854,10.135853,1.6280571
129,1436168798872,-0.39025488,10.132261,1.5394717
130,1436168798894,-0.3393781,10.081984,1.5610195
131,1436168798910,-0.16819267,10.043077,1.6687586
132,1436168798929,-0.054468088,10.063428,1.7136499
133,1436168798947,0.006584055,10.078991,1.6753427
134,1436168798970,-0.01436521,10.043676,1.6184803
135,1436168798990,-0.10235212,10.141838,1.650802
136,1436168799010,-0.24660277,10.247183,1.7304093
137,1436168799031,-0.320823,9.9712515,1.6292542
138,1436168799051,-0.33159694,10.09575,1.3491327
139,1436168799071,-0.3693056,9.884461,1.6178818
140,1436168799092,-0.23104046,10.040684,1.6938977
141,1436168799111,-0.17058687,10.03769,1.7040731
142,1436168799131,-0.31064767,10.0664215,1.702876
143,1436168799151,-0.55365914,10.184336,1.477821
144,1436168799170,-0.7044938,10.31901,1.3958195
145,1436168799189,-0.7182605,10.213066,1.4389153
146,1436168799235,-0.6823475,10.190321,1.4670471
147,1436168799236,-0.59735334,10.1460285,1.5239093
148,1436168799255,-0.6434417,10.098145,1.5286977
149,1436168799270,-0.6440403,10.023924,1.5125369
150,1436168799289,-0.5506664,10.056845,1.4275428
151,1436168799308,-0.4441244,10.183737,1.3569138
152,1436168799332,-0.31184477,10.263943,1.2599486
153,1436168799350,-0.090381116,10.166379,1.3395559
154,1436168799376,0.08140286,10.109517,1.4766239
155,1436168799390,0.15442601,10.110714,1.4706384
156,1436168799409,0.017956512,10.041282,1.5532384
157,1436168799432,-0.17058687,10.304645,1.4281414
158,1436168799450,-0.11432313,10.126276,1.2485762
159,1436168799469,0.31304187,9.706094,1.3652935
160,1436168799488,0.6440403,10.052056,1.5753847
161,1436168799513,0.45549688,10.158598,1.5412674
162,1436168799535,0.16759412,10.060435,1.204882
163,1436168799553,0.3357868,10.089765,1.2108675
164,1436168799572,0.7715315,10.107721,1.4047978
165,1436168799588,1.2312182,9.9790325,2.1440077
166,1436168799609,1.8339585,10.819398,2.460641
167,1436168799628,1.7872716,10.991181,2.621651
168,1436168799650,1.5981296,10.810419,2.7724855
169,1436168799677,1.6196774,10.569203,2.9400797
170,1436168799763,1.7375919,10.573393,2.9759927
171,1436168799764,1.4790181,10.724827,2.7246015
172,1436168799768,1.2300211,10.657789,2.532467
173,1436168799769,1.2216414,9.955689,2.771887
174,1436168799770,1.5622166,9.329605,2.8634653
175,1436168799845,1.4413095,8.942942,2.7180176
176,1436168799846,1.3042414,8.932767,2.3708582
177,1436168799847,1.323395,9.021951,2.520496
178,1436168799848,1.3982137,8.88608,3.1016884
179,1436168799875,1.5598224,8.310274,3.6044707
180,1436168799891,1.6478093,8.2516165,3.50571
181,1436168799911,1.2114661,8.373122,3.1262288
182,1436168799935,0.25438392,7.792528,2.9831753
183,1436168799948,-0.107140526,7.3460093,2.9670146
184,1436168799969,-0.22146365,7.2514386,2.7563248
185,1436168799989,-0.26874915,7.0844426,2.6509798
186,1436168800009,-0.28191724,6.8982935,2.393603
187,1436168800034,-0.32142156,6.5762734,2.8257565
188,1436168800054,-0.04369418,6.827066,2.4313118
189,1436168800075,0.090979666,8.814852,2.1877017
190,1436168800092,0.33877954,12.130821,1.6741456
191,1436168800109,0.97623575,15.30254,1.1079168
192,1436168800129,2.2786815,19.18354,-0.06823475
193,1436168800149,3.4997244,19.608511,-1.2683283
194,1436168800172,5.6401405,19.608511,-1.1653777
195,1436168800190,8.156446,19.608511,-1.2677298
196,1436168800236,8.3312235,18.119917,-1.0564415
197,1436168800237,6.9826894,16.159065,-1.1288661
198,1436168800255,5.79337,14.366407,-1.122282
199,1436168800270,5.089474,11.92911,-0.52492875
200,1436168800290,4.5382094,8.867524,-0.055066638
201,1436168800309,4.1054573,6.251859,0.108337626
202,1436168800333,3.4374752,3.9151182,0.30825347
203,1436168800349,2.7210102,1.7699136,0.04189853
204,1436168800373,2.132635,-0.3537433,-0.60453594
205,1436168800391,1.7651252,-2.4582467,-1.1587936
206,1436168800409,1.6286557,-3.840898,-1.6998832
207,1436168800433,1.7884687,-4.3502645,-2.0482395
208,1436168800451,2.2331917,-5.016451,-4.395156
209,1436168800473,5.3618145,3.007716,-4.1078515
210,1436168800493,13.459004,19.608511,8.258799
211,1436168800512,14.672865,19.087175,5.149329
212,1436168800549,13.620015,19.608511,7.967903
213,1436168800550,6.835446,19.608511,5.1439424
214,1436168800570,4.657321,19.311033,4.957195
215,1436168800592,5.8238955,17.84219,5.6844335
216,1436168800609,7.21373,15.810111,5.940613
217,1436168800629,3.3452983,12.652758,4.177882
218,1436168800663,-1.6466122,9.746197,1.9524715
219,1436168800759,-4.4119153,5.905897,1.2521675
220,1436168800760,-5.471948,1.6783354,0.6242881
221,1436168800784,-5.1762643,-1.7782934,0.4357447
222,1436168800785,-4.5256395,-2.8568811,0.06464344
223,1436168800786,-4.350863,-1.5795746,-1.0163386
224,1436168800787,-5.254674,-0.6631939,-0.2160767
225,1436168800811,-5.2085857,-0.6721721,0.45010993
226,1436168800812,-4.6232033,-0.43634325,0.24361002
227,1436168800925,-3.0897174,4.1683054,2.9047651
228,1436168800926,4.559159,18.457499,1.8183962
229,1436168800927,4.7040076,19.608511,-0.6967127
230,1436168800928,3.6128504,19.608511,1.5777789
231,1436168800929,8.103774,19.608511,2.8113914
232,1436168800933,5.919065,19.608511,2.4528596
233,1436168800949,2.9694088,19.608511,0.14604631
234,1436168800970,5.565322,18.84476,2.1242554
235,1436168800989,6.7600284,12.216414,3.7774518
236,1436168801012,4.1413703,6.4906807,2.581548
237,1436168801030,1.4856021,1.3820529,0.23223756
238,1436168801050,0.5081693,-3.181894,-1.3748703
239,1436168801070,1.6729485,-5.6569,-2.2864625
240,1436168801093,3.8738184,-6.4565635,-2.5911248
241,1436168801114,6.1806316,-5.953781,-2.7742813
242,1436168801134,8.042722,-4.817134,-3.2489316
243,1436168801153,8.285135,-2.4265234,-3.9797618
244,1436168801169,8.58022,2.460641,-4.8787847
245,1436168801191,8.676587,12.088325,3.6613328
246,1436168801211,13.114839,19.608511,2.859874
247,1436168801232,11.6585655,19.608511,8.510789
248,1436168801252,8.99322,19.608511,8.495825
249,1436168801272,3.0873232,19.608511,8.476072
250,1436168801292,2.930503,19.608511,7.2364745
251,1436168801310,4.0078936,19.608511,6.508039
252,1436168801329,0.30526072,16.489466,5.2247467
253,1436168801350,-4.1359835,11.945271,2.9113493
254,1436168801373,-7.0048356,6.613982,2.0548236
255,1436168801389,-7.6602483,2.107496,1.5023615
256,1436168801410,-6.3045316,-0.016759412,1.3347675
257,1436168801429,-4.3993454,-0.7368156,1.4867992
258,1436168801453,-3.0963013,-0.78050977,1.4718355
259,1436168801490,-2.7736826,-0.9516952,1.2779051
260,1436168801491,-3.0921116,-1.525705,0.46746787
261,1436168801510,-3.5410242,-1.5167267,-0.4878186
262,1436168801530,-4.0276456,0.3609259,-1.1887212
263,1436168801551,-2.130241,9.324219,1.1546037
264,1436168801573,3.8325183,19.608511,0.40521863
265,1436168801592,4.4328647,19.608511,0.09935937
266,1436168801615,6.679224,19.608511,3.0184898
267,1436168801636,7.683592,19.608511,3.3201592
268,1436168801660,4.557363,19.608511,3.3327289
269,1436168801671,4.530428,19.608511,2.6635494
270,1436168801804,5.963358,17.461512,3.6739025
271,1436168801805,5.810129,12.603078,3.9336734
272,1436168801806,4.0827127,8.260594,2.6850972
273,1436168801807,2.6384103,4.175488,0.82121116
274,1436168801808,2.2122424,0.29867667,-0.10295067
275,1436168801832,2.5929205,-2.6192567,-0.53570265
276,1436168801833,3.2136173,-4.754286,-1.4616601
277,1436168801834,4.2102036,-6.105214,-2.678513
278,1436168801884,6.0022635,-6.564901,-4.2820296
279,1436168801885,8.036138,-4.4556093,-5.5766945
280,1436168801896,10.664372,2.5917234,-6.8330517
281,1436168802011,12.819753,9.986814,3.2800562
282,1436168802012,16.402676,18.741213,3.9953241
283,1436168802013,15.111603,19.608511,4.6513352
284,1436168802014,4.080917,19.608511,8.422203
285,1436168802015,0.83138657,19.608511,10.213664
286,1436168802016,5.4007206,19.608511,8.027759
287,1436168802029,5.5659204,19.608511,6.8049197
288,1436168802053,-0.107739076,16.971298,4.072537
289,1436168802073,-4.358644,12.867637,2.179322
290,1436168802093,-6.933608,8.109759,1.3748703
291,1436168802112,-7.6171527,3.4434607,0.9696517
292,1436168802130,-6.55293,0.57400984,0.57161564
293,1436168802152,-4.7644615,-0.7757214,0.52971715
294,1436168802173,-3.7241807,-1.3467385,0.51834464
295,1436168802213,-3.651756,-2.0961237,0.038307227
296,1436168802214,-3.9294837,-3.0532057,-0.99778354
297,1436168802231,-4.9536033,-3.2674868,-1.4957775
298,1436168802250,-5.8909335,-1.934515,-1.2180501
299,1436168802273,-5.5383873,1.4544775,-1.3772645
300,1436168802293,-1.5885528,10.805631,-1.3790601
301,1436168802312,3.50152,19.608511,-0.87567925
302,1436168802331,-1.8028339,19.608511,1.0007763
303,1436168802350,0.33159694,19.608511,3.3530796
304,1436168802374,2.9604304,19.608511,6.0118403
305,1436168802393,1.2593501,19.608511,7.0395517
306,1436168802414,2.508525,19.608511,3.894169
307,1436168802434,5.829881,16.448166,3.371036
308,1436168802454,4.9583917,9.572019,3.2315738
309,1436168802474,2.6509798,4.1718965,0.6368576
310,1436168802494,1.1617863,-0.6560113,-1.4736311
311,1436168802514,1.46585,-4.0096893,-2.6402059
312,1436168802534,3.3147724,-5.2259436,-3.5942953
313,1436168802554,5.8203044,-4.969764,-4.4783545
314,1436168802574,8.206126,-3.2507274,-4.8404775
315,1436168802594,9.309854,-1.168969,-4.377199
316,1436168802614,9.185953,-0.62368953,-4.803367
317,1436168802641,8.965088,-0.20949265,-5.57849
318,1436168802654,8.610746,3.5990837,-0.7086837
319,1436168802673,13.918692,18.714876,4.3382936
320,1436168802691,7.216124,19.608511,3.323152
321,1436168802715,2.6264393,19.608511,10.46745
322,1436168802731,0.28191724,19.608511,10.851719
323,1436168802753,2.4863784,19.608511,7.1083846
324,1436168802772,4.8560395,19.469648,7.1550717
325,1436168802791,0.44651863,14.461576,5.0421886
326,1436168802814,-4.2640734,10.70687,1.7723078
327,1436168802837,-6.8246717,7.101202,0.15442601
328,1436168802851,-7.8811135,2.9903579,-0.6937199
329,1436168802872,-6.7785835,-0.36152446,-0.9403227
330,1436168802895,-4.23654,-1.5735891,-0.85652566
331,1436168802912,-2.7234044,-1.6041151,-0.6171055
332,1436168802931,-2.1517887,-1.8381484,-0.30406362
333,1436168802951,-2.926313,-2.219425,-0.2777274
334,1436168802977,-4.578911,-2.4253263,-0.973243
335,1436168802998,-6.143522,-1.0696096,-1.1575965
336,1436168803018,-5.9741316,4.2957964,-0.6326678
337,1436168803035,0.107140526,18.63946,-1.2318168
338,1436168803056,2.0207062,19.608511,-0.8331822
339,1436168803116,2.1086931,19.608511,2.1589713
340,1436168803117,3.217807,19.608511,3.3183637
341,1436168803118,2.783858,19.608511,6.2285156
342,1436168803141,1.2180501,19.608511,3.6044707
343,1436168803154,5.993884,19.535488,2.3092074
344,1436168803182,6.166865,13.308768,2.3900118
345,1436168803195,3.6230257,6.4146647,0.39803603
346,1436168803218,1.9231426,0.533907,-1.5269021
347,1436168803233,2.2391772,-3.2369606,-2.493561
348,1436168803254,3.82773,-5.283405,-3.2010477
349,1436168803274,5.5401826,-6.3805475,-3.8193502
350,1436168803295,6.881534,-6.3045316,-4.2143936
351,1436168803313,7.0862384,-5.6724625,-3.879804
352,1436168803333,6.7725983,-3.003526,-3.90614
353,1436168803353,6.497265,0.12569559,-5.4162827
354,1436168803377,6.70975,4.3538556,-6.545149
355,1436168803398,7.466318,8.696339,5.430648
356,1436168803414,16.540941,19.608511,4.7417164
357,1436168803435,7.3100963,19.608511,7.4567413
358,1436168803453,2.8700492,19.608511,11.521497
359,1436168803473,3.9546227,19.608511,8.79929
360,1436168803493,4.3795934,19.608511,7.2861543
361,1436168803513,1.3910311,15.7736,6.645107
362,1436168803588,-3.4500446,11.918935,3.3871968
363,1436168803589,-6.554127,7.66384,1.3323733
364,1436168803590,-7.316082,4.006098,0.11731588
365,1436168803617,-6.395511,0.6356605,-0.29508537
366,1436168803618,-4.44304,-1.276708,-0.33758244
367,1436168803633,-3.105878,-1.489792,-0.27353755
368,1436168803660,-2.7700913,-1.9009962,-0.4189853
369,1436168803674,-3.5763388,-2.4504654,-0.047884032
370,1436168803698,-4.349666,-2.1410148,-0.50158525
371,1436168803717,-4.55856,-0.49081135,-0.96905315
372,1436168803734,-4.3185415,2.8921957,0.34596214
373,1436168803755,1.5304934,13.445837,1.1264719
374,1436168803777,4.7255554,19.608511,1.483208
375,1436168803792,-1.4197617,19.608511,1.0223241
376,1436168803813,0.2837129,19.608511,3.3135753
377,1436168803833,0.9816227,19.608511,5.486912
378,1436168803858,0.39803603,19.608511,5.023035
379,1436168803878,2.2014685,19.59714,3.5607765
380,1436168803899,3.957017,14.206594,3.8295257
381,1436168803916,3.2932243,8.838794,2.870648
382,1436168803934,1.9075803,3.9947255,-0.26276365
383,1436168803954,1.0552444,-0.27114335,-1.939902
384,1436168803974,2.0590134,-3.781043,-2.6240451
385,1436168803994,4.4621935,-6.479308,-3.110068
386,1436168804013,5.7365074,-7.45734,-3.4105403
387,1436168804059,7.965509,-8.000824,-3.5984852
388,1436168804060,9.348759,-5.639542,-3.3237505
389,1436168804080,9.064447,-0.87927055,-3.7792473
390,1436168804110,8.607155,5.1080294,-5.662287
391,1436168804112,9.345766,11.188704,1.9033904
392,1436168804133,15.951369,19.608511,5.835268
393,1436168804153,10.970232,19.608511,6.2021794
394,1436168804178,4.173094,19.608511,9.082404
395,1436168804198,1.0899603,19.246988,8.643666
396,1436168804213,3.5488055,18.341381,8.74542
397,1436168804234,2.3822308,17.190369,6.704962
398,1436168804253,-2.280477,13.89056,3.9360676
399,1436168804273,-5.263054,10.13705,1.8411411
400,1436168804295,-7.1903863,5.567716,0.89303726
401,1436168804314,-7.3873096,1.4730326,0.26276365
402,1436168804364,-5.813122,-1.567005,-0.08080431
403,1436168804365,-3.8540661,-2.6916811,0.30406362
404,1436168804375,-2.693477,-2.669535,0.26994625
405,1436168804395,-2.8365304,-2.5677812,-0.24121583
406,1436168804415,-4.1760864,-1.869273,-0.6488287
407,1436168804436,-5.0427876,-0.45549688,-1.377863
408,1436168804456,-5.322909,1.941099,-1.5011644
409,1436168804476,-3.4272997,9.879673,1.3150153
410,1436168804494,3.34051,19.608511,-0.81043726
411,1436168804515,-0.14844051,19.608511,0.7745243
