id,attr_time,attr_x,attr_y,attr_z
1,1436168796306,9.941324,-0.42078096,0.7164649
2,1436168796326,9.877279,-0.4441244,0.84694886
3,1436168796346,9.985018,-0.37110126,0.8882488
4,1436168796369,9.979631,-0.25079262,0.75596917
5,1436168796389,9.972448,-0.29927522,0.7565677
6,1436168796409,9.718663,-0.39983168,0.8810662
7,1436168796429,9.633669,-0.4225766,0.97982705
8,1436168796449,9.782708,-0.3890578,0.9684546
9,1436168796469,9.997588,-0.34356794,0.93014735
10,1436168796489,10.133459,-0.3693056,0.8678981
11,1436168796509,10.142437,-0.42078096,0.65182143
12,1436168796529,9.9928,-0.36272156,0.47524905
13,1436168796547,9.850345,-0.29807812,0.55605334
14,1436168796569,9.794081,-0.30107087,0.7158663
15,1436168796587,9.862914,-0.3286042,0.8738836
16,1436168796608,9.841965,-0.2861071,0.97264445
17,1436168796628,9.883265,-0.23163901,0.99060094
18,1436168796646,9.880871,-0.25139117,1.0534488
19,1436168796669,9.913192,-0.29688102,1.0079589
20,1436168796689,9.945514,-0.43873745,0.90021986
21,1436168796709,9.916184,-0.5189432,0.84096336
22,1436168796728,9.8515415,-0.2753332,0.89603
23,1436168796754,9.778519,-0.22744916,1.1480197
24,1436168796771,9.883265,-0.2621651,1.0402806
25,1436168796796,10.050261,-0.25019407,1.0911574
26,1436168796827,9.892242,-0.3788824,0.9804256
27,1436168796830,9.750386,-0.32022446,1.0456676
28,1436168796910,9.744401,-0.25438392,1.027711
29,1436168796911,9.838373,-0.31783026,1.0295067
30,1436168796912,9.956886,-0.4165911,1.0684125
31,1436168796913,9.987412,-0.41479546,1.0600328
32,1436168796928,9.980229,-0.3752911,0.99658644
33,1436168796951,9.930551,-0.3393781,0.94211835
34,1436168796966,9.829395,-0.38965634,0.99299514
35,1436168796986,9.791088,-0.4381389,1.0510546
36,1436168797019,9.854534,-0.47285482,1.0720038
37,1436168797027,9.929952,-0.37469256,1.0444705
38,1436168797048,9.916783,-0.32680854,1.0714053
39,1436168797067,9.84795,-0.35553896,1.1007342
40,1436168797088,9.855133,-0.41000703,0.96067345
41,1436168797109,9.932944,-0.46028528,0.89064306
42,1436168797130,9.892841,-0.36272156,0.98341835
43,1436168797149,9.941324,-0.33877954,0.88944596
44,1436168797167,9.817424,-0.43754035,1.0791864
45,1436168797190,9.956287,-0.3477578,0.9983821
46,1436168797210,9.974244,-0.28670564,0.9648633
47,1436168797229,9.854534,-0.2885013,0.9091981
48,1436168797249,9.619903,-0.4177882,0.8242039
49,1436168797267,9.722255,-0.46806642,0.83737206
50,1436168797290,9.964069,-0.39384618,0.97982705
51,1436168797307,10.038888,-0.26994625,0.97743285
52,1436168797330,9.915586,-0.27593175,0.9139865
53,1436168797347,9.779716,-0.374094,0.8607155
54,1436168797367,9.742006,-0.4758476,0.8834604
55,1436168797386,9.829395,-0.53330845,0.86011696
56,1436168797412,9.925163,-0.40641573,0.87089086
57,1436168797432,9.884461,-0.3585317,0.86131406
58,1436168797453,9.832388,-0.40701428,0.86131406
59,1436168797470,9.932944,-0.4345476,0.9959879
60,1436168797486,9.977836,-0.35434186,0.93134445
61,1436168797507,9.956886,-0.38187516,0.75716627
62,1436168797527,9.849746,-0.45848963,0.6572084
63,1436168797548,9.762358,-0.439336,0.7086837
64,1436168797567,9.932944,-0.3645172,0.7787141
65,1436168797622,9.892242,-0.45729253,1.1378443
66,1436168797623,9.968259,-0.34715924,0.91099375
67,1436168797640,10.060435,-0.28431144,0.866701
68,1436168797647,9.870096,-0.36870706,0.6997054
69,1436168797668,9.639654,-0.3788824,0.7757214
70,1436168797692,9.717466,-0.30286652,0.9103952
71,1436168797707,9.983223,-0.3286042,0.9840169
72,1436168797727,10.055647,-0.37349546,0.86011696
73,1436168797749,9.944916,-0.47225627,0.7350199
74,1436168797767,9.861118,-0.45190558,0.5746084
75,1436168797788,9.8683,-0.31783026,0.5746084
76,1436168797808,9.874287,-0.3196259,0.6841431
77,1436168797829,9.901819,-0.4141969,0.8110358
78,1436168797850,9.906608,-0.45250413,0.8158242
79,1436168797870,9.920973,-0.44352585,0.8295909
80,1436168797887,9.888053,-0.4141969,0.80684596
81,1436168797910,9.924564,-0.45669398,0.6757634
82,1436168797930,9.861717,-0.4369418,0.5291186
83,1436168797950,9.917382,-0.45070848,0.51116204
84,1436168797970,9.988011,-0.320823,0.6739678
85,1436168797987,10.075998,-0.20410569,0.66139823
86,1436168798009,9.968259,-0.34356794,0.7422025
87,1436168798027,9.842564,-0.38606504,0.6183026
88,1436168798049,9.952697,-0.38187516,0.6967127
89,1436168798070,9.932345,-0.4261679,0.55605334
90,1436168798088,9.792285,-0.3477578,0.6733692
91,1436168798107,9.755175,-0.31423897,0.6889315
92,1436168798128,9.884461,-0.39145198,0.6697779
93,1436168798152,9.943718,-0.45429978,0.61052144
94,1436168798172,10.070611,-0.48362875,0.5363012
95,1436168798193,10.02572,-0.44831428,0.47345337
96,1436168798210,9.783307,-0.3597288,0.44592008
97,1436168798227,9.737218,-0.30346507,0.45549688
98,1436168798247,9.973047,-0.39145198,0.599149
99,1436168798267,10.225037,-0.3812766,0.5746084
100,1436168798288,9.9928,-0.30346507,0.52732295
101,1436168798309,9.737817,-0.34237084,0.51834464
102,1436168798362,9.7863,-0.40521863,0.41718966
103,1436168798374,10.002377,-0.3800795,0.4141969
104,1436168798375,10.151415,-0.32202014,0.47046062
105,1436168798388,9.967062,-0.19393034,0.5518635
106,1436168798412,9.739014,-0.35553896,0.49440265
107,1436168798449,9.841366,-0.47405192,0.3824737
108,1436168798450,9.895236,-0.45370123,0.45070848
109,1436168798474,9.917382,-0.17298107,0.61650693
110,1436168798488,9.759963,-0.16340427,0.23044191
111,1436168798511,9.68275,-0.18555063,0.46686932
112,1436168798528,9.730036,-0.110133275,0.7428011
113,1436168798551,9.901221,0.023942016,0.6667852
114,1436168798612,10.049063,0.06344634,0.5943606
115,1436168798666,9.723452,-0.24540567,0.31423897
116,1436168798673,9.687539,-0.46627077,0.50876784
117,1436168798675,10.036493,-0.31783026,0.5919664
118,1436168798676,10.187328,-0.014963761,0.6087258
119,1436168798677,10.07121,0.06284779,0.6464345
120,1436168798688,9.931747,0.08140286,0.51355624
121,1436168798708,9.81922,-0.037110128,0.4237737
122,1436168798730,9.727641,-0.062249243,0.5638345
123,1436168798748,9.69532,-0.008379706,0.7703344
124,1436168798768,9.675568,0.036511578,0.80564886
125,1436168798788,9.636662,-0.02813187,0.7739257
126,1436168798811,9.733627,0.013766659,0.7918822
127,1436168798828,9.834782,-0.077811554,0.6655881
128,1436168798849,9.79827,-0.11731588,0.6087258
129,1436168798880,9.533711,0.04070143,0.41120413
130,1436168798888,9.390059,0.08140286,0.39683893
131,1436168798908,9.403227,-0.2717419,0.4866215
132,1436168798928,9.3104515,-0.6242881,0.40102878
133,1436168798950,9.306861,-0.973243,0.26994625
134,1436168798970,9.264363,-1.2114661,0.2124854
135,1436168798991,9.483433,-1.4425066,0.04249708
136,1436168799064,10.165182,-1.7950528,-0.10474633
137,1436168799065,10.66976,-1.7351977,0.20590134
138,1436168799066,10.301651,-1.1623849,0.6733692
139,1436168799089,10.038289,-0.9487024,0.985214
140,1436168799090,9.801263,-0.85891986,1.110311
141,1436168799108,10.314819,-0.7230489,1.002572
142,1436168799130,10.5291,-0.58418524,1.0779893
143,1436168799148,10.09156,-1.0708067,1.1198878
144,1436168799168,9.335591,-1.9189527,0.8726865
145,1436168799188,8.723274,-2.1841104,0.5919664
146,1436168799211,8.798691,-1.9554642,0.30825347
147,1436168799228,9.603143,-1.471237,0.2100912
148,1436168799250,10.044274,-1.2282255,0.4357447
149,1436168799268,9.998186,-1.2934675,0.4309563
150,1436168799288,9.570822,-1.6418238,0.12270284
151,1436168799309,8.970475,-2.148796,-0.30825347
152,1436168799327,8.660426,-1.9818004,-0.85293436
153,1436168799349,8.90643,-1.2521675,-0.9959879
154,1436168799372,9.137471,-0.8900445,-0.8415619
155,1436168799389,9.7563715,-0.1448492,-0.6380547
156,1436168799409,10.305243,0.93852705,-1.0073603
157,1436168799430,10.001179,2.1859062,-1.6340426
158,1436168799448,8.544308,1.513734,-1.4802152
159,1436168799468,8.461707,-1.5502456,-1.4706384
160,1436168799490,9.087193,-4.3358994,-3.2393548
161,1436168799511,10.111911,-3.6332011,-4.63278
162,1436168799531,12.780848,0.107739076,-2.9317
163,1436168799549,16.112978,2.9059622,-1.5915456
164,1436168799572,18.074427,2.168548,-1.9590555
165,1436168799590,19.50616,0.93373865,-2.2337902
166,1436168799610,19.607914,1.0869676,-2.4636335
167,1436168799631,17.009605,-0.3172317,-1.5376761
168,1436168799651,13.347075,-2.2517467,-1.1971009
169,1436168799671,11.827356,-2.9508536,-0.82001406
170,1436168799689,9.508572,-2.8604724,-0.9044097
171,1436168799711,6.8761473,-0.27712885,-0.22744916
172,1436168799789,4.3041763,1.4143747,0.53330845
173,1436168799790,1.8626889,0.94810385,1.0540473
174,1436168799791,-0.80564886,-0.3597288,0.040102877
175,1436168799792,-3.3267434,-0.06284779,-1.6771383
176,1436168799810,-2.545635,0.3513491,-2.2290018
177,1436168799830,0.51355624,-0.83378077,-1.7058687
178,1436168799849,3.663727,-1.9596541,-2.2709002
179,1436168799874,8.474277,-2.585738,-2.4462755
180,1436168799889,17.11914,-2.871845,-3.840898
181,1436168799911,18.273745,-2.5647886,-7.097611
182,1436168799930,17.232267,-0.8595184,-5.2528787
183,1436168799951,19.607914,2.1296425,-2.123657
184,1436168799972,19.607914,-0.04249708,-2.3864205
185,1436168799992,19.607914,-1.9871874,-2.5396495
186,1436168800012,19.592352,-3.7720647,-0.08439561
187,1436168800032,13.548787,-2.918532,-1.1671734
188,1436168800049,7.423821,-0.110731825,-2.8365304
189,1436168800070,3.0951042,1.9979613,-2.2768857
190,1436168800090,-0.4758476,3.9576154,-1.353921
191,1436168800112,-2.5384524,4.156933,-0.44592008
192,1436168800132,-0.8487445,1.8447324,-2.2816741
193,1436168800151,1.685518,-1.0139444,-1.6274586
194,1436168800170,1.9255368,-2.6300306,-1.6304513
195,1436168800190,-0.3172317,-2.119467,-1.721431
196,1436168800210,-1.7184383,0.58418524,-1.7429788
197,1436168800232,2.5013423,0.7278373,-0.9451111
198,1436168800250,16.131533,-1.1737574,1.3784616
199,1436168800270,19.607914,7.201759,-9.697116
200,1436168800292,19.607914,9.892242,-6.301539
201,1436168800310,19.607914,3.3195608,-7.4507556
202,1436168800333,19.425356,-8.878299,1.8004397
203,1436168800352,19.607914,-7.0605006,-0.51116204
204,1436168800370,19.607914,4.1066546,-0.87927055
205,1436168800393,16.754623,6.4068837,-2.5181017
206,1436168800410,7.828441,1.371279,-2.5552118
207,1436168800432,-1.6065093,-3.8774097,-1.2389994
208,1436168800455,-9.926959,-5.566519,-1.1145009
209,1436168800513,-6.5804634,-0.7457938,-0.23702596
210,1436168800514,0.6326678,0.74758947,-0.4345476
211,1436168800515,4.6046486,0.59017074,-1.8602947
212,1436168800537,4.7560816,0.21188685,-3.020884
213,1436168800550,1.6891093,-0.6955156,-2.4917655
214,1436168800573,-0.9768343,-0.8074445,-2.8622682
215,1436168800589,1.3922282,0.60932434,-0.9127894
216,1436168800610,13.281236,-0.58119243,-0.93493575
217,1436168800632,19.607914,-3.5565867,-2.3786395
218,1436168800651,19.607914,-2.144606,-7.2185183
219,1436168800670,19.607914,0.6410475,0.24001873
220,1436168800691,19.607914,-1.2054806,0.54767364
221,1436168800712,19.607914,-1.2689269,-2.0015526
222,1436168800730,16.678608,-1.2126632,-4.7339354
223,1436168800752,9.381081,1.2539631,-3.2722752
224,1436168800771,0.076015905,2.042254,-1.3772645
225,1436168800792,-6.906075,1.7220296,-2.179322
226,1436168800813,-6.296152,1.158195,-0.6135142
227,1436168800830,-1.2922704,0.18076223,-0.3609259
228,1436168800854,3.3620577,-0.24420857,-1.4251486
229,1436168800872,4.4262805,0.05746084,-1.0121487
230,1436168800892,0.107739076,-0.25677812,0.42078096
231,1436168800917,-2.1499932,-1.2539631,1.8136078
232,1436168800932,-3.4680011,-2.7042508,1.09834
233,1436168800953,1.2192472,0.044891283,-3.1830912
234,1436168800973,17.393875,1.8531121,4.6381674
235,1436168800994,19.607914,8.5622635,-19.315222
236,1436168801014,19.607914,6.9677253,-9.038112
237,1436168801032,19.607914,0.08080431,1.4885949
238,1436168801053,10.153211,-4.3981485,2.5647886
239,1436168801071,14.632762,-0.48841715,1.0977415
240,1436168801092,19.607914,5.971139,-2.2703018
241,1436168801110,19.607914,3.527856,-1.6747441
242,1436168801131,11.407174,-2.722806,-2.0548236
243,1436168801152,-0.13347675,-6.39611,-0.53809685
244,1436168801254,-9.725247,-4.7022123,-1.5819688
245,1436168801255,-8.721478,1.1079168,-1.3748703
246,1436168801256,-5.1517234,2.156577,0.25617957
247,1436168801257,1.4460979,0.7344214,1.1947067
248,1436168801258,4.238934,-0.6913257,-2.5306711
249,1436168801313,2.7449522,0.48961425,-4.3783965
250,1436168801314,0.24899697,-0.061650693,-2.0566192
251,1436168801315,0.05267244,-1.7579426,-2.6850972
252,1436168801342,12.169727,2.5683799,-0.46627077
253,1436168801350,19.607914,-2.8083985,-12.524069
254,1436168801372,19.607914,-7.796119,-0.5626374
255,1436168801390,19.607914,-1.8387469,1.2210429
256,1436168801410,19.607914,2.5288756,3.3560722
257,1436168801431,19.607914,-1.6071079,-1.4927847
258,1436168801451,19.528307,-4.772841,-4.6579194
259,1436168801470,12.248735,-2.110489,-3.7606924
260,1436168801490,1.9393034,2.593519,-2.1212628
261,1436168801510,-3.3464954,4.6082397,-2.1332338
262,1436168801530,-9.7402115,6.7187285,-3.1202433
263,1436168801550,-6.359598,1.6831238,-2.4905684
264,1436168801570,1.287482,-0.3669114,-1.2270284
265,1436168801590,4.778228,0.019752163,-0.8026561
266,1436168801610,3.9683893,0.48123455,-1.7070658
267,1436168801630,-0.34356794,-0.5907693,-1.2689269
268,1436168801651,-4.507085,-1.9273324,-0.04249708
269,1436168801670,-3.5565867,-0.14784196,-1.6627731
270,1436168801690,8.7609825,1.8579005,4.4442368
271,1436168801711,19.607914,5.144541,-7.8463974
272,1436168801734,19.607914,9.260174,-14.057555
273,1436168801749,19.607914,1.5897499,-5.1780596
274,1436168801771,17.666815,-8.371924,1.1330559
275,1436168801794,15.049354,-5.070919,2.1266496
276,1436168801812,19.607914,3.7487214,-0.075417355
277,1436168801831,19.607914,6.3248825,-2.529474
278,1436168801849,16.85937,4.1916485,-0.8265981
279,1436168801869,5.407903,1.2743138,1.186327
280,1436168801890,-6.537368,-2.5396495,1.3748703
281,1436168801911,-12.768876,-5.1559134,-3.2555158
282,1436168801938,-6.7492547,-3.6050692,-3.681085
283,1436168801950,2.0907366,-2.842516,-0.25079262
284,1436168801970,7.2502413,-0.22864626,-0.7978677
285,1436168801992,5.6120086,3.9618053,-2.7551277
286,1436168802011,0.14903906,4.2341456,-2.8862102
287,1436168802031,-4.4208937,0.60932434,-3.2650926
288,1436168802051,3.675698,-0.55006784,0.34596214
289,1436168802074,19.519327,-3.436278,-5.97892
290,1436168802091,19.607914,-8.143278,-3.9145198
291,1436168802114,19.607914,-6.409278,-3.904943
292,1436168802134,19.607914,0.84934306,0.81761986
293,1436168802150,19.607914,5.1080294,5.1882353
294,1436168802175,19.607914,-0.88166475,-1.3682863
295,1436168802195,19.607914,-4.823718,-5.475539
296,1436168802234,12.882601,-1.3700819,-4.6034513
297,1436168802235,2.0111294,3.369839,-3.3734303
298,1436168802255,-6.647501,6.8049197,-2.8574798
299,1436168802272,-8.520366,3.5380316,-3.1651347
300,1436168802295,-4.0252514,-2.4013844,-0.587178
301,1436168802315,2.2732944,-2.8748376,0.32621
302,1436168802335,5.422867,-0.6937199,1.0462662
303,1436168802355,3.763685,0.6332663,-1.2593501
304,1436168802374,-0.7517793,-0.9355343,-1.5358804
305,1436168802393,-4.481347,-1.0115502,-1.4359225
306,1436168802414,-1.8237832,1.7232267,-4.7405195
307,1436168802432,6.1381345,0.7637503,2.1865046
308,1436168802457,19.607914,5.533,-5.9041014
309,1436168802476,19.607914,12.532449,-10.205285
310,1436168802496,19.607914,1.977012,-7.2179193
311,1436168802514,15.708358,-9.891046,1.869273
312,1436168802532,13.56016,-4.711789,1.3922282
313,1436168802567,19.59654,3.8780081,-2.2062569
314,1436168802572,18.652626,4.5058875,-1.0199299
315,1436168802593,8.375516,0.66858083,-0.92775315
316,1436168802613,-2.5031378,-1.917157,0.6733692
317,1436168802631,-10.074203,-3.8857894,0.24720132
318,1436168802651,-8.1881695,-2.7168205,-1.7633295
319,1436168802674,-0.7721301,-0.9888053,-1.697489
320,1436168802694,3.6984432,-0.581791,-2.6635494
321,1436168802712,4.2676644,1.0588357,-3.1358056
322,1436168802734,1.5424645,1.6621746,-1.875857
323,1436168802755,-0.24600422,1.4395138,-1.1121067
324,1436168802775,-2.3331497,-0.28072014,-1.8722657
325,1436168802795,8.424597,0.6452374,4.234744
326,1436168802811,19.607914,-3.6613328,-14.987702
327,1436168802832,19.607914,-7.6123643,-0.4357447
328,1436168802857,19.607914,-4.3155484,-2.2936451
329,1436168802874,19.607914,6.253655,3.281852
330,1436168802896,19.607315,4.317344,2.409764
331,1436168802914,19.607914,-5.4761376,-0.27712885
332,1436168802933,15.491682,-6.807314,-5.920861
333,1436168802953,4.124611,-1.7190368,-3.9234982
334,1436168802975,-4.7536874,2.5701754,-1.3389573
335,1436168802992,-8.462306,4.406528,-1.2210429
336,1436168803014,-4.207211,3.8313212,-1.0809821
337,1436168803033,1.7172412,1.827973,-0.6775591
338,1436168803058,3.7032316,0.58418524,-0.45489833
339,1436168803073,5.6066217,-0.08259996,-2.018312
340,1436168803097,2.4732103,-0.6943185,-1.7310078
341,1436168803121,-2.5731683,-1.977012,-1.0109516
342,1436168803135,-3.5577838,0.46447513,-2.3475149
343,1436168803152,5.254674,0.9211691,1.9003977
344,1436168803172,19.598337,3.316568,-5.9106855
345,1436168803194,19.607914,9.458294,-10.436325
346,1436168803268,19.607914,4.0162735,-2.055422
347,1436168803280,16.473305,-6.3739634,3.0681696
348,1436168803281,13.724163,-4.706402,0.3196259
349,1436168803282,19.2003,3.1789012,-1.0660183
350,1436168803295,18.104954,4.0707417,-2.5737667
351,1436168803337,9.825205,-0.4201824,-1.4664485
352,1436168803338,-0.29568392,-3.6924577,0.39564183
353,1436168803352,-5.0182467,-4.8099513,-0.36391866
354,1436168803372,-10.705673,-3.7062242,-1.4526819
355,1436168803392,-5.191228,-0.31783026,-1.2958617
356,1436168803414,1.6328455,0.4782418,-0.9463082
357,1436168803438,4.656722,0.7763199,-3.0723593
358,1436168803453,3.8265328,2.023699,-4.11683
359,1436168803472,-0.6973112,1.7262194,-2.2427685
360,1436168803495,-3.1675289,0.12509704,-1.9871874
361,1436168803515,5.4767365,1.049259,1.9081788
362,1436168803532,19.515738,-3.5913026,-8.951322
363,1436168803555,19.607914,-10.449493,-5.4085016
364,1436168803575,19.607914,-4.9901147,-5.6616883
365,1436168803595,19.607914,7.9032598,2.3289597
366,1436168803615,19.607914,3.9761705,2.0991163
367,1436168803633,19.607914,-4.593276,-1.2707225
368,1436168803656,17.357365,-5.6940103,-5.8125234
369,1436168803672,12.579734,-3.0418332,-5.163096
370,1436168803713,2.9526494,1.4760253,-3.074155
371,1436168803714,-6.859388,5.0122614,-2.5187001
372,1436168803733,-10.043077,5.0140567,-2.8904
373,1436168803752,-3.7283707,0.919972,0.47405192
374,1436168803776,1.1330559,-1.1073183,1.2761095
375,1436168803795,4.43466,-1.0995371,-0.908001
376,1436168803816,4.6896424,-0.61530983,-2.071583
377,1436168803835,1.2862848,-0.66020113,-0.025737667
378,1436168803856,-3.433884,-0.24420857,-2.166154
379,1436168803876,0.2124854,0.06823475,-4.4424415
380,1436168803896,18.291103,-0.50757074,2.367267
381,1436168803915,19.607914,10.817602,-11.361086
382,1436168803936,19.607914,8.622718,-11.021708
383,1436168804005,19.18354,-4.699818,0.8331822
384,1436168804006,16.427216,-7.316082,4.359243
385,1436168804007,18.437748,-2.2625206,2.078167
386,1436168804014,19.598934,3.0639796,-3.063381
387,1436168804045,14.889541,1.7160441,-1.8136078
388,1436168804056,5.6161985,-1.1025299,-0.99299514
389,1436168804073,-4.016872,-3.1453824,-0.41299978
390,1436168804095,-9.767744,-2.7802668,-0.51475334
391,1436168804116,-6.379949,-0.41120413,-1.9117701
392,1436168804133,0.46746787,0.3764882,-1.9668367
393,1436168804153,4.1695023,-0.06943185,-1.7968484
394,1436168804174,3.4919431,0.9935937,-2.9484594
395,1436168804197,0.39743748,1.5400703,-1.5077485
396,1436168804216,-2.7659016,-0.8631097,-0.99898064
397,1436168804236,4.1096473,-1.7310078,0.37349546
398,1436168804254,19.552248,-2.5037365,-1.6286557
399,1436168804276,19.607914,-4.618415,-4.8943467
400,1436168804296,19.607914,-5.616797,0.23582886
401,1436168804316,19.607914,-1.0151415,-0.8074445
402,1436168804336,19.607914,2.5917234,3.2674868
403,1436168804354,19.607914,0.05805939,0.46208093
404,1436168804376,19.569607,-1.8357542,-1.5358804
405,1436168804396,12.58572,-1.3491327,-5.8400564
406,1436168804415,3.205836,0.8690952,-3.0119057
407,1436168804436,-4.2760444,2.3660698,-1.5023615
408,1436168804456,-7.390302,2.1045034,-1.7340006
