id,attr_time,attr_x,attr_y,attr_z
1,1436894934815,0.24720132,10.096947,0.28491
2,1436894934835,0.2813187,10.101735,0.28909984
3,1436894934855,0.2753332,10.089765,0.29688102
4,1436894934880,0.24061728,10.080787,0.32800564
5,1436894934899,0.25438392,10.0903635,0.29867667
6,1436894934916,0.272939,10.079589,0.2765303
7,1436894934940,0.30885202,10.075399,0.29688102
8,1436894934960,0.24959552,10.079589,0.31663316
9,1436894934980,0.22804771,10.088568,0.30585927
10,1436894935001,0.25198972,10.080188,0.2861071
11,1436894935018,0.2705448,10.097546,0.30585927
12,1436894935036,0.24540567,10.0825815,0.30765492
13,1436894935057,0.23463176,10.077195,0.31184477
14,1436894935075,0.29029694,10.092158,0.30765492
15,1436894935101,0.29867667,10.097546,0.30346507
16,1436894935121,0.26755205,10.099341,0.3196259
17,1436894935139,0.23822308,10.079589,0.3226187
18,1436894935156,0.27114335,10.069414,0.27832595
19,1436894935182,0.2645593,10.102334,0.2837129
20,1436894935209,0.2837129,10.086173,0.3238158
21,1436894935216,0.2705448,10.0903635,0.30107087
22,1436894935239,0.25198972,10.088568,0.30286652
23,1436894935258,0.27353755,10.0825815,0.2861071
24,1436894935278,0.27353755,10.086173,0.33399114
25,1436894935298,0.27234045,10.073604,0.3196259
26,1436894935317,0.2861071,10.095152,0.30346507
27,1436894935335,0.27114335,10.079589,0.30226797
28,1436894935357,0.26396075,10.086173,0.320823
29,1436894935379,0.2789245,10.08318,0.28550854
30,1436894935400,0.2908955,10.09575,0.30526072
31,1436894935420,0.29688102,10.084377,0.30765492
32,1436894935438,0.26755205,10.080787,0.3226187
33,1436894935460,0.2753332,10.070012,0.32561144
34,1436894935480,0.25139117,10.074203,0.29568392
35,1436894935500,0.30047232,10.085575,0.30645782
36,1436894935520,0.260968,10.073604,0.28550854
37,1436894935540,0.28550854,10.084377,0.29269117
38,1436894935561,0.2813187,10.084377,0.31064767
39,1436894935579,0.25977087,10.09156,0.3226187
40,1436894935600,0.25677812,10.086173,0.32202014
41,1436894935619,0.2765303,10.079589,0.29807812
42,1436894935638,0.31244332,10.080787,0.31184477
43,1436894935658,0.27473465,10.075998,0.29269117
44,1436894935680,0.2801216,10.089765,0.30166942
45,1436894935700,0.28670564,10.092158,0.3298013
46,1436894935720,0.29867667,10.077195,0.30705637
47,1436894935740,0.29269117,10.077793,0.29149407
48,1436894935759,0.2861071,10.080188,0.3274071
49,1436894935779,0.2837129,10.084377,0.2873042
50,1436894935799,0.32202014,10.093954,0.29149407
51,1436894935820,0.28311434,10.093356,0.3172317
52,1436894935845,0.2861071,10.0825815,0.3286042
53,1436894935919,0.2861071,10.085575,0.31663316
54,1436894935920,0.32022446,10.078991,0.2825158
55,1436894935921,0.33518824,10.095152,0.28909984
56,1436894935922,0.30226797,10.086173,0.31423897
57,1436894935939,0.2861071,10.076596,0.31423897
58,1436894935960,0.2896984,10.078991,0.32022446
59,1436894936000,0.27473465,10.079589,0.30107087
60,1436894936001,0.2633622,10.08318,0.3172317
61,1436894936019,0.29448682,10.105926,0.29448682
62,1436894936038,0.30765492,10.08318,0.2908955
63,1436894936060,0.28431144,10.067019,0.30765492
64,1436894936080,0.2813187,10.10413,0.29568392
65,1436894936102,0.28431144,10.08318,0.30107087
66,1436894936118,0.31004912,10.080188,0.30346507
67,1436894936141,0.2896984,10.080188,0.31543607
68,1436894936161,0.26036942,10.102933,0.29688102
69,1436894936187,0.2908955,10.075399,0.32561144
70,1436894936197,0.30166942,10.073005,0.30166942
71,1436894936217,0.29508537,10.097546,0.31244332
72,1436894936238,0.32202014,10.08737,0.31423897
73,1436894936258,0.30585927,10.079589,0.31663316
74,1436894936281,0.25498247,10.093954,0.31902736
75,1436894936303,0.2705448,10.078991,0.31244332
76,1436894936321,0.30107087,10.10413,0.2885013
77,1436894936342,0.27952304,10.081984,0.30346507
78,1436894936363,0.27593175,10.092158,0.31184477
79,1436894936382,0.28311434,10.080188,0.30885202
80,1436894936401,0.28909984,10.080188,0.3286042
81,1436894936418,0.27593175,10.074203,0.32321724
82,1436894936439,0.29508537,10.077195,0.3369839
83,1436894936460,0.30705637,10.070611,0.33039984
84,1436894936483,0.23283611,10.073604,0.32920274
85,1436894936503,0.26874915,10.093356,0.31124622
86,1436894936524,0.2813187,10.09156,0.32142156
87,1436894936541,0.2813187,10.095152,0.34715924
88,1436894936571,0.27353755,10.099341,0.3489549
89,1436894936641,0.25917232,10.093954,0.33039984
90,1436894936642,0.26994625,10.090961,0.33159694
91,1436894936643,0.29388827,10.085575,0.3298013
92,1436894936644,0.29807812,10.101137,0.35913026
93,1436894936659,0.29987377,10.075399,0.33279404
94,1436894936682,0.28431144,10.079589,0.34356794
95,1436894936698,0.29508537,10.070012,0.3286042
96,1436894936718,0.25737667,10.075399,0.3357868
97,1436894936753,0.27473465,10.093954,0.30825347
98,1436894936759,0.26156655,10.072407,0.33638534
99,1436894936784,0.30166942,10.087969,0.3298013
100,1436894936799,0.2741361,10.078991,0.31603462
101,1436894936822,0.2789245,10.085575,0.32202014
102,1436894936871,0.28790274,10.094553,0.35194764
103,1436894936872,0.29807812,10.080188,0.32680854
104,1436894936886,0.31423897,10.093356,0.31364042
105,1436894936898,0.28431144,10.070012,0.3405752
106,1436894936918,0.25318682,10.070012,0.32022446
107,1436894936939,0.29388827,10.107721,0.3184288
108,1436894936959,0.30346507,10.075998,0.362123
109,1436894936978,0.27114335,10.061034,0.3238158
110,1436894937000,0.272939,10.08318,0.30346507
111,1436894937018,0.2777274,10.092757,0.31902736
112,1436894937039,0.28550854,10.068216,0.3477578
113,1436894937059,0.30107087,10.081385,0.33877954
114,1436894937077,0.29747957,10.074203,0.3453636
115,1436894937097,0.2908955,10.078392,0.3184288
116,1436894937117,0.2669535,10.104729,0.33159694
117,1436894937140,0.29448682,10.076596,0.3477578
118,1436894937160,0.27832595,10.085575,0.3345897
119,1436894937181,0.2741361,10.0987425,0.31783026
120,1436894937199,0.260968,10.073604,0.32321724
121,1436894937219,0.25917232,10.077793,0.31064767
122,1436894937238,0.21787235,10.089166,0.34476504
123,1436894937260,0.23223756,10.077195,0.3238158
124,1436894937296,0.25019407,10.078991,0.31004912
125,1436894937298,0.27952304,10.083779,0.3298013
126,1436894937319,0.26874915,10.080787,0.31902736
127,1436894937339,0.25977087,10.070012,0.31603462
128,1436894937358,0.26396075,10.061633,0.3465607
129,1436894937379,0.23403321,10.095152,0.33039984
130,1436894937398,0.28191724,10.081385,0.31423897
131,1436894937419,0.2705448,10.08737,0.2873042
132,1436894937442,0.23044191,10.083779,0.31663316
133,1436894937461,0.24420857,10.086772,0.31543607
134,1436894937479,0.2789245,10.073604,0.3184288
135,1436894937500,0.25019407,10.0748005,0.3429694
136,1436894937521,0.26276365,10.0664215,0.31603462
137,1436894937542,0.260968,10.101735,0.29807812
138,1436894937562,0.29209262,10.074203,0.3274071
139,1436894937582,0.28790274,10.076596,0.34117374
140,1436894937602,0.25977087,10.084377,0.32202014
141,1436894937622,0.2825158,10.081984,0.33039984
142,1436894937639,0.27353755,10.085575,0.3393781
143,1436894937662,0.28311434,10.081385,0.30286652
144,1436894937682,0.2681506,10.077793,0.3184288
145,1436894937702,0.30346507,10.071808,0.35673606
146,1436894937722,0.29688102,10.072407,0.3489549
147,1436894937740,0.28670564,10.093356,0.36391866
148,1436894937761,0.2741361,10.083779,0.32621
149,1436894937782,0.27952304,10.080787,0.31783026
150,1436894937802,0.3238158,10.084377,0.3250129
151,1436894937835,0.2813187,10.063428,0.32680854
152,1436894937839,0.29568392,10.0748005,0.338181
153,1436894937859,0.2861071,10.089166,0.33399114
154,1436894937880,0.28790274,10.081984,0.33638534
155,1436894937925,0.25139117,10.079589,0.3393781
156,1436894937926,0.23882163,10.070012,0.32022446
157,1436894938040,0.27952304,10.094553,0.3369839
158,1436894938041,0.30166942,10.078392,0.36272156
159,1436894938042,0.2645593,10.093954,0.35673606
160,1436894938043,0.31543607,10.098145,0.33399114
161,1436894938044,0.3238158,10.08737,0.33877954
162,1436894938045,0.2813187,10.07121,0.3752911
163,1436894938070,0.26874915,10.09156,0.3393781
164,1436894938079,0.30047232,10.086173,0.32022446
165,1436894938101,0.2885013,10.089166,0.3321955
166,1436894938120,0.30226797,10.084377,0.34715924
167,1436894938139,0.27114335,10.080188,0.3238158
168,1436894938162,0.2741361,10.075399,0.35075054
169,1436894938180,0.2908955,10.099341,0.34356794
170,1436894938205,0.29328972,10.09994,0.36750996
171,1436894938219,0.31304187,10.08737,0.3417723
172,1436894938241,0.2753332,10.078392,0.36750996
173,1436894938259,0.23283611,10.084976,0.34237084
174,1436894938280,0.2801216,10.086173,0.3405752
175,1436894938300,0.31663316,10.067618,0.32621
176,1436894938320,0.29149407,10.071808,0.350152
177,1436894938340,0.2669535,10.0903635,0.34596214
178,1436894938360,0.23523031,10.080188,0.3286042
179,1436894938380,0.29388827,10.099341,0.3429694
180,1436894938399,0.26156655,10.080787,0.3645172
181,1436894938425,0.29209262,10.103531,0.3728969
182,1436894938440,0.29029694,10.088568,0.33518824
183,1436894938463,0.26396075,10.064027,0.34596214
184,1436894938482,0.2825158,10.088568,0.33638534
185,1436894938502,0.2801216,10.087969,0.3172317
186,1436894938524,0.2837129,10.073604,0.31663316
187,1436894938543,0.28491,10.099341,0.3321955
188,1436894938563,0.30286652,10.072407,0.3537433
189,1436894938582,0.28790274,10.071808,0.34715924
190,1436894938603,0.2896984,10.090961,0.32142156
191,1436894938624,0.29568392,10.067019,0.3321955
192,1436894938643,0.30645782,10.08737,0.3417723
193,1436894938665,0.25498247,10.092158,0.34596214
194,1436894938681,0.30346507,10.085575,0.32920274
195,1436894938806,0.30226797,10.081984,0.3477578
196,1436894938807,0.28550854,10.078991,0.34596214
197,1436894938808,0.29149407,10.07121,0.3274071
198,1436894938821,0.30645782,10.081984,0.3345897
199,1436894938822,0.31663316,10.067019,0.338181
200,1436894938823,0.30226797,10.063428,0.3776853
201,1436894938824,0.3172317,10.077195,0.34476504
202,1436894938846,0.2885013,10.075998,0.32920274
203,1436894938860,0.2861071,10.096349,0.33518824
204,1436894938890,0.29448682,10.058042,0.34715924
205,1436894938900,0.3184288,10.0825815,0.34955344
206,1436894938921,0.2896984,10.08318,0.34237084
207,1436894938945,0.28191724,10.086173,0.3274071
208,1436894938961,0.29568392,10.09156,0.36750996
209,1436894938982,0.29628247,10.09575,0.3513491
210,1436894939003,0.30107087,10.076596,0.35553896
211,1436894939023,0.2896984,10.075998,0.3441665
212,1436894939043,0.29747957,10.108319,0.33159694
213,1436894939063,0.30226797,10.081385,0.3573346
214,1436894939083,0.320823,10.065823,0.3405752
215,1436894939103,0.31603462,10.081984,0.33399114
216,1436894939123,0.31064767,10.075998,0.3537433
217,1436894939143,0.2705448,10.083779,0.3405752
218,1436894939163,0.2825158,10.099341,0.35194764
219,1436894939186,0.29388827,10.089765,0.3728969
220,1436894939204,0.30945057,10.0903635,0.3573346
221,1436894939226,0.29448682,10.080188,0.338181
222,1436894939245,0.2657564,10.074203,0.33399114
223,1436894939265,0.30526072,10.070611,0.3585317
224,1436894939283,0.32142156,10.067618,0.35194764
225,1436894939300,0.31663316,10.084377,0.3441665
226,1436894939321,0.28550854,10.0825815,0.35254622
227,1436894939340,0.27473465,10.094553,0.3429694
228,1436894939366,0.28550854,10.073005,0.34715924
229,1436894939386,0.31902736,10.05864,0.3309984
230,1436894939407,0.30526072,10.075998,0.30765492
231,1436894939423,0.26755205,10.0748005,0.31902736
232,1436894939447,0.29448682,10.093356,0.31483752
233,1436894939515,0.29927522,10.081385,0.3513491
234,1436894939516,0.2777274,10.084377,0.3417723
235,1436894939517,0.2705448,10.0825815,0.33518824
236,1436894939526,0.30346507,10.105327,0.33279404
237,1436894939541,0.29149407,10.081385,0.3333926
238,1436894939563,0.320823,10.065823,0.32561144
239,1436894939580,0.30526072,10.078991,0.32621
240,1436894939609,0.27593175,10.075399,0.3238158
241,1436894939620,0.2789245,10.094553,0.3441665
242,1436894939642,0.28491,10.0748005,0.32441434
243,1436894939671,0.30047232,10.075399,0.3357868
244,1436894939681,0.31304187,10.084377,0.3250129
245,1436894939704,0.2657564,10.081385,0.32800564
246,1436894939721,0.31184477,10.084377,0.3298013
247,1436894939742,0.31304187,10.065823,0.3286042
248,1436894939761,0.30466217,10.068216,0.3357868
249,1436894939782,0.29269117,10.078991,0.34596214
250,1436894939804,0.29568392,10.090961,0.35314476
251,1436894939824,0.28072014,10.088568,0.3226187
252,1436894939844,0.27473465,10.078392,0.3172317
253,1436894939864,0.30286652,10.077793,0.3172317
254,1436894939884,0.29388827,10.095152,0.33039984
255,1436894939903,0.29807812,10.105327,0.3321955
256,1436894939923,0.2873042,10.0748005,0.35553896
257,1436894939944,0.29269117,10.096349,0.32142156
258,1436894939964,0.28431144,10.077195,0.35553896
259,1436894939984,0.27593175,10.087969,0.33997664
260,1436894940003,0.2885013,10.0903635,0.33159694
261,1436894940024,0.28790274,10.06283,0.35314476
262,1436894940044,0.31483752,10.098145,0.31483752
263,1436894940064,0.26874915,10.072407,0.31783026
264,1436894940094,0.28909984,10.0825815,0.33997664
265,1436894940102,0.27952304,10.0987425,0.3321955
266,1436894940123,0.27593175,10.089765,0.33758244
267,1436894940143,0.2789245,10.086772,0.32321724
268,1436894940172,0.27234045,10.096349,0.30705637
269,1436894940233,0.27832595,10.0748005,0.33279404
270,1436894940234,0.28191724,10.080787,0.34476504
271,1436894940235,0.30406362,10.065823,0.3345897
272,1436894940243,0.2813187,10.081984,0.32022446
273,1436894940270,0.2801216,10.083779,0.33638534
274,1436894940282,0.27234045,10.09156,0.30885202
275,1436894940301,0.25258827,10.0903635,0.3298013
276,1436894940323,0.24839842,10.086772,0.30825347
277,1436894940341,0.2669535,10.076596,0.3393781
278,1436894940366,0.27234045,10.087969,0.35913026
279,1436894940382,0.26396075,10.065224,0.31783026
280,1436894940404,0.26276365,10.092757,0.3172317
281,1436894940423,0.2717419,10.089166,0.33399114
282,1436894940443,0.2753332,10.065224,0.32441434
283,1436894940465,0.2837129,10.085575,0.31483752
284,1436894940485,0.2621651,10.104729,0.3309984
285,1436894940504,0.26635495,10.0664215,0.3184288
286,1436894940523,0.26755205,10.077195,0.3321955
287,1436894940545,0.24121583,10.0748005,0.3238158
288,1436894940565,0.2693477,10.071808,0.3609259
289,1436894940582,0.26276365,10.0748005,0.32920274
290,1436894940604,0.24361002,10.073604,0.32022446
291,1436894940624,0.26874915,10.09575,0.32621
292,1436894940645,0.2789245,10.085575,0.362123
293,1436894940664,0.24899697,10.1065235,0.31543607
294,1436894940685,0.24001873,10.07121,0.30226797
295,1436894940703,0.22744916,10.087969,0.31783026
296,1436894940732,0.2777274,10.09575,0.31364042
297,1436894940743,0.22924481,10.09575,0.32800564
298,1436894940765,0.17776948,10.09156,0.31483752
299,1436894940783,0.21547815,10.087969,0.3238158
300,1436894940803,0.20530279,10.0987425,0.31184477
301,1436894940824,0.24600422,10.061034,0.35075054
302,1436894940844,0.19393034,10.080787,0.28072014
303,1436894940864,0.20410569,10.09994,0.2896984
304,1436894940885,0.22505496,10.111312,0.30705637
305,1436894940954,0.21547815,10.077793,0.30705637
306,1436894940955,0.17597382,10.077793,0.29448682
307,1436894940956,0.21428105,10.093954,0.2693477
308,1436894940964,0.20171149,10.080188,0.29448682
309,1436894940982,0.20470424,10.083779,0.29149407
310,1436894941005,0.19871874,10.081984,0.29269117
311,1436894941022,0.21906945,10.089765,0.30765492
312,1436894941085,0.22325931,10.087969,0.29568392
313,1436894941086,0.19033903,10.081984,0.2813187
314,1436894941087,0.15322891,10.080787,0.29269117
315,1436894941107,0.16160862,10.076596,0.2705448
316,1436894941123,0.17357962,10.076596,0.2861071
317,1436894941143,0.16759412,10.080787,0.28550854
318,1436894941163,0.19931729,10.089166,0.2813187
319,1436894941185,0.20470424,10.093954,0.2693477
320,1436894941203,0.23163901,10.084377,0.2753332
321,1436894941223,0.18914193,10.077195,0.30286652
322,1436894941245,0.20350714,10.075998,0.28311434
323,1436894941265,0.19033903,10.070611,0.27473465
324,1436894941285,0.08738836,10.065823,0.26036942
325,1436894941303,0.20171149,10.073005,0.34356794
326,1436894941323,0.15203181,10.068815,0.2705448
327,1436894941343,0.15382746,10.077793,0.22864626
328,1436894941363,0.18076223,10.081385,0.24959552
329,1436894941385,0.16220717,10.090961,0.26515785
330,1436894941403,0.08200141,10.065224,0.29747957
331,1436894941423,0.10055647,10.08737,0.2753332
332,1436894941446,0.12389994,10.087969,0.26874915
333,1436894941463,0.12090719,10.085575,0.24600422
334,1436894941483,0.16400282,10.086173,0.2220622
335,1436894941504,0.092176765,10.049063,0.20231004
336,1436894941524,0.08678981,10.0748005,0.19512744
337,1436894941546,0.093972415,10.105327,0.18435353
338,1436894941564,0.08379706,10.071808,0.21308395
339,1436894941584,0.0688333,10.075399,0.21308395
340,1436894941734,0.054468088,10.0748005,0.13108255
341,1436894941735,0.044292733,10.044873,0.15741876
342,1436894941736,0.1364695,10.076596,0.14185645
343,1436894941737,0.092176765,10.05445,0.13347675
344,1436894941738,0.078410104,10.081385,0.13108255
345,1436894941739,0.14724341,10.068216,0.109534726
346,1436894941740,0.11791443,10.061034,0.109534726
347,1436894941786,0.1352724,10.061633,0.10354923
348,1436894941787,0.11252748,10.068216,0.07062895
349,1436894941788,0.13227965,10.108918,0.06464344
350,1436894941803,0.078410104,10.045472,0.037110128
351,1436894941834,0.110731825,10.098145,-0.017956512
352,1436894941843,0.095169514,10.047267,-0.040102877
353,1436894941863,-0.044891283,10.071808,-0.12030864
354,1436894941883,0.10115502,10.077195,-0.2088941
355,1436894941903,0.05805939,10.070012,-0.18136078
356,1436894941924,0.094570965,10.053253,-0.17717093
357,1436894941946,0.04070143,10.027515,-0.22565351
358,1436894941964,0.09696517,10.038289,-0.22864626
359,1436894941986,0.17657238,10.094553,-0.24480712
360,1436894943533,0.22565351,10.113707,-0.23882163
361,1436894943534,0.18375498,10.14124,-0.27234045
362,1436894943535,0.24779987,10.081984,-0.3172317
363,1436894943536,0.17776948,10.074203,-0.30585927
364,1436894943537,0.21906945,10.1065235,-0.3878607
365,1436894943538,0.32561144,10.102933,-0.39863458
366,1436894943539,0.3196259,10.080787,-0.43754035
367,1436894943540,0.33758244,10.052654,-0.43275195
368,1436894943541,0.45250413,10.12448,-0.35434186
369,1436894943542,0.29269117,10.0341,-0.46088383
370,1436894943543,0.42437226,10.04607,-0.49200845
371,1436894943544,0.47046062,10.102933,-0.52373165
372,1436894943545,0.4177882,10.019734,-0.61112
373,1436894943546,0.52373165,10.078991,-0.688333
374,1436894943547,0.4782418,10.062231,-0.64942724
375,1436894943548,0.59615624,10.108918,-0.6087258
376,1436894943549,0.5638345,10.137649,-0.6386533
377,1436894943550,0.50876784,9.989806,-0.6488287
378,1436894943551,0.6356605,10.1460285,-0.7505822
379,1436894943552,0.5847838,10.093954,-0.81163436
380,1436894943553,0.56802434,10.099341,-0.8583213
381,1436894943554,0.66858083,10.127473,-0.98700964
382,1436894943555,0.6440403,10.088568,-0.8984242
383,1436894943556,0.5267244,10.102933,-1.0785879
384,1436894943557,0.56563014,10.075399,-1.2150574
385,1436894943558,0.60094464,10.10413,-1.1803415
386,1436894943559,0.53809685,10.070611,-1.2090719
387,1436894943560,0.5093664,10.084976,-1.2940661
388,1436894943561,0.55006784,10.063428,-1.2264298
389,1436894943562,0.53450555,10.060435,-1.2138603
390,1436894943563,0.4938041,10.016143,-1.228824
391,1436894943564,0.53929394,10.020332,-1.2180501
392,1436894943565,0.5189432,10.000581,-1.2533646
393,1436894943566,0.54527944,9.969456,-1.1875241
394,1436894943567,0.6757634,10.0029745,-1.0977415
395,1436894943568,0.7116765,10.024523,-1.0785879
396,1436894943569,0.664391,10.019734,-1.0827777
397,1436894943570,0.6691794,10.058042,-1.1569979
398,1436894943571,0.7110779,10.035296,-1.2114661
399,1436894943572,0.7386112,10.019135,-1.1953052
400,1436894943573,0.7314286,10.01734,-1.2192472
401,1436894943574,0.61530983,10.00477,-1.352724
402,1436894943575,0.6979098,10.019135,-1.3084313
403,1436894943576,0.6985083,10.011354,-1.2671312
404,1436894943577,0.6769605,10.01315,-1.2557588
405,1436894943578,0.6703765,10.035895,-1.3000516
406,1436894943579,0.6500258,10.039486,-1.2497733
