id,attr_time,attr_x,attr_y,attr_z
1,1436982010027,0.06374248,0.08076699,-0.09162978
2,1436982010045,0.06099359,0.07374205,-0.096822135
3,1436982010065,0.060688153,0.08198872,-0.0992656
4,1436982010088,0.06740767,0.08321045,-0.09468411
5,1436982010105,0.0826793,0.07954526,-0.090713486
6,1436982010126,0.08420646,0.073131174,-0.095600404
7,1436982010148,0.07809781,0.07465834,-0.095294975
8,1436982010166,0.07993041,0.07557464,-0.09162978
9,1436982010188,0.06801853,0.072825745,-0.09010262
10,1436982010209,0.05946642,0.071298584,-0.089797184
11,1436982010225,0.064658776,0.07465834,-0.087964594
12,1436982010249,0.07107286,0.067022525,-0.08674286
13,1436982010269,0.07901411,0.065495364,-0.087964594
14,1436982010290,0.08145757,0.06030301,-0.09040805
15,1436982010307,0.075043485,0.06183017,-0.090713486
16,1436982010326,0.060688153,0.059997577,-0.09040805
17,1436982010345,0.05977186,0.058775846,-0.08735372
18,1436982010365,0.057633825,0.05327806,-0.08888089
19,1436982010389,0.06496421,0.051750895,-0.08765916
20,1436982010405,0.06832397,0.05602695,-0.08735372
21,1436982010430,0.077792384,0.05144546,-0.08643743
22,1436982010448,0.08481733,0.04655854,-0.0842994
23,1436982010470,0.07718152,0.048391134,-0.09621127
24,1436982010546,0.061909884,0.05816498,-0.09957103
25,1436982010547,0.06649137,0.06518993,-0.08613199
26,1436982010548,0.068934835,0.0658008,-0.077885315
27,1436982010549,0.06649137,0.050529163,-0.0711658
28,1436982010566,0.06649137,0.0358684,-0.08643743
29,1436982010587,0.06557508,0.04564224,-0.09896016
30,1436982010604,0.06252075,0.046253107,-0.092546076
31,1436982010625,0.058550127,0.04533681,-0.083688535
32,1436982010647,0.060382724,0.04533681,-0.0842994
33,1436982010666,0.06129902,0.051750895,-0.089491755
34,1436982010686,0.066185944,0.050834596,-0.096516706
35,1436982010705,0.07076743,0.058775846,-0.096822135
36,1436982010726,0.07595979,0.05480522,-0.0992656
37,1436982010748,0.08481733,0.06366277,-0.09804387
38,1436982010768,0.08176301,0.07526921,-0.0824668
39,1436982010786,0.06679681,0.07038228,-0.07605272
40,1436982010806,0.057633825,0.062746465,-0.079717904
41,1436982010826,0.057633825,0.0658008,-0.09498954
42,1436982010846,0.064658776,0.0630519,-0.097433
43,1436982010868,0.07809781,0.06610623,-0.085215695
44,1436982010886,0.07901411,0.061219305,-0.08582656
45,1436982010906,0.074738055,0.049612865,-0.08857545
46,1436982010928,0.060077287,0.05144546,-0.0983493
47,1436982010945,0.052746907,0.059997577,-0.102625355
48,1436982010968,0.053357773,0.055721518,-0.097433
49,1436982010987,0.058550127,0.058470413,-0.08918632
50,1436982011006,0.067713104,0.05327806,-0.08613199
51,1436982011025,0.06710224,0.04411508,-0.09468411
52,1436982011046,0.06404791,0.04533681,-0.10384709
53,1436982011071,0.066185944,0.05358349,-0.114231795
54,1436982011086,0.06099359,0.07832353,-0.106901415
55,1436982011106,0.06374248,0.08718108,-0.089797184
56,1436982011125,0.0695457,0.078628965,-0.0833831
57,1436982011147,0.06985113,0.06641166,-0.09285151
58,1436982011166,0.068934835,0.0648845,-0.108428575
59,1436982011186,0.07534892,0.060913872,-0.10293079
60,1436982011206,0.0713783,0.0630519,-0.08643743
61,1436982011271,0.06710224,0.05236176,-0.08216137
62,1436982011278,0.057328396,0.04533681,-0.090713486
63,1436982011279,0.054884933,0.04411508,-0.09865473
64,1436982011298,0.05213604,0.052972626,-0.106901415
65,1436982011311,0.05946642,0.052667193,-0.09590584
66,1436982011325,0.064658776,0.04747484,-0.091018915
67,1436982011346,0.069240265,0.058775846,-0.09193522
68,1436982011365,0.068934835,0.06457907,-0.09224065
69,1436982011385,0.07168373,0.06946599,-0.10293079
70,1436982011405,0.07565435,0.07160401,-0.10293079
71,1436982011426,0.076265216,0.058470413,-0.101403624
72,1436982011446,0.08176301,0.06641166,-0.08857545
73,1436982011467,0.08023584,0.068244256,-0.07483099
74,1436982011487,0.06404791,0.058775846,-0.076358154
75,1436982011508,0.050608877,0.035562966,-0.09468411
76,1436982011530,0.04663825,0.045947675,-0.114231795
77,1436982011546,0.049387146,0.06946599,-0.108428575
78,1436982011566,0.056412093,0.062135603,-0.096516706
79,1436982011589,0.06252075,0.054194357,-0.0833831
80,1436982011609,0.0686294,0.038922727,-0.089491755
81,1436982011629,0.0686294,0.044725947,-0.097433
82,1436982011646,0.06832397,0.053888924,-0.09957103
83,1436982011666,0.06710224,0.0639682,-0.10537425
84,1436982011689,0.0686294,0.06916055,-0.10476338
85,1436982011709,0.06404791,0.08107243,-0.09224065
86,1436982011727,0.060077287,0.077101804,-0.08460483
87,1436982011746,0.06282618,0.054194357,-0.09621127
88,1436982011766,0.0713783,0.055416085,-0.109955736
89,1436982011788,0.0713783,0.06335734,-0.10934487
90,1436982011807,0.06710224,0.074047476,-0.09376781
91,1436982011826,0.06588051,0.06366277,-0.08888089
92,1436982011848,0.06404791,0.055416085,-0.095294975
93,1436982011866,0.06649137,0.054194357,-0.10384709
94,1436982011889,0.05977186,0.06610623,-0.10965031
95,1436982011909,0.054884933,0.06610623,-0.096822135
96,1436982011929,0.054884933,0.060913872,-0.09468411
97,1436982011948,0.061604448,0.05449979,-0.09346238
98,1436982011969,0.064658776,0.055110652,-0.09498954
99,1436982011994,0.06801853,0.058470413,-0.096516706
100,1436982012059,0.061604448,0.054194357,-0.09621127
101,1436982012060,0.058855556,0.049918298,-0.09193522
102,1436982012061,0.06404791,0.052667193,-0.09162978
103,1436982012069,0.059160993,0.057554115,-0.09773843
104,1436982012086,0.068934835,0.059997577,-0.09957103
105,1436982012107,0.06710224,0.054194357,-0.10048733
106,1436982012126,0.063437045,0.058470413,-0.096516706
107,1436982012147,0.06649137,0.05938671,-0.09957103
108,1436982012167,0.06740767,0.069771424,-0.10445795
109,1436982012188,0.06801853,0.06885512,-0.11026117
110,1436982012207,0.05824469,0.07771267,-0.0992656
111,1436982012228,0.067713104,0.06427363,-0.10018189
112,1436982012249,0.067713104,0.071298584,-0.107206844
113,1436982012269,0.06435335,0.07771267,-0.106901415
114,1436982012286,0.06099359,0.08351589,-0.09987646
115,1436982012314,0.066185944,0.07832353,-0.09224065
116,1436982012326,0.079319544,0.06916055,-0.10323622
117,1436982012347,0.08573363,0.06610623,-0.108123146
118,1436982012366,0.0826793,0.06854969,-0.101403624
119,1436982012387,0.06282618,0.073131174,-0.087964594
120,1436982012409,0.049387146,0.061524738,-0.089491755
121,1436982012427,0.057328396,0.048085704,-0.10079276
122,1436982012454,0.06985113,0.061524738,-0.11117747
123,1436982012466,0.06374248,0.07160401,-0.10873401
124,1436982012487,0.05946642,0.072825745,-0.09285151
125,1436982012509,0.05946642,0.050529163,-0.09621127
126,1436982012527,0.06526964,0.05724868,-0.106901415
127,1436982012547,0.06557508,0.06854969,-0.104152516
128,1436982012570,0.06435335,0.07221488,-0.101403624
129,1436982012587,0.070461996,0.05327806,-0.10201449
130,1436982012607,0.06679681,0.06610623,-0.109955736
131,1436982012627,0.060077287,0.08840281,-0.09712757
132,1436982012650,0.058550127,0.074352905,-0.08277224
133,1436982012668,0.06374248,0.05480522,-0.09162978
134,1436982012688,0.07901411,0.05449979,-0.10598511
135,1436982012714,0.08145757,0.06763339,-0.11117747
136,1436982012771,0.0686294,0.072520316,-0.0983493
137,1436982012772,0.06129902,0.070993155,-0.095294975
138,1436982012773,0.05977186,0.06732796,-0.09193522
139,1436982012790,0.06557508,0.06183017,-0.10354166
140,1436982012812,0.07015657,0.052972626,-0.10537425
141,1436982012835,0.07290546,0.056332383,-0.10048733
142,1436982012847,0.0713783,0.05694325,-0.09621127
143,1436982012868,0.06801853,0.058775846,-0.091018915
144,1436982012889,0.063437045,0.05602695,-0.08613199
145,1436982012908,0.056106664,0.055416085,-0.09407324
146,1436982012928,0.061909884,0.058470413,-0.10476338
147,1436982012948,0.07015657,0.06946599,-0.10476338
148,1436982012968,0.07107286,0.067022525,-0.09407324
149,1436982012989,0.074738055,0.058470413,-0.08582656
150,1436982013011,0.08329017,0.03953359,-0.095600404
151,1436982013029,0.07534892,0.050834596,-0.10598511
152,1436982013050,0.05702296,0.06183017,-0.11026117
153,1436982013067,0.046027385,0.06671709,-0.0983493
154,1436982013089,0.049387146,0.062135603,-0.090713486
155,1436982013111,0.07229459,0.062441036,-0.096516706
156,1436982013131,0.08542819,0.06946599,-0.09957103
157,1436982013148,0.07657065,0.06946599,-0.09804387
158,1436982013170,0.06710224,0.08015613,-0.09987646
159,1436982013191,0.06710224,0.07221488,-0.10201449
160,1436982013209,0.067713104,0.06671709,-0.10201449
161,1436982013232,0.07107286,0.06366277,-0.1123992
162,1436982013251,0.06526964,0.0780181,-0.0983493
163,1436982014830,0.06435335,0.0780181,-0.083688535
164,1436982014831,0.0686294,0.049918298,-0.09010262
165,1436982014832,0.070461996,0.048391134,-0.102625355
166,1436982014833,0.061909884,0.06641166,-0.10293079
167,1436982014834,0.052746907,0.06610623,-0.091324344
168,1436982014835,0.05977186,0.04319878,-0.08613199
169,1436982014836,0.066185944,0.037700996,-0.09896016
170,1436982014837,0.07015657,0.051750895,-0.106901415
171,1436982014838,0.064658776,0.07007685,-0.09590584
172,1436982014839,0.06649137,0.05327806,-0.09773843
173,1436982014840,0.07534892,0.04319878,-0.101098195
174,1436982014841,0.0713783,0.0639682,-0.10201449
175,1436982014842,0.063437045,0.073131174,-0.085215695
176,1436982014843,0.05824469,0.049307436,-0.08704829
177,1436982014844,0.06252075,0.05327806,-0.0983493
178,1436982014845,0.06832397,0.058775846,-0.10476338
179,1436982014846,0.075043485,0.057859547,-0.09896016
180,1436982014847,0.07718152,0.057554115,-0.09346238
181,1436982014848,0.071989164,0.062441036,-0.10079276
182,1436982014849,0.066185944,0.0780181,-0.09437867
183,1436982014850,0.06404791,0.062441036,-0.09468411
184,1436982014851,0.066185944,0.060913872,-0.09224065
185,1436982014852,0.06740767,0.061219305,-0.095600404
186,1436982014853,0.08023584,0.06854969,-0.09285151
187,1436982014854,0.08695536,0.062746465,-0.08277224
188,1436982014855,0.0686294,0.062441036,-0.084910266
189,1436982014856,0.05946642,0.055721518,-0.09315695
190,1436982014857,0.054884933,0.048085704,-0.09193522
191,1436982014858,0.06832397,0.03617383,-0.09590584
192,1436982014859,0.07657065,0.033424936,-0.09162978
193,1436982014860,0.082068436,0.04869657,-0.08857545
194,1436982014861,0.07901411,0.043809645,-0.09040805
195,1436982014862,0.05396864,0.03831186,-0.09773843
196,1436982014863,0.03808614,0.044725947,-0.11117747
197,1436982014864,0.04022417,0.057859547,-0.1133155
198,1436982014865,0.058855556,0.04533681,-0.113010064
199,1436982014866,0.06404791,0.055721518,-0.10903944
200,1436982014867,0.06557508,0.065495364,-0.09712757
201,1436982014868,0.06099359,0.054194357,-0.089797184
202,1436982014869,0.051525176,0.03861729,-0.09162978
203,1436982014870,0.04022417,0.055110652,-0.11820242
204,1436982014871,0.051219743,0.07190944,-0.1246165
205,1436982014872,0.06557508,0.07588007,-0.118813284
206,1436982014873,0.08023584,0.08473762,-0.10048733
207,1436982014874,0.070461996,0.078628965,-0.08827002
208,1436982014875,0.06526964,0.055110652,-0.09498954
209,1436982014876,0.05946642,0.062441036,-0.10751228
210,1436982014877,0.056412093,0.07954526,-0.118813284
211,1436982014878,0.045721956,0.0929843,-0.1105666
212,1436982014879,0.041445896,0.09848209,-0.09193522
213,1436982014880,0.053052336,0.07496378,-0.08765916
214,1436982014881,0.06740767,0.062746465,-0.097433
215,1436982014882,0.069240265,0.074352905,-0.11117747
216,1436982014883,0.069240265,0.08962454,-0.11911872
217,1436982014884,0.071989164,0.08901367,-0.10629055
218,1436982014885,0.07687608,0.0780181,-0.09224065
219,1436982014886,0.06679681,0.07343661,-0.09896016
220,1436982014887,0.053052336,0.07343661,-0.11087204
221,1436982014888,0.045416523,0.08046156,-0.10629055
222,1436982014889,0.049081713,0.07923983,-0.09712757
223,1436982014890,0.057633825,0.07374205,-0.08704829
224,1436982014891,0.07015657,0.05816498,-0.096822135
225,1436982014892,0.068934835,0.06916055,-0.10048733
226,1436982014893,0.06099359,0.073131174,-0.0983493
227,1436982014894,0.04816542,0.06518993,-0.09987646
228,1436982014895,0.047249116,0.067022525,-0.10170906
229,1436982014896,0.053357773,0.074047476,-0.090713486
230,1436982014897,0.059160993,0.061219305,-0.091324344
231,1436982014898,0.058855556,0.058470413,-0.101403624
232,1436982014899,0.057328396,0.052056327,-0.102319926
233,1436982014900,0.053357773,0.06671709,-0.10170906
234,1436982014901,0.052746907,0.060913872,-0.0983493
235,1436982014902,0.0554958,0.061524738,-0.08765916
236,1436982014903,0.059160993,0.056637816,-0.08918632
237,1436982014904,0.06404791,0.062135603,-0.091018915
238,1436982014905,0.05977186,0.05908128,-0.102319926
239,1436982014906,0.051525176,0.07465834,-0.102319926
240,1436982014907,0.051525176,0.082905024,-0.092546076
241,1436982014908,0.0405296,0.07190944,-0.08674286
242,1436982014909,0.021287344,0.07526921,-0.0833831
243,1436982014910,0.016400423,0.07832353,-0.08155051
244,1436982014911,0.042973064,0.08015613,-0.07055493
245,1436982014912,0.0695457,0.10245271,-0.07086036
246,1436982014927,0.08817709,0.08687565,-0.062308248
247,1436982014947,0.090925984,0.06183017,-0.07727445
248,1436982014967,0.071989164,0.073131174,-0.08582656
249,1436982014988,0.050303444,0.068244256,-0.080939636
250,1436982015007,0.03808614,0.061524738,-0.079717904
251,1436982015027,0.04388936,0.0639682,-0.0824668
252,1436982015047,0.0695457,0.040144455,-0.08155051
253,1436982015067,0.071989164,0.03373037,-0.08674286
254,1436982015089,0.053357773,0.0349521,-0.08307767
255,1436982015109,0.049081713,0.04197705,-0.079107046
256,1436982015131,0.058855556,0.058775846,-0.07574728
257,1436982015149,0.08115214,0.053888924,-0.08002334
258,1436982015171,0.109862804,0.052972626,-0.09468411
259,1436982015192,0.11841492,0.061219305,-0.10537425
260,1436982015212,0.11474973,0.0789344,-0.087964594
261,1436982015231,0.10650305,0.08748651,-0.050090946
262,1436982015251,0.093674876,0.046863973,-0.036041044
263,1436982015272,0.08145757,0.02914888,-0.066278875
264,1436982015293,0.0686294,0.057554115,-0.10537425
265,1436982015313,0.075043485,0.090235405,-0.11087204
266,1436982015333,0.092147715,0.095733196,-0.102625355
267,1436982015352,0.12360728,0.077101804,-0.08063421
268,1436982015372,0.15109621,0.0630519,-0.07391469
269,1436982015444,0.14223866,0.09328973,-0.07055493
270,1436982015445,0.13521372,0.08107243,-0.07849618
271,1436982015446,0.12910506,0.09909295,-0.104152516
272,1436982015456,0.13826804,0.13574487,-0.10903944
273,1436982015479,0.15567769,0.16567726,-0.087964594
274,1436982015493,0.17430909,0.15529256,-0.05681046
275,1436982015509,0.17522538,0.12505472,-0.043371424
276,1436982015530,0.18347207,0.08901367,-0.047952913
277,1436982015549,0.21645878,0.05724868,-0.097433
278,1436982015571,0.2408934,0.079850696,-0.11728612
279,1436982015596,0.22928695,0.14674044,-0.097433
280,1436982015611,0.2118773,0.19377707,-0.06719518
281,1436982015632,0.16911674,0.19927485,-0.03359758
282,1436982015653,0.13124308,0.16506639,-0.040317103
283,1436982015673,0.12421814,0.15498713,-0.06352998
284,1436982015693,0.15934289,0.15223823,-0.08307767
285,1436982015710,0.19446763,0.13269055,-0.076358154
286,1436982015733,0.23447931,0.13207968,-0.06902777
287,1436982015753,0.2848757,0.11528088,-0.06352998
288,1436982015772,0.3328286,0.11039396,-0.04245513
289,1436982015792,0.35634694,0.12871993,-0.0018325895
290,1436982015814,0.34810024,0.13849376,0.031459562
291,1436982015831,0.29770386,0.14643501,0.056505047
292,1436982015853,0.24150427,0.15590341,0.07452557
293,1436982015869,0.2100447,0.14735131,0.06414085
294,1436982015891,0.2240946,0.122000396,0.032681294
295,1436982015910,0.24333686,0.15193279,0.020463996
296,1436982015935,0.22531633,0.2652483,0.04612034
297,1436982015955,0.20943384,0.2991513,0.115148105
298,1436982015976,0.18774812,0.21943341,0.18478674
299,1436982015993,0.1669787,0.026094554,0.181427
300,1436982016010,0.1950785,-0.15685959,0.09865474
301,1436982016029,0.1969111,-0.19412236,0.032986723
302,1436982016052,0.21523705,-0.18801372,0.010690145
303,1436982016073,0.3102266,-0.15960848,0.081855945
304,1436982016090,0.3590958,0.023956526,0.1710423
305,1436982016144,0.4009401,0.016320711,0.1423316
306,1436982016145,0.48951554,-0.04568211,0.022907458
307,1436982016161,0.48004714,0.12474929,-0.11484266
308,1436982016170,0.4140737,0.20904869,-0.10965031
309,1436982016199,0.3590958,0.19438793,0.004581496
310,1436982016213,0.34504592,0.18400322,0.13897187
311,1436982016230,0.36092842,0.059997577,0.16646078
312,1436982016250,0.37314573,0.019069605,0.115453534
313,1436982016271,0.38872278,0.07588007,0.1010982
314,1436982016293,0.3963586,0.16384466,0.12919801
315,1436982016311,0.37955981,0.14612958,0.23151794
316,1436982016331,0.34657308,0.10428531,0.331089
317,1436982016355,0.2867083,0.08259959,0.4153884
318,1436982016373,0.28548655,-0.04415495,0.4092797
319,1436982016394,0.27785075,-0.1250946,0.3555236
320,1436982016413,0.2418097,-0.16083021,0.31612277
321,1436982016434,0.23111956,-0.20114732,0.3142902
322,1436982016454,0.27449098,-0.23260687,0.34758234
323,1436982016473,0.29739842,-0.15899761,0.41905355
324,1436982016493,0.21584792,-0.15777588,0.38728857
325,1436982016514,0.13490827,-0.24299158,0.29962942
326,1436982016533,0.1575103,-0.22222216,0.2684753
327,1436982016589,0.19355133,-0.14036623,0.25656343
328,1436982016590,0.19355133,-0.012389956,0.24373525
329,1436982016591,-0.3525622,0.084432185,0.07696902
330,1436982016614,-0.7618419,-0.24085356,-0.57696223
331,1436982016634,-1.033066,-0.6388323,-1.0567969
332,1436982016654,-1.1033156,-0.49558437,-1.4526376
333,1436982016673,-0.8049079,-0.118985936,-1.7724255
334,1436982016694,-0.32140806,0.5325018,-1.9602666
335,1436982016714,0.014567827,1.4381095,-1.8387043
336,1436982016733,-0.3385123,2.288434,-1.600467
337,1436982016754,-1.3552974,2.2032185,-1.1527027
338,1436982016774,-1.414246,1.4491051,-0.8142834
339,1436982016794,-0.39043584,1.0874729,-0.93676186
340,1436982016813,0.35481977,1.2640129,-1.5903877
341,1436982016839,0.22745436,1.5941856,-2.0882428
342,1436982016912,-0.44083223,1.6885643,-1.9620992
343,1436982016913,-0.5941594,0.9246773,-1.4385877
344,1436982016914,-0.3638632,0.7469155,-0.72326446
345,1436982016915,-0.36019802,0.7970065,-0.059253924
346,1436982016932,-0.4444974,0.36145955,0.2507602
347,1436982016954,-0.41028896,0.033119507,0.48899764
348,1436982016971,-0.17388411,-0.2521546,0.7489208
349,1436982016996,-0.14028652,-0.49253005,0.98807454
350,1436982017013,-0.30155495,-0.7530641,0.98685277
351,1436982017033,-0.43838876,-1.1204995,0.7797695
352,1436982017053,-0.42036822,-1.4127985,0.33383787
353,1436982017072,0.0151786925,-1.4042464,-0.07269296
354,1436982017094,0.54266083,-0.8395015,-0.21410826
355,1436982017114,0.43270507,-0.6070673,-0.5833763
356,1436982017134,0.24669662,-0.6764005,-1.3246613
357,1436982017152,0.54113364,-0.16510627,-2.8750372
358,1436982017174,0.8187719,-0.3431735,-3.0644054
359,1436982017194,0.77234614,0.7850946,0.49846607
360,1436982017214,0.42018235,2.750859,3.0341678
361,1436982017234,-0.783833,0.60947084,3.673438
362,1436982017254,-1.7761836,-1.3624022,3.4535267
363,1436982017273,-0.3788294,-2.463792,1.9905045
364,1436982017292,2.2845433,-2.3972077,0.47250426
365,1436982017314,3.7545905,0.1528491,1.0283916
366,1436982017334,4.048111,1.8761,1.9196441
367,1436982017355,3.321487,0.29762417,1.2699889
368,1436982017374,0.233563,-1.7173148,0.70524395
369,1436982017395,-0.8947051,-1.4338734,1.1951579
370,1436982017414,-0.7422942,-0.12051311,0.8717047
371,1436982017435,-0.5700302,0.0077685975,0.33567047
372,1436982017455,-0.5556749,0.62810224,0.24923304
373,1436982017471,-1.0150455,0.9094057,0.3145956
374,1436982017493,-1.8171116,0.6412358,0.36651915
375,1436982017513,-2.4282823,0.21760081,0.20036381
376,1436982017533,-2.8754356,-0.13517387,-0.047036618
377,1436982017560,-2.8763518,-0.07866883,-0.4401284
378,1436982017633,-1.34644,-0.033464808,-1.8625281
379,1436982017634,-0.50772196,0.2988459,-4.0857725
380,1436982017635,0.3316069,1.4982798,-6.507853
381,1436982017636,2.160843,2.7618546,-6.8209214
382,1436982017652,2.2271218,1.40665,-4.643798
383,1436982017673,-0.3779131,1.1952906,-1.2947289
