id,attr_time,attr_x,attr_y,attr_z
1,1436982010022,0.006507054,0.053344466,0.022774648
2,1436982010042,0.00956138,0.056704227,0.019414889
3,1436982010063,0.004369028,0.04784668,0.016971428
4,1436982010112,0.0019255653,0.056704227,0.01605513
5,1436982010113,0.006507054,0.0527336,0.017582292
6,1436982010123,0.010172246,0.05395533,0.020331185
7,1436982010151,0.0022309981,0.05578793,0.020942051
8,1436982010162,0.004674457,0.052428167,0.016360562
9,1436982010188,0.015670033,0.061285716,0.013306236
10,1436982010202,0.0150591675,0.06708893,0.015138831
11,1436982010223,0.004674457,0.063423745,0.00567042
12,1436982010246,-0.0005178973,0.06556177,0.0041432567
13,1436982010264,0.009866813,0.0686161,0.010862775
14,1436982010284,0.010783112,0.0686161,0.011779073
15,1436982010304,0.010172246,0.07258672,0.015444264
16,1436982010323,0.0071179196,0.0676998,0.01972032
17,1436982010344,0.0071179196,0.069226965,0.020025752
18,1436982010364,0.0077287853,0.07289216,0.014222533
19,1436982010385,0.004063595,0.06739437,0.014833399
20,1436982010404,0.0052853227,0.06159115,0.014222533
21,1436982010425,0.008034218,0.06281288,0.012084505
22,1436982010446,0.0037581623,0.063729174,0.016971428
23,1436982010464,0.0034527294,0.057620525,0.016971428
24,1436982010483,0.004369028,0.056398794,0.02185835
25,1436982010505,0.014753735,0.050595574,0.019109456
26,1436982010527,0.018418927,0.05578793,0.022774648
27,1436982010572,0.019946089,0.052122734,0.016665995
28,1436982010578,0.024833012,0.0536499,0.014527966
29,1436982010582,0.019640658,0.056398794,0.00567042
30,1436982010603,0.015670033,0.06281288,0.00017263275
31,1436982010623,0.014448302,0.06831066,0.00017263275
32,1436982010644,0.0074233525,0.0667835,-0.0016599623
33,1436982010663,-0.003266789,0.069226965,0.0007834984
34,1436982010683,-0.006931979,0.063729174,0.0032269591
35,1436982010705,-0.005404819,0.06525634,0.003532392
36,1436982010723,-0.0020450577,0.0676998,0.0041432567
37,1436982010744,0.0052853227,0.068005234,0.0038378239
38,1436982010767,0.012004841,0.06556177,0.007503016
39,1436982010787,0.016891764,0.064950906,0.0102519095
40,1436982010808,0.015670033,0.06525634,0.012084505
41,1436982010829,0.013226572,0.060980283,0.017887725
42,1436982010844,0.011699408,0.05975855,0.02308008
43,1436982010864,0.023000415,0.04815211,0.025828972
44,1436982010884,0.026360175,0.04815211,0.030105028
45,1436982010904,0.015975466,0.040516295,0.030105028
46,1436982010924,0.002536431,0.032269616,0.022469215
47,1436982010948,0.0074233525,0.03257505,0.01849859
48,1436982010969,0.018418927,0.044792354,0.018193157
49,1436982010987,0.018113494,0.040210865,0.022469215
50,1436982011037,0.012004841,0.03043702,0.017887725
51,1436982011040,0.0077287853,0.03532394,0.026745271
52,1436982011043,0.010477679,0.04326519,0.034075655
53,1436982011063,0.015670033,0.04815211,0.0288833
54,1436982011084,0.009866813,0.05120644,0.031937625
55,1436982011104,0.0074233525,0.052122734,0.029494165
56,1436982011125,0.00956138,0.058842253,0.026745271
57,1436982011144,0.0071179196,0.052428167,0.0288833
58,1436982011164,0.0058961883,0.054260764,0.023385512
59,1436982011186,0.004674457,0.05578793,0.02430181
60,1436982011204,0.016280899,0.057620525,0.029188732
61,1436982011224,0.016891764,0.05853682,0.02552354
62,1436982011251,0.008034218,0.06281288,0.0288833
63,1436982011267,0.0052853227,0.06067485,0.026745271
64,1436982011286,0.010172246,0.05731509,0.029799597
65,1436982011305,0.0055907555,0.06403461,0.031937625
66,1436982011325,0.010172246,0.063729174,0.027050704
67,1436982011345,0.010172246,0.06189658,0.026439838
68,1436982011365,0.014142871,0.063423745,0.0288833
69,1436982011385,0.013532005,0.060369417,0.028272435
70,1436982011409,0.009866813,0.06067485,0.029188732
71,1436982011426,0.010783112,0.057925954,0.030105028
72,1436982011449,0.012004841,0.05609336,0.030715894
73,1436982011465,0.0028418638,0.055482496,0.03346479
74,1436982011485,0.00497989,0.05487163,0.03621368
75,1436982011508,0.0058961883,0.05700966,0.03254849
76,1436982011527,0.009255949,0.057925954,0.02552354
77,1436982011548,0.0058961883,0.06067485,0.022469215
78,1436982011624,0.004063595,0.060063984,0.026134405
79,1436982011625,0.012310274,0.063729174,0.02308008
80,1436982011626,0.0110885445,0.0667835,0.024607243
81,1436982011627,0.010172246,0.06892153,0.026134405
82,1436982011644,0.010477679,0.069226965,0.021247484
83,1436982011665,0.0077287853,0.064950906,0.017887725
84,1436982011684,0.009866813,0.0676998,0.020331185
85,1436982011704,0.002536431,0.07197586,0.017582292
86,1436982011724,0.006507054,0.06983783,0.016360562
87,1436982011746,0.006812487,0.07014326,0.023690945
88,1436982011764,0.006507054,0.0686161,0.023690945
89,1436982011787,0.0150591675,0.06159115,0.02766157
90,1436982011811,0.017808061,0.05853682,0.029799597
91,1436982011894,-0.0005178973,0.055482496,0.024912674
92,1436982011895,-0.0081537105,0.0536499,0.016971428
93,1436982011896,0.006201621,0.056704227,0.013611668
94,1436982011897,0.016586332,0.055482496,0.016971428
95,1436982011927,0.008950517,0.05609336,0.020636618
96,1436982011928,0.0022309981,0.0527336,0.010862775
97,1436982011947,0.0016201325,0.05609336,0.017887725
98,1436982011968,0.010783112,0.056398794,0.019109456
99,1436982011988,0.0037581623,0.06159115,0.025218107
100,1436982012008,-0.004793953,0.049679276,0.023996377
101,1436982012029,0.00497989,0.054566197,0.016360562
102,1436982012047,0.004063595,0.06311831,0.020636618
103,1436982012066,-0.00082333013,0.060063984,0.01605513
104,1436982012085,-0.007542845,0.055177063,0.013000803
105,1436982012105,-0.00021246448,0.056398794,0.006586718
106,1436982012134,0.0013146996,0.06556177,0.010862775
107,1436982012213,0.0022309981,0.063423745,0.008724746
108,1436982012214,0.0013146996,0.059147686,0.015138831
109,1436982012215,0.00039840117,0.05823139,0.016665995
110,1436982012216,0.0019255653,0.06281288,0.013611668
111,1436982012225,0.006812487,0.055482496,0.013611668
112,1436982012245,0.00956138,0.058842253,0.014527966
113,1436982012265,0.0052853227,0.062202014,0.014527966
114,1436982012285,0.002536431,0.061285716,0.012389937
115,1436982012305,0.0037581623,0.06067485,0.01605513
116,1436982012325,0.0028418638,0.05853682,0.01605513
117,1436982012347,0.002536431,0.060980283,0.01605513
118,1436982012365,0.0022309981,0.05731509,0.016665995
119,1436982012387,0.0034527294,0.06067485,0.017276859
120,1436982012408,0.0074233525,0.060063984,0.013000803
121,1436982012426,0.0071179196,0.06311831,0.013611668
122,1436982012446,0.009866813,0.06617264,0.015138831
123,1436982012466,0.0077287853,0.069532394,0.018193157
124,1436982012486,0.009255949,0.07350302,0.01849859
125,1436982012505,0.002536431,0.07564105,0.014527966
126,1436982012525,0.00497989,0.07014326,0.017582292
127,1436982012549,0.0031472966,0.0676998,0.016971428
128,1436982012569,0.004369028,0.064950906,0.01849859
129,1436982012591,0.0022309981,0.07686278,0.018193157
130,1436982012608,-0.001128763,0.0704487,0.01147364
131,1436982012626,0.00039840117,0.06434004,0.020025752
132,1436982012645,0.0016201325,0.06708893,0.020025752
133,1436982012665,0.01292114,0.06189658,0.031021327
134,1436982012686,0.0110885445,0.05487163,0.031937625
135,1436982012766,-0.0017396249,0.050595574,0.031021327
136,1436982012767,-0.0029613562,0.04693038,0.017582292
137,1436982012768,0.0071179196,0.052428167,0.016360562
138,1436982012769,0.012615707,0.05731509,0.02308008
139,1436982012785,0.008950517,0.053039033,0.01972032
140,1436982012805,-0.0014341921,0.05120644,0.020942051
141,1436982012827,0.0019255653,0.049373843,0.024607243
142,1436982012845,0.008034218,0.051817305,0.03132676
143,1436982012865,0.0010092668,0.055177063,0.029494165
144,1436982012891,-0.0023504905,0.050595574,0.024912674
145,1436982012906,0.0074233525,0.051511873,0.020636618
146,1436982012925,0.006507054,0.05975855,0.024912674
147,1436982012947,0.0037581623,0.054566197,0.02552354
148,1436982012969,-0.0023504905,0.054566197,0.024607243
149,1436982012986,-0.00082333013,0.050901007,0.02185835
150,1436982013006,0.004063595,0.05120644,0.023996377
151,1436982013025,0.0019255653,0.060063984,0.022774648
152,1436982013046,9.2968345e-05,0.060369417,0.019109456
153,1436982013066,-0.0005178973,0.05853682,0.018804023
154,1436982013087,0.0074233525,0.05975855,0.020636618
155,1436982013110,0.0055907555,0.06067485,0.019414889
156,1436982013141,0.0074233525,0.062202014,0.020025752
157,1436982013146,0.012615707,0.06647807,0.02185835
158,1436982013166,0.009866813,0.064950906,0.022774648
159,1436982013185,0.008034218,0.063423745,0.024912674
160,1436982013206,0.009255949,0.060369417,0.028577868
161,1436982013226,0.014753735,0.06556177,0.034381088
162,1436982013246,0.013532005,0.064950906,0.031632192
163,1436982013266,0.016586332,0.06739437,0.030410461
164,1436982013298,0.016586332,0.068005234,0.037435412
165,1436982013309,0.013837438,0.06617264,0.032853924
166,1436982013328,0.0113939755,0.06647807,0.029799597
167,1436982013346,0.0037581623,0.06525634,0.03346479
168,1436982013366,-0.0005178973,0.05853682,0.034075655
169,1436982013386,-0.0023504905,0.053344466,0.030410461
170,1436982013406,-0.0081537105,0.045708653,0.030410461
171,1436982013426,-0.007542845,0.040210865,0.030715894
172,1436982013446,0.009866813,0.0386837,0.029188732
173,1436982013470,0.000703834,0.049679276,0.023385512
174,1436982013486,9.2968345e-05,0.040210865,0.030715894
175,1436982013508,-0.008459143,0.039905433,0.031937625
176,1436982013527,-0.0020450577,0.037156537,0.036519114
177,1436982013548,0.013837438,0.036851104,0.03926801
178,1436982013569,0.0110885445,0.04418149,0.040184308
179,1436982013587,0.0071179196,0.041738026,0.026745271
180,1436982013607,0.00497989,0.048457544,0.017887725
181,1436982013626,0.01292114,0.060063984,0.008724746
182,1436982013647,0.010172246,0.0667835,0.0062812855
183,1436982013666,0.00039840117,0.07014326,0.003532392
184,1436982013688,-0.0035722218,0.07258672,0.0068921503
185,1436982013708,-0.008459143,0.07594648,0.009946477
186,1436982013728,-0.0020450577,0.076557346,0.012389937
187,1436982013748,-0.015789527,0.075335614,0.015749697
188,1436982013768,-0.0081537105,0.0704487,0.016360562
189,1436982013787,-0.0035722218,0.07777908,0.01147364
190,1436982013806,9.2968345e-05,0.08052797,0.013000803
191,1436982013826,0.0022309981,0.079611674,0.0032269591
192,1436982013849,0.0013146996,0.07686278,0.0044486895
193,1436982013865,0.0071179196,0.07564105,0.0047541223
194,1436982013885,0.008339651,0.075335614,0.0068921503
195,1436982013905,0.0019255653,0.07350302,0.011779073
196,1436982013927,-0.0020450577,0.07014326,0.010862775
197,1436982013945,-0.0057102516,0.069226965,0.010862775
198,1436982013968,-0.0060156845,0.06525634,0.012389937
199,1436982013987,-0.004793953,0.060063984,0.009946477
200,1436982014006,-0.00021246448,0.059147686,0.009030178
201,1436982014026,0.0016201325,0.063423745,0.009335611
202,1436982014045,0.006507054,0.068005234,0.007197583
203,1436982014066,0.0058961883,0.06892153,0.008724746
204,1436982014087,0.0028418638,0.06708893,0.015749697
205,1436982014120,-0.00082333013,0.063423745,0.017887725
206,1436982014149,9.2968345e-05,0.05700966,0.017276859
207,1436982014150,-0.00021246448,0.057620525,0.016971428
208,1436982014180,-0.007237412,0.05609336,0.017582292
209,1436982014187,-0.007542845,0.054260764,0.017582292
210,1436982014207,-0.008459143,0.05578793,0.013611668
211,1436982014227,-0.0063211173,0.05853682,0.01605513
212,1436982014247,-0.0081537105,0.058842253,0.018804023
213,1436982014272,-0.00021246448,0.05853682,0.016971428
214,1436982014288,0.0055907555,0.06617264,0.014222533
215,1436982014312,0.0019255653,0.06739437,0.016360562
216,1436982014340,0.0077287853,0.0658672,0.018804023
217,1436982014361,0.0031472966,0.06525634,0.021552917
218,1436982014368,0.0150591675,0.072281286,0.026439838
219,1436982014387,0.02574931,0.07441932,0.027356137
220,1436982014407,0.018418927,0.07930624,0.0288833
221,1436982014428,0.012310274,0.07930624,0.020942051
222,1436982014447,0.027581904,0.070754126,0.022469215
223,1436982014467,0.027581904,0.07930624,0.026439838
224,1436982014501,0.037661184,0.080833405,0.024607243
225,1436982014507,0.02819277,0.07716821,0.028577868
226,1436982014534,0.027887337,0.076557346,0.033159357
227,1436982014547,0.019335225,0.085414894,0.035297383
228,1436982014571,-0.001128763,0.09457787,0.042627767
229,1436982014586,-0.024341643,0.094272435,0.042627767
230,1436982014606,-0.056412064,0.1089332,0.039878875
231,1436982014626,-0.08787162,0.14711228,0.032243058
232,1436982014646,-0.11169537,0.17612839,0.034991954
233,1436982014668,-0.12910503,0.18590224,0.025828972
234,1436982014690,-0.13368651,0.1855968,0.016971428
235,1436982014708,-0.13093764,0.16604911,0.0068921503
236,1436982014728,-0.12788329,0.13092434,-0.0037979921
237,1436982014748,-0.12879959,0.104351714,-0.010517509
238,1436982014767,-0.12238551,0.10465714,-0.0129609695
239,1436982014787,-0.10925191,0.11779075,-0.015709862
240,1436982014808,-0.105892144,0.12878633,-0.01662616
241,1436982014830,-0.092758544,0.12695372,-0.013571835
242,1436982014850,-0.08359557,0.11504186,-0.013266402
243,1436982014866,-0.06496418,0.107100606,-0.018153325
244,1436982014902,-0.041445866,0.12420484,-0.016015295
245,1436982014907,-0.020981882,0.13764387,-0.013877268
246,1436982014929,-0.016400393,0.14497426,-0.014488134
247,1436982014948,-0.017316692,0.15413722,-0.013571835
248,1436982014968,-0.031061158,0.16330022,-0.014182701
249,1436982014986,-0.048470818,0.17979357,-0.011433807
250,1436982015007,-0.07565432,0.19017828,-0.017237026
251,1436982015027,-0.067713074,0.19720322,-0.014488134
252,1436982015050,-0.0020450577,0.19048372,-0.008379481
253,1436982015068,0.06545555,0.1932326,-0.00013280008
254,1436982015090,0.12654208,0.20117384,0.014527966
255,1436982015109,0.16105595,0.19750866,0.024912674
256,1436982015129,0.1793819,0.20331189,0.03132676
257,1436982015148,0.21359038,0.20911512,0.04415493
258,1436982015170,0.260627,0.21705636,0.059731994
259,1436982015189,0.30338758,0.21827808,0.06858954
260,1436982015211,0.32782218,0.2051445,0.07133844
261,1436982015264,0.34278837,0.21247485,0.08111228
262,1436982015267,0.32965478,0.24454528,0.08844266
263,1436982015268,0.31132883,0.26195493,0.09058069
264,1436982015289,0.30308214,0.23843664,0.10249256
265,1436982015307,0.2969735,0.19475976,0.10249256
266,1436982015327,0.2746769,0.15810785,0.09760564
267,1436982015347,0.25604552,0.12084508,0.09332958
268,1436982015368,0.25085315,0.10740604,0.10585232
269,1436982015389,0.24230105,0.13122979,0.11990222
270,1436982015407,0.20656541,0.14100364,0.12387285
271,1436982015427,0.19159922,0.15963502,0.13425756
272,1436982015448,0.20351109,0.16391107,0.14739116
273,1436982015470,0.22305879,0.14039277,0.1385336
274,1436982015489,0.23985758,0.09824306,0.106768616
275,1436982015510,0.23741412,0.06556177,0.06797867
276,1436982015530,0.27437147,0.04418149,0.027356137
277,1436982015547,0.3476753,0.019441446,0.02430181
278,1436982015567,0.33759603,-0.02423542,0.056677666
279,1436982015589,0.28933766,-0.0315658,0.117153324
280,1436982015612,0.2728443,-0.0022442713,0.15258351
281,1436982015632,0.28200728,0.0023372173,0.16877145
282,1436982015656,0.29972237,-0.009574652,0.16541168
283,1436982015672,0.30216584,-0.012018114,0.14891832
284,1436982015691,0.28445074,-0.0019388385,0.117153324
285,1436982015759,0.2868942,0.02005231,0.0728656
286,1436982015760,0.29544634,0.020357743,0.041406035
287,1436982015761,0.28811592,0.006307844,0.02552354
288,1436982015768,0.30186042,0.021579474,0.016665995
289,1436982015788,0.3055256,0.051511873,0.013000803
290,1436982015808,0.28750506,0.072281286,0.020636618
291,1436982015828,0.22611311,0.08908008,0.03621368
292,1436982015849,0.18365797,0.07472475,0.056066804
293,1436982015868,0.19770786,0.047235813,0.08447204
294,1436982015890,0.22916743,0.016081687,0.10340886
295,1436982015909,0.23619238,-0.026373446,0.11990222
296,1436982015929,0.2248914,-0.029733203,0.12662174
297,1436982015952,0.18885034,-0.023013689,0.14403139
298,1436982015974,0.14700606,-0.037979886,0.17182577
299,1436982015997,0.095082514,-0.035536423,0.20175816
300,1436982016009,0.06209579,-0.019653931,0.22588734
301,1436982016038,0.075840265,0.0020317845,0.25032195
302,1436982016054,0.054154545,-0.002855137,0.34225717
303,1436982016073,0.07706199,0.06434004,0.42991632
304,1436982016094,0.3852435,0.16116218,0.43297067
305,1436982016112,0.7181651,0.10251912,0.4332761
306,1436982016130,0.9307462,0.105573446,0.43938473
307,1436982016148,0.6350874,0.1932326,0.47145516
308,1436982016169,0.21236864,0.33709136,0.42747286
309,1436982016208,0.0733968,0.5368443,0.23779921
310,1436982016209,0.0028418638,0.63488823,0.037740845
311,1436982016232,0.11157588,0.5918222,-0.22493121
312,1436982016249,0.49642098,0.4244451,-0.37001172
313,1436982016273,0.8418653,0.24546158,-0.36665195
314,1436982016311,0.72152483,0.29036018,-0.33091635
315,1436982016312,0.3137723,0.48125556,-0.22462578
316,1436982016329,0.05629257,0.7445385,-0.10153643
317,1436982016351,-0.013040632,0.90153086,-0.065800816
318,1436982016369,-0.007542845,1.0600504,-0.1574306
319,1436982016393,0.055681705,1.1791692,-0.26158312
320,1436982016409,0.06820445,1.213683,-0.36207047
321,1436982016432,0.08225435,1.1364086,-0.37764752
322,1436982016449,0.20076221,0.9586468,-0.32633483
323,1436982016469,0.28292358,0.7069703,-0.26005596
324,1436982016489,0.15616904,0.5313465,-0.23073444
325,1436982016509,-0.20240885,0.24729419,-0.2884612
326,1436982016529,-0.44644952,-0.07982416,-0.391392
327,1436982016549,-0.5157827,-0.347994,-0.4469807
328,1436982016572,-0.47760367,-0.48879847,-0.5123433
329,1436982016589,-0.5399119,-0.84401655,-0.50745636
330,1436982016608,-0.48707205,-1.1268471,-0.26433203
331,1436982016628,0.08225435,-0.93259203,0.039878875
332,1436982016661,0.05262738,-0.32844633,0.34103543
333,1436982016669,-0.26257908,-0.35776785,0.61409223
334,1436982016688,0.92127776,-0.47658113,0.6278367
335,1436982016711,1.0324552,-0.2346785,0.4259457
336,1436982016731,0.11340847,-1.1790762,0.4363304
337,1436982016751,-0.3068668,-1.2426062,0.5136049
338,1436982016770,-0.26716056,-1.0468239,0.4876431
339,1436982016789,-0.044805624,-1.0663716,0.5343743
340,1436982016812,0.040104643,-1.075229,0.7439011
341,1436982016835,0.010172246,-1.1256255,0.86973935
342,1436982016848,-0.007848278,-1.2441332,0.8712665
343,1436982016868,-0.013651498,-1.2016782,0.6315019
344,1436982016888,-0.42140403,-0.8666186,0.46015418
345,1436982016909,-0.8514532,-0.6442636,0.37860364
346,1436982016928,-1.0991591,-0.5382785,0.23443945
347,1436982016961,-0.75127125,-0.25575337,0.031021327
348,1436982016974,-0.28121048,0.21216944,-0.09390061
349,1436982016989,-0.3816978,0.8028762,-0.14368613
350,1436982017010,-0.8700846,1.3343289,-0.2426463
351,1436982017036,-1.1984247,1.5905869,-0.41552117
352,1436982017049,-0.98309463,1.4348162,-0.5752624
353,1436982017070,0.009255949,1.1861941,-0.65039885
354,1436982017088,1.0477269,1.1177772,-0.6210773
355,1436982017111,1.3742343,0.83158684,-0.3764258
356,1436982017132,0.54681736,-0.12289015,-0.47324795
357,1436982017151,-0.73813766,0.17857185,-0.26952437
358,1436982017172,-0.8655031,0.9998802,-0.46316865
359,1436982017193,-0.5023437,1.7875909,-0.76066
360,1436982017210,-0.18958068,2.1177635,-0.9252882
361,1436982017229,0.14425716,1.9952852,-0.8935232
362,1436982017249,0.58408016,1.5823402,-0.84434855
363,1436982017276,0.786582,1.4387869,-0.7820403
364,1436982017321,0.59751916,1.3013421,-0.52517146
365,1436982017322,-0.107113875,0.95528704,-0.28265798
366,1436982017331,-0.786396,0.4901131,-0.31045234
367,1436982017351,-0.7109542,0.21736178,-0.4634741
368,1436982017369,-0.20240885,0.14894488,-0.48668697
369,1436982017390,0.2569618,-0.06669056,-0.27685475
370,1436982017411,-0.10925191,-0.5251449,0.22374931
371,1436982017431,-0.80166763,-0.78934413,0.43388695
372,1436982017450,-0.63581777,-0.6546483,0.46962258
373,1436982017469,0.5116926,-0.5517175,0.7741389
374,1436982017492,0.754817,-0.8568447,0.9677832
375,1436982017509,1.6143043,-0.32478112,0.79338115
376,1436982017531,0.9420472,-0.32050508,0.4528238
377,1436982017553,-0.11963662,-1.5914102,0.48550507
