id,attr_time,attr_x,attr_y,attr_z
1,1436982010031,-0.01038471,0.027794369,-0.016493361
2,1436982010050,-0.008857546,0.03145956,-0.017104227
3,1436982010070,-0.007330383,0.032986723,-0.017104227
4,1436982010093,-0.0067195175,0.03176499,-0.020463986
5,1436982010112,-0.007330383,0.030848695,-0.020158553
6,1436982010132,-0.008552114,0.032986723,-0.02107485
7,1436982010151,-0.0027488936,0.029626964,-0.021991149
8,1436982010172,0.004276057,0.03268129,-0.024129177
9,1436982010194,0.0015271631,0.030848695,-0.019547688
10,1436982010214,-0.0018325958,0.028405234,-0.01985312
11,1436982010234,-0.0009162979,0.03145956,-0.023518313
12,1436982010254,-0.0036651916,0.0290161,-0.024129177
13,1436982010274,-0.0036651916,0.033292156,-0.02076942
14,1436982010294,0.0,0.03481932,-0.022296581
15,1436982010314,-0.004886922,0.032070424,-0.022296581
16,1436982010334,-0.0061086523,0.021991149,-0.020158553
17,1436982010354,-0.0067195175,0.027794369,-0.021685716
18,1436982010376,-0.005192355,0.028405234,-0.025961773
19,1436982010390,-0.0030543262,0.030848695,-0.02321288
20,1436982010414,-0.0027488936,0.027488936,-0.023518313
21,1436982010432,-0.0033597588,0.03176499,-0.022907447
22,1436982010452,-0.0070249503,0.03176499,-0.022602014
23,1436982010472,-0.007330383,0.028710667,-0.02076942
24,1436982010496,-0.003970624,0.030543262,-0.019547688
25,1436982010517,-0.00061086525,0.029932396,-0.018020526
26,1436982010537,-0.0030543262,0.029932396,-0.021685716
27,1436982010553,-0.0033597588,0.031154128,-0.018325957
28,1436982010574,-0.0018325958,0.033292156,-0.020158553
29,1436982010599,0.0030543262,0.029626964,-0.02107485
30,1436982010615,0.003970624,0.02076942,-0.022602014
31,1436982010633,-0.00061086525,0.023518313,-0.01863139
32,1436982010701,-0.008552114,0.029932396,-0.012217305
33,1436982010702,-0.0067195175,0.02565634,-0.014966198
34,1436982010704,-0.005497787,0.027488936,-0.018325957
35,1436982010711,-0.008246681,0.025961773,-0.016798794
36,1436982010731,-0.0106901415,0.03268129,-0.018020526
37,1436982010751,-0.006414085,0.03940081,-0.017715093
38,1436982010771,-0.0067195175,0.03145956,-0.015882496
39,1436982010791,-0.004886922,0.025961773,-0.018325957
40,1436982010816,-0.0067195175,0.029626964,-0.019242255
41,1436982010833,0.004886922,0.032375857,-0.02687807
42,1436982010853,0.002443461,0.026572637,-0.027794369
43,1436982010872,0.00030543262,0.027183503,-0.023823744
44,1436982010893,-0.008246681,0.027183503,-0.01740966
45,1436982010940,-0.0067195175,0.03481932,-0.01863139
46,1436982010941,-0.005497787,0.032375857,-0.014966198
47,1436982010954,-0.002443461,0.027183503,-0.014660766
48,1436982010974,-0.009773844,0.025961773,-0.0106901415
49,1436982010994,-0.01038471,0.029321533,-0.008246681
50,1436982011014,-0.013133603,0.03268129,-0.012217305
51,1436982011034,-0.005497787,0.030848695,-0.0125227375
52,1436982011054,-0.009773844,0.0290161,-0.01282817
53,1436982011074,-0.008857546,0.031154128,-0.008857546
54,1436982011092,-0.009162978,0.034208454,-0.0021380284
55,1436982011115,-0.013439035,0.03604105,0.0033597588
56,1436982011135,-0.016187929,0.03145956,0.007330383
57,1436982011152,-0.015271631,0.025045475,0.008857546
58,1436982011173,-0.013439035,0.028710667,-0.006414085
59,1436982011195,-0.009773844,0.046120327,-0.01160644
60,1436982011218,-0.016493361,0.048258353,-0.008552114
61,1436982011236,-0.010995574,0.032070424,-0.0125227375
62,1436982011256,-0.0106901415,0.03268129,-0.013439035
63,1436982011275,-0.010079277,0.03481932,-0.011911872
64,1436982011292,-0.0076358155,0.02565634,-0.011911872
65,1436982011312,-0.00580322,0.02076942,-0.014966198
66,1436982011333,-0.009773844,0.02687807,-0.017715093
67,1436982011353,-0.015271631,0.03848451,-0.015882496
68,1436982011372,-0.0125227375,0.03390302,-0.0143553335
69,1436982011440,-0.008552114,0.024740042,-0.017715093
70,1436982011441,-0.005497787,0.02443461,-0.020463986
71,1436982011442,-0.0076358155,0.02321288,-0.020463986
72,1436982011452,-0.009162978,0.03390302,-0.02443461
73,1436982011476,-0.0027488936,0.027794369,-0.027794369
74,1436982011492,-0.005192355,0.02687807,-0.023518313
75,1436982011512,0.0009162979,0.025045475,-0.024740042
76,1436982011556,0.0,0.02565634,-0.029321533
77,1436982011557,-0.003970624,0.025045475,-0.025045475
78,1436982011573,-0.008552114,0.028710667,-0.02565634
79,1436982011594,-0.003970624,0.022296581,-0.024740042
80,1436982011613,-0.0027488936,0.025350908,-0.020463986
81,1436982011632,-0.004886922,0.02565634,-0.022602014
82,1436982011653,-0.00030543262,0.030848695,-0.026572637
83,1436982011674,-0.0030543262,0.028710667,-0.027488936
84,1436982011695,-0.00061086525,0.033292156,-0.0290161
85,1436982011715,0.0,0.03023783,-0.028099801
86,1436982011735,0.00061086525,0.025045475,-0.031154128
87,1436982011755,-0.002443461,0.032070424,-0.028710667
88,1436982011774,-0.0030543262,0.032070424,-0.024129177
89,1436982011794,0.002443461,0.029321533,-0.034513887
90,1436982011812,0.0,0.027794369,-0.03390302
91,1436982011834,0.0036651916,0.03481932,-0.03359759
92,1436982011855,0.0015271631,0.027794369,-0.029321533
93,1436982011873,0.004886922,0.02443461,-0.030543262
94,1436982011893,0.0018325958,0.023823744,-0.030543262
95,1436982011913,0.004581489,0.025961773,-0.031154128
96,1436982011936,0.002443461,0.027183503,-0.030543262
97,1436982011956,-0.005497787,0.027183503,-0.03176499
98,1436982011977,-0.0036651916,0.03023783,-0.032375857
99,1436982011994,0.00580322,0.029321533,-0.03390302
100,1436982012013,0.004886922,0.02321288,-0.032986723
101,1436982012032,0.00580322,0.020463986,-0.03176499
102,1436982012052,0.0076358155,0.01985312,-0.034208454
103,1436982012074,0.0033597588,0.023823744,-0.03268129
104,1436982012096,0.00030543262,0.028710667,-0.035430185
105,1436982012159,0.00030543262,0.028099801,-0.03481932
106,1436982012160,0.0009162979,0.023823744,-0.03176499
107,1436982012161,-0.0009162979,0.021380283,-0.03176499
108,1436982012173,0.0036651916,0.026572637,-0.032070424
109,1436982012197,0.003970624,0.027183503,-0.029321533
110,1436982012213,-0.00030543262,0.025045475,-0.028405234
111,1436982012232,-0.0009162979,0.02321288,-0.0290161
112,1436982012266,0.0030543262,0.0290161,-0.03268129
113,1436982012274,-0.0033597588,0.028099801,-0.03268129
114,1436982012294,0.004276057,0.03023783,-0.03268129
115,1436982012313,0.005192355,0.029932396,-0.03359759
116,1436982012334,-0.00061086525,0.023823744,-0.034208454
117,1436982012356,0.005192355,0.03145956,-0.03604105
118,1436982012374,0.0015271631,0.028405234,-0.03268129
119,1436982012394,-0.00061086525,0.024740042,-0.034208454
120,1436982012414,0.004581489,0.027794369,-0.032070424
121,1436982012433,0.0021380284,0.028099801,-0.03268129
122,1436982012453,0.0,0.028099801,-0.036651913
123,1436982012473,0.0021380284,0.029626964,-0.03145956
124,1436982012493,-0.00061086525,0.024129177,-0.02443461
125,1436982012515,0.004886922,0.015271631,-0.026572637
126,1436982012537,-0.00030543262,0.018020526,-0.026572637
127,1436982012553,0.0012217305,0.028099801,-0.027794369
128,1436982012575,0.00030543262,0.029321533,-0.02687807
129,1436982012599,-0.0036651916,0.028405234,-0.025045475
130,1436982012613,-0.002443461,0.021685716,-0.0290161
131,1436982012633,0.005192355,0.034208454,-0.030848695
132,1436982012654,0.00030543262,0.024129177,-0.02321288
133,1436982012679,0.00061086525,0.023518313,-0.02443461
134,1436982012694,0.0061086523,0.021991149,-0.032375857
135,1436982012716,0.003970624,0.020158553,-0.032070424
136,1436982012734,0.00061086525,0.022907447,-0.033292156
137,1436982012763,0.00580322,0.027794369,-0.032986723
138,1436982012781,0.007330383,0.02687807,-0.031154128
139,1436982012794,0.0012217305,0.024740042,-0.027794369
140,1436982012882,0.00030543262,0.019547688,-0.031154128
141,1436982012883,0.0021380284,0.027794369,-0.033292156
142,1436982012884,0.0036651916,0.030543262,-0.032375857
143,1436982012885,0.0012217305,0.025350908,-0.03176499
144,1436982013017,0.004276057,0.023518313,-0.03268129
145,1436982013018,0.002443461,0.022907447,-0.032070424
146,1436982013019,0.004581489,0.02687807,-0.03176499
147,1436982013107,0.008246681,0.020463986,-0.036651913
148,1436982013108,0.0018325958,0.021380283,-0.03145956
149,1436982013109,0.0021380284,0.02107485,-0.027488936
150,1436982013110,0.0012217305,0.025350908,-0.025961773
151,1436982013111,0.0015271631,0.01863139,-0.027488936
152,1436982013112,0.008857546,0.020463986,-0.026572637
153,1436982013113,0.003970624,0.015577064,-0.02321288
154,1436982013114,0.0027488936,0.02076942,-0.02443461
155,1436982013131,0.00580322,0.01985312,-0.030848695
156,1436982013137,-0.00061086525,0.024129177,-0.029626964
157,1436982013157,0.0,0.03176499,-0.03176499
158,1436982013174,-0.00061086525,0.032986723,-0.027488936
159,1436982013193,-0.0033597588,0.029321533,-0.02687807
160,1436982013213,-0.0012217305,0.03481932,-0.025045475
161,1436982013233,0.0,0.03176499,-0.025350908
162,1436982013254,-0.003970624,0.027488936,-0.02565634
163,1436982013275,0.005192355,0.02687807,-0.02687807
164,1436982013294,-0.00030543262,0.023823744,-0.025961773
165,1436982013314,-0.002443461,0.02443461,-0.019547688
166,1436982013334,0.00061086525,0.021685716,-0.021380283
167,1436982013354,-0.0012217305,0.025045475,-0.02321288
168,1436982013375,0.002443461,0.027794369,-0.024740042
169,1436982013394,-0.0015271631,0.022602014,-0.025961773
170,1436982013417,-0.00030543262,0.032070424,-0.024129177
171,1436982013434,-0.003970624,0.037873644,-0.02321288
172,1436982013454,-0.0076358155,0.03176499,-0.022602014
173,1436982013474,0.0,0.028405234,-0.023823744
174,1436982013500,0.005497787,0.032375857,-0.02443461
175,1436982013514,0.00061086525,0.029932396,-0.022602014
176,1436982013543,0.005497787,0.023518313,-0.025350908
177,1436982013554,0.00061086525,0.017715093,-0.024129177
178,1436982013575,0.005497787,0.022907447,-0.023823744
179,1436982013604,0.0015271631,0.021991149,-0.025350908
180,1436982013616,-0.00061086525,0.022907447,-0.021991149
181,1436982013714,-0.0067195175,0.02443461,-0.01985312
182,1436982013715,-0.004276057,0.030543262,-0.018020526
183,1436982013716,0.0012217305,0.028099801,-0.022296581
184,1436982013717,-0.0018325958,0.027488936,-0.022296581
185,1436982013718,-0.0018325958,0.024129177,-0.029626964
186,1436982013736,-0.0030543262,0.03634648,-0.03481932
187,1436982013754,0.0021380284,0.03970624,-0.03634648
188,1436982013774,-0.0033597588,0.032986723,-0.03268129
189,1436982013794,-0.0018325958,0.035124753,-0.03359759
190,1436982013814,0.00580322,0.03726278,-0.032375857
191,1436982013837,0.0125227375,0.035430185,-0.03359759
192,1436982013855,0.0076358155,0.031154128,-0.03268129
193,1436982013876,0.008857546,0.0290161,-0.03268129
194,1436982013897,0.009773844,0.028710667,-0.032070424
195,1436982013917,0.009162978,0.03268129,-0.028099801
196,1436982013937,0.0009162979,0.026267206,-0.026572637
197,1436982013957,-0.004581489,0.020463986,-0.020463986
198,1436982013975,-0.0036651916,0.025045475,-0.018936822
199,1436982013997,-0.0106901415,0.026572637,-0.014049901
200,1436982014017,-0.014966198,0.026572637,-0.013744468
201,1436982014037,-0.013744468,0.021685716,-0.018020526
202,1436982014057,-0.009468411,0.024740042,-0.02107485
203,1436982014075,-0.009773844,0.022907447,-0.025961773
204,1436982014096,-0.008552114,0.026572637,-0.0290161
205,1436982014117,-0.008552114,0.023518313,-0.026267206
206,1436982014135,-0.01282817,0.021991149,-0.03023783
207,1436982014157,-0.011911872,0.027488936,-0.027488936
208,1436982014177,-0.007330383,0.028405234,-0.026572637
209,1436982014196,-0.009468411,0.023823744,-0.022907447
210,1436982014217,-0.0106901415,0.018936822,-0.02565634
211,1436982014237,-0.010079277,0.026267206,-0.021685716
212,1436982014258,-0.008246681,0.025961773,-0.022907447
213,1436982014275,-0.006414085,0.024740042,-0.02687807
214,1436982014298,-0.0021380284,0.025045475,-0.030543262
215,1436982014316,-0.0061086523,0.032986723,-0.03145956
216,1436982014338,-0.007330383,0.03481932,-0.0290161
217,1436982014365,-0.009468411,0.03023783,-0.029321533
218,1436982014442,-0.0061086523,0.028710667,-0.0290161
219,1436982014443,-0.007330383,0.027488936,-0.027488936
220,1436982014455,-0.0070249503,0.03390302,-0.02687807
221,1436982014456,-0.0027488936,0.027794369,-0.032070424
222,1436982014457,-0.013744468,0.03604105,-0.026267206
223,1436982014481,-0.009773844,0.022296581,-0.027183503
224,1436982014510,-0.007330383,0.019242255,-0.031154128
225,1436982014515,-0.0030543262,0.027183503,-0.03359759
226,1436982014577,-0.003970624,0.0290161,-0.026572637
227,1436982014578,-0.008552114,0.022296581,-0.023518313
228,1436982014583,-0.0125227375,0.027794369,-0.021380283
229,1436982014601,-0.015882496,0.030543262,-0.023518313
230,1436982014615,-0.0143553335,0.030543262,-0.021991149
231,1436982014637,-0.01282817,0.022602014,-0.017104227
232,1436982014656,-0.016493361,0.02687807,-0.018325957
233,1436982014677,-0.017715093,0.016493361,-0.016493361
234,1436982014697,-0.010079277,0.018020526,-0.024129177
235,1436982014717,-0.013133603,0.029626964,-0.025350908
236,1436982014735,-0.006414085,0.028710667,-0.028710667
237,1436982014757,-0.003970624,0.026267206,-0.023823744
238,1436982014779,-0.0033597588,0.02565634,-0.024129177
239,1436982014797,-0.0012217305,0.022296581,-0.022907447
240,1436982014819,-0.00030543262,0.025350908,-0.028405234
241,1436982014842,-0.003970624,0.029321533,-0.026572637
242,1436982014857,-0.0067195175,0.024129177,-0.024740042
243,1436982014881,0.004581489,0.019242255,-0.032375857
244,1436982014901,0.0030543262,0.018936822,-0.022602014
245,1436982014917,-0.0027488936,-0.008857546,-0.016798794
246,1436982014938,0.006414085,-0.03145956,-0.024740042
247,1436982014955,-0.0033597588,-0.01863139,-0.02076942
248,1436982014975,-0.0021380284,-0.0033597588,-0.007941248
249,1436982014996,-0.0018325958,-0.03145956,-0.005192355
250,1436982015022,-0.0027488936,-0.04642576,-0.01160644
251,1436982015037,0.0,-0.059864793,-0.0033597588
252,1436982015057,0.004581489,-0.043066,-0.003970624
253,1436982015076,0.0076358155,-0.036651913,-0.006414085
254,1436982015100,0.0033597588,-0.055588737,-0.002443461
255,1436982015170,-0.0061086523,-0.060170226,-0.0027488936
256,1436982015171,-0.004581489,-0.058948494,0.013439035
257,1436982015172,-0.0009162979,-0.044593163,0.020158553
258,1436982015177,0.004886922,-0.034513887,0.022296581
259,1436982015197,0.007330383,-0.014049901,0.01985312
260,1436982015217,0.014049901,-0.00061086525,0.025045475
261,1436982015236,0.008857546,-0.01160644,0.023823744
262,1436982015257,0.018020526,-0.008246681,0.01863139
263,1436982015292,0.022296581,0.05100725,0.023518313
264,1436982015296,0.025045475,0.067500606,0.034513887
265,1436982015317,0.02687807,0.04550946,0.0421497
266,1436982015337,0.026267206,0.038789943,0.05222898
267,1436982015358,0.036957346,0.03390302,0.06719518
268,1436982015379,0.04428773,0.013439035,0.07849618
269,1436982015397,0.05589417,-0.0027488936,0.09040806
270,1436982015419,0.05009095,-0.018020526,0.09621128
271,1436982015436,0.06047566,-0.036651913,0.09896017
272,1436982015458,0.048563786,0.0018325958,0.11575896
273,1436982015479,0.048258353,-0.0015271631,0.12217305
274,1436982015498,0.049480084,-0.0070249503,0.118507855
275,1436982015519,0.05681047,0.03359759,0.110872045
276,1436982015543,0.06780604,0.05589417,0.09254608
277,1436982015566,0.074830994,0.08002335,0.08979719
278,1436982015577,0.0729984,0.05955936,0.09193522
279,1436982015599,0.07513642,0.11056661,0.13561209
280,1436982015616,0.06841691,0.027183503,0.16707164
281,1436982015639,0.065973446,-0.014049901,0.16646078
282,1436982015659,0.07086037,0.038789943,0.17134771
283,1436982015678,0.07849618,0.038789943,0.17104226
284,1436982015699,0.08032878,-0.022296581,0.1695151
285,1436982015719,0.09590584,-0.036957346,0.14874569
286,1436982015739,0.102319926,-0.05222898,0.14660765
287,1436982015760,0.10445796,-0.0888809,0.13713925
288,1436982015779,0.103847094,-0.09132435,0.13744467
289,1436982015797,0.10629055,-0.059864793,0.13652839
290,1436982015826,0.113926366,-0.024740042,0.1337795
291,1436982015887,0.13041973,-0.04337143,0.14110987
292,1436982015899,0.16493362,-0.12461651,0.13133603
293,1436982015900,0.1777618,-0.17256944,0.113926366
294,1436982015901,0.19364429,-0.1600467,0.1020145
295,1436982015916,0.20525073,-0.14966199,0.11575896
296,1436982015937,0.2098322,-0.14935656,0.14385876
297,1436982015957,0.2012801,-0.1423316,0.17165314
298,1436982015976,0.16768251,-0.16523905,0.20280726
299,1436982015999,0.14813483,-0.16523905,0.20861048
300,1436982016016,0.129198,-0.10934488,0.20647246
301,1436982016041,0.11789699,-0.0983493,0.18997909
302,1436982016060,0.10293079,-0.01740966,0.1863139
303,1436982016077,0.07544186,0.11148291,0.20066923
304,1436982016097,0.050701816,0.15485434,0.23151793
305,1436982016120,0.023823744,0.19914207,0.2519819
306,1436982016139,0.0009162979,0.30024028,0.27091873
307,1436982016160,-0.02565634,0.35094208,0.31429017
308,1436982016180,-0.059253927,0.34269542,0.3707952
309,1436982016199,-0.09101892,0.3390302,0.42149702
310,1436982016220,-0.13164146,0.37507126,0.49418998
311,1436982016239,-0.15454891,0.36743546,0.5338962
312,1436982016260,-0.1572978,0.3213151,0.5390886
313,1436982016281,-0.16401732,0.32986724,0.5320636
314,1436982016296,-0.16646078,0.38148534,0.54458636
315,1436982016320,-0.17256944,0.3662137,0.5748242
316,1436982016339,-0.18417588,0.35033122,0.5873469
317,1436982016360,-0.18845193,0.36926803,0.6258314
318,1436982016380,-0.15668693,0.29901853,0.65668017
319,1436982016399,-0.14172074,0.21502456,0.68600166
320,1436982016420,-0.14660765,0.2556471,0.7141015
321,1436982016440,-0.16279559,0.37323865,0.7761043
322,1436982016460,-0.18051068,0.32650748,0.84574294
323,1436982016480,-0.21563543,0.25320363,0.9627236
324,1436982016501,-0.23518312,0.19303341,1.070236
325,1436982016521,-0.25045475,0.10170906,1.1643091
326,1436982016544,-0.312763,0.06811147,1.2770138
327,1436982016660,-0.3652974,0.21746802,1.4175128
328,1436982016661,-0.410196,0.44684792,1.5479325
329,1436982016662,-0.4718934,0.50640726,1.7559321
330,1436982016663,-0.56230146,0.5751296,1.9892827
331,1436982016664,-0.6582073,1.0164797,2.1933117
332,1436982016665,-0.63499445,1.3976597,2.5011878
333,1436982016679,-0.40378192,1.4492778,3.0631838
334,1436982016697,-0.2938262,0.981355,3.5479054
335,1436982016719,-0.5497787,0.41263947,4.125784
336,1436982016738,-0.5390886,-0.13530666,4.5304823
337,1436982016773,-0.2602286,-1.0564915,2.8915308
338,1436982016777,0.15454891,-0.18203785,1.8451185
339,1436982016801,0.08093964,-0.10476339,0.39858958
340,1436982016818,0.355829,1.6798794,-0.012217305
341,1436982016843,0.47739118,1.7284433,-0.70249504
342,1436982016861,0.59773165,0.528093,-2.1716259
343,1436982016880,0.5708536,0.29535335,-3.5424075
344,1436982016900,0.64599,1.0650436,-4.309654
345,1436982016920,0.8011498,0.9300423,-5.1019464
346,1436982016940,0.88270026,-0.12186762,-5.6807413
347,1436982016961,0.89949906,-1.4153748,-6.1236186
348,1436982016980,0.8390234,-1.8069394,-6.5536675
349,1436982017000,0.7654142,-1.887879,-6.536869
350,1436982017020,0.6658431,-1.7397442,-6.0261855
351,1436982017038,0.59498274,-1.4993688,-5.4287596
352,1436982017060,0.6441574,-0.8145888,-3.873802
353,1436982017080,0.54733527,0.3839288,-1.9694295
354,1436982017097,0.26145032,1.0461067,-0.57543504
355,1436982017117,-0.051923547,1.0195341,0.8943067
356,1436982017138,-0.23823744,-0.16157386,2.2996023
357,1436982017162,-0.053145275,-2.3075435,3.1914654
358,1436982017183,-0.2012801,-1.7489072,5.2934527
359,1436982017203,0.16584991,0.15332718,3.0121765
360,1436982017220,0.016493361,-0.84665924,2.7962356
361,1436982017238,0.029626964,0.5720753,2.8047879
362,1436982017259,0.029626964,0.90224797,2.38268
363,1436982017280,-0.09621128,0.0,1.9703459
364,1436982017299,-0.1337795,0.3652974,1.6545285
365,1436982017318,-0.17837265,0.5448918,1.2990049
366,1436982017390,-0.2843578,0.4560109,1.0888673
367,1436982017391,-0.40744713,0.71776664,0.94225967
368,1436982017392,-0.3921755,0.8210029,0.6249151
369,1436982017399,-0.25045475,-0.11056661,0.5742133
370,1436982017420,-0.08032878,-0.6750061,0.6453791
371,1436982017441,0.0036651916,-0.32803464,0.39736784
