id,attr_time,attr_x,attr_y,attr_z
1,1437229794033,-0.0032535251,-0.09492315,-0.002496582
2,1437229794056,-0.008751312,-0.09339599,0.0060555316
3,1437229794076,-0.018525157,-0.08056782,0.015523944
4,1437229794096,-0.005086121,-0.06926681,0.021327162
5,1437229794115,0.0031605605,-0.03383663,0.021021731
6,1437229794133,-0.00019919872,-0.0176487,0.012469618
7,1437229794179,-0.00019919872,-0.031087734,0.013385914
8,1437229794189,-0.03043703,-0.060103837,0.017967405
9,1437229794195,-0.021884914,-0.06712879,0.029573845
10,1437229794214,-0.008140448,-0.051857155,0.037209656
11,1437229794236,0.0037714243,-0.022841055,0.03598793
12,1437229794252,0.004076857,-0.010012884,0.028657546
13,1437229794274,0.00438229,-0.03658552,0.024381489
14,1437229794296,-0.012416504,-0.05827124,0.015829375
15,1437229794313,-0.023412079,-0.06926681,0.0063609644
16,1437229794335,-0.023412079,-0.08911994,0.0109424535
17,1437229794353,-0.013027369,-0.10042094,0.0036120708
18,1437229794374,-0.009362178,-0.094617724,0.011553319
19,1437229794393,-0.009362178,-0.0597984,0.012164185
20,1437229794413,-0.023412079,-0.034752928,0.0066663963
21,1437229794435,-0.023412079,-0.02711711,0.0127750505
22,1437229794454,-0.0047806883,-0.026811678,0.018272838
23,1437229794476,0.01629416,-0.03505836,0.013691347
24,1437229794495,0.025762575,-0.038418118,0.010331588
25,1437229794514,0.029733198,-0.044832204,0.008498993
26,1437229794535,0.047448292,-0.064379886,0.009720722
27,1437229794555,0.059054732,-0.07171027,0.0109424535
28,1437229794576,0.056916706,-0.060103837,0.00819356
29,1437229794595,0.056916706,-0.05552235,0.018272838
30,1437229794615,0.059054732,-0.071404845,0.025297787
31,1437229794634,0.070355736,-0.0775135,0.01399678
32,1437229794655,0.08990343,-0.08392759,0.016134808
33,1437229794675,0.08135131,-0.08545475,0.008804426
34,1437229794695,0.06699598,-0.08545475,0.0026957723
35,1437229794717,0.057222135,-0.08392759,0.0060555316
36,1437229794750,0.042561367,-0.07842979,0.018578269
37,1437229794757,0.031565793,-0.062852725,0.024992354
38,1437229794774,0.025762575,-0.030171439,0.025908653
39,1437229794794,0.025457142,0.0025098529,0.019494567
40,1437229794819,0.01721046,0.011367399,0.01735654
41,1437229794841,-0.003558958,0.013199994,0.012469618
42,1437229794856,-0.015470831,0.014421726,0.014913078
43,1437229794874,-0.020357752,0.017781485,0.015523944
44,1437229794894,-0.023106646,0.005869612,0.014913078
45,1437229794917,-0.031047894,0.0006772578,0.010026155
46,1437229794934,-0.033491354,-0.009096587,0.008804426
47,1437229794955,-0.032269623,-0.001460772,0.014302213
48,1437229794974,-0.03898914,-0.0023770686,0.010331588
49,1437229795002,-0.035934817,-0.013372643,0.014913078
50,1437229795028,-0.03990544,-0.028338842,0.015218511
51,1437229795035,-0.046319526,-0.034447495,0.011247886
52,1437229795059,-0.054260775,-0.0466648,0.004833801
53,1437229795074,-0.05945313,-0.035363793,0.008804426
54,1437229795095,-0.06372918,-0.016732402,0.01399678
55,1437229795118,-0.0563988,-0.00726399,0.010637021
56,1437229795137,-0.04357063,-0.008180289,0.010026155
57,1437229795157,-0.0423489,-0.011540048,0.003306638
58,1437229795178,-0.051817313,-0.023757353,0.006971829
59,1437229795198,-0.03868371,-0.025284518,-0.00066398643
60,1437229795218,-0.031353325,-0.021924756,-0.0028020146
61,1437229795237,-0.03196419,-0.028644275,-0.0009694188
62,1437229795257,-0.03318592,-0.026506245,-5.3120777e-05
63,1437229795277,-0.032575056,-0.020397592,0.00086317677
64,1437229795295,-0.03624025,-0.03628009,-0.00066398643
65,1437229795318,-0.040516306,-0.043610472,-0.0009694188
66,1437229795337,-0.05151188,-0.028949708,0.012469618
67,1437229795356,-0.044181496,-0.007874856,0.01735654
68,1437229795376,-0.026160972,-0.008791154,0.019189134
69,1437229795398,-0.0044752564,-0.013372643,0.019494567
70,1437229795417,-0.0032535251,-0.015510671,0.017661972
71,1437229795437,-0.007529582,-0.0042096656,0.024686921
72,1437229795456,-0.0102784755,-0.0005444735,0.025297787
73,1437229795476,-0.008751312,0.0018989872,0.028352113
74,1437229795497,0.0056040213,0.01503259,0.027435815
75,1437229795517,0.01018551,0.010145668,0.022854326
76,1437229795536,0.01629416,0.0055641793,0.020410866
77,1437229795556,0.021486519,0.010145668,0.019189134
78,1437229795623,0.026984306,0.019308647,0.018578269
79,1437229795624,0.023319112,0.0015935553,0.013080481
80,1437229795625,0.024846276,-0.0060422607,0.010331588
81,1437229795635,0.025762575,-0.0035988,0.013385914
82,1437229795663,0.03217666,-0.010623749,0.018883701
83,1437229795676,0.03339839,-0.014594374,0.017661972
84,1437229795695,0.03920161,-0.010012884,0.023770625
85,1437229795716,0.0419505,-0.022841055,0.031101005
86,1437229795736,0.043172233,-0.034752928,0.03507163
87,1437229795760,0.046531998,-0.030476872,0.03018471
88,1437229795779,0.0419505,-0.033531196,0.020716298
89,1437229795796,0.0437831,-0.042999607,0.027130382
90,1437229795818,0.041034207,-0.0316986,0.029268412
91,1437229795837,0.03950704,-0.037807252,0.027435815
92,1437229795857,0.039812475,-0.04177788,0.027435815
93,1437229795877,0.028511466,-0.04697023,0.020716298
94,1437229795898,0.014461568,-0.048802827,0.01735654
95,1437229795919,0.00438229,-0.048497397,0.013080481
96,1437229795936,-0.0020317957,-0.052162584,0.013080481
97,1437229795957,-0.00844588,-0.03597466,0.019189134
98,1437229795980,-0.011805639,-0.016732402,0.018272838
99,1437229795997,-0.010583908,-0.016121536,0.018883701
100,1437229796023,-0.011500206,-0.0035988,0.015218511
101,1437229796036,-0.0044752564,-0.005125962,0.020716298
102,1437229796057,-0.0020317957,-0.0029879343,0.021632595
103,1437229796077,-0.009056745,-0.0066531263,0.020105433
104,1437229796097,-0.021579484,-0.019175865,0.021938028
105,1437229796118,-0.024022944,-0.03963985,0.014607646
106,1437229796135,-0.012416504,-0.059187535,0.0127750505
107,1437229796156,0.013850702,-0.05857667,0.014913078
108,1437229796175,0.02209738,-0.049413692,0.015523944
109,1437229796202,0.018737623,-0.04238874,0.022548893
110,1437229796217,0.017515892,-0.035363793,0.022548893
111,1437229796237,0.016599594,-0.022535622,0.019494567
112,1437229796257,0.014461568,-0.01306721,0.024381489
113,1437229796280,0.019959355,-0.018565,0.025297787
114,1437229796363,0.02637344,-0.025589947,0.021632595
115,1437229796364,0.023624545,-0.039945282,0.021632595
116,1437229796365,0.02423541,-0.027727976,0.017967405
117,1437229796366,0.019959355,-0.00726399,0.019189134
118,1437229796377,0.020875653,-0.013983509,0.016745673
119,1437229796395,0.038896173,-0.0466648,0.006971829
120,1437229796422,0.067606844,-0.07629177,-0.0009694188
121,1437229796447,0.084711075,-0.09370142,0.0042229355
122,1437229796455,0.097844675,-0.105918735,0.008804426
123,1437229796475,0.09112516,-0.16486722,0.014913078
124,1437229796495,0.063025355,-0.18502578,0.007277262
125,1437229796515,0.015377866,-0.1450141,0.011858752
126,1437229796536,-0.0029480923,-0.027727976,0.008804426
127,1437229796555,-0.007835015,0.037634604,0.01644024
128,1437229796577,0.0010225307,0.010145668,0.020105433
129,1437229796596,0.02515171,-0.03628009,0.024686921
130,1437229796619,0.045310266,-0.05277345,0.021327162
131,1437229796638,0.03797988,-0.037196387,0.015523944
132,1437229796656,0.030649496,-0.034142062,0.0039175027
133,1437229796679,0.030344063,-0.042694174,-0.0012748516
134,1437229796696,0.026068008,-0.07720806,-0.010743262
135,1437229796716,0.02057022,-0.09492315,-0.0043291776
136,1437229796735,0.010796376,-0.082705855,0.010026155
137,1437229796756,0.014767,-0.05827124,0.024992354
138,1437229796778,0.01629416,-0.036890954,0.022854326
139,1437229796797,0.022402814,-0.03505836,0.01644024
140,1437229796816,0.015377866,-0.03597466,0.012469618
141,1437229796839,0.00438229,-0.040556148,0.017967405
142,1437229796856,-0.0066132843,-0.045137636,0.017051106
143,1437229796876,-0.013638235,-0.048802827,0.015218511
144,1437229796900,-0.024328377,-0.044832204,0.015218511
145,1437229796916,-0.039294574,-0.026506245,0.01644024
146,1437229796940,-0.03654568,-0.0002390407,0.017051106
147,1437229796959,-0.029826164,0.0034261504,0.01399678
148,1437229796982,-0.019441454,-0.0002390407,0.011553319
149,1437229797077,-0.0063078515,-0.001766203,0.015218511
150,1437229797078,-0.005391554,-0.00084990636,0.018272838
151,1437229797079,-0.0047806883,0.005869612,0.025297787
152,1437229797080,0.0089637805,-0.011845481,0.025297787
153,1437229797081,0.02423541,-0.04238874,0.02224346
154,1437229797096,0.020264788,-0.05368975,0.007888127
155,1437229797121,0.007742049,-0.04971913,0.007888127
156,1437229797136,-0.015165398,-0.04788653,0.008498993
157,1437229797156,-0.009056745,-0.047275666,0.016745673
158,1437229797188,0.009574644,-0.02131389,0.023465192
159,1437229797197,0.02209738,-0.005125962,0.02315976
160,1437229797222,0.024846276,-0.0005444735,0.007888127
161,1437229797237,0.016599594,-0.033531196,0.0060555316
162,1437229797259,0.0007170979,-0.04086158,0.008804426
163,1437229797278,-0.009056745,-0.024979085,0.017051106
164,1437229797299,0.0034659915,-0.0042096656,0.019189134
165,1437229797318,0.025457142,-0.015205238,0.011247886
166,1437229797337,0.035536416,-0.034142062,0.009109858
167,1437229797359,0.027289735,-0.042694174,0.00819356
168,1437229797377,0.017821325,-0.031393167,0.0057500987
169,1437229797399,0.020875653,-0.025284518,0.009415291
170,1437229797417,0.029733198,-0.033225764,0.011247886
171,1437229797437,0.03462012,-0.022535622,0.018272838
172,1437229797458,0.025762575,-0.010623749,0.019494567
173,1437229797479,0.021181086,0.0012881225,0.018272838
174,1437229797497,0.021181086,6.6392124e-05,0.023770625
175,1437229797517,0.012628971,-0.005736828,0.019189134
176,1437229797537,0.0056040213,-0.005431395,0.01644024
177,1437229797557,0.0025496949,-0.00084990636,0.02315976
178,1437229797578,0.009880077,0.0034261504,0.021632595
179,1437229797599,0.03003863,-0.00726399,0.02315976
180,1437229797621,0.034009255,-0.013983509,0.024076058
181,1437229797637,0.024846276,-0.030171439,0.028352113
182,1437229797660,0.02209738,-0.035669226,0.020716298
183,1437229797677,0.03767445,-0.021008458,0.018272838
184,1437229797698,0.054473244,-0.010012884,0.0127750505
185,1437229797728,0.080435015,-0.013983509,0.008804426
186,1437229797797,0.09020886,-0.030171439,0.0026957723
187,1437229797798,0.09876097,-0.04208331,0.013691347
188,1437229797799,0.10822938,-0.051857155,0.0127750505
189,1437229797800,0.1253336,-0.049108263,0.001474042
190,1437229797820,0.12289015,-0.057660375,-0.00066398643
191,1437229797836,0.113727175,-0.056744073,0.007277262
192,1437229797856,0.10273159,-0.050329994,0.021632595
193,1437229797881,0.10425876,-0.058882106,0.043929175
194,1437229797896,0.118308656,-0.06132557,0.04331831
195,1437229797919,0.13510744,-0.060714703,0.029573845
196,1437229797942,0.14946277,-0.041167013,0.008804426
197,1437229797958,0.17053764,-0.041472446,-0.016546482
198,1437229797977,0.17634085,-0.061020132,-0.028763788
199,1437229797999,0.17634085,-0.08545475,-0.018073646
200,1437229798019,0.18855816,-0.086371034,-0.012575859
201,1437229798040,0.21726882,-0.084843874,-0.029069219
202,1437229798057,0.24475777,-0.08331671,-0.046478882
203,1437229798079,0.25300443,-0.096450314,-0.06052878
204,1437229798097,0.23925996,-0.11080566,-0.06480484
205,1437229798117,0.22979155,-0.09706119,-0.054114696
206,1437229798137,0.22856984,-0.07842979,-0.052892964
207,1437229798157,0.23315132,-0.0851493,-0.04770061
208,1437229798202,0.27071953,-0.10561329,-0.05197667
209,1437229798203,0.2862966,-0.15051189,-0.073662385
210,1437229798217,0.28751832,-0.21190386,-0.08893402
211,1437229798236,0.24231431,-0.25283182,-0.09168291
212,1437229798257,0.19008532,-0.26535457,-0.08832315
213,1437229798278,0.13205312,-0.26596543,-0.09779156
214,1437229798299,0.0886817,-0.33529863,-0.14604992
215,1437229798322,0.020264788,-0.41379482,-0.21293966
216,1437229798339,-0.07258673,-0.52772117,-0.24012317
217,1437229798359,-0.14527969,-0.5909457,-0.22088091
218,1437229798377,-0.16879801,-0.56315136,-0.14055213
219,1437229798397,-0.06098029,-0.48129544,-0.07732758
220,1437229798417,0.11739237,-0.46296948,-0.06022335
221,1437229798439,0.2404817,-0.4464761,-0.06877546
222,1437229798458,0.33516583,-0.4229578,-0.098402426
223,1437229798484,0.39564148,-0.40005034,-0.14085756
224,1437229798496,0.45520082,-0.36156583,-0.18636702
225,1437229798517,0.49979398,-0.26077306,-0.19766803
226,1437229798536,0.5605751,-0.16761613,-0.19308653
227,1437229798560,0.6106661,-0.1523445,-0.18392356
228,1437229798578,0.6613679,-0.2497775,-0.1814801
229,1437229798599,0.70901537,-0.39882863,-0.17231712
230,1437229798618,0.7832355,-0.52100164,-0.14879881
231,1437229798641,0.8253852,-0.6230161,-0.12680766
232,1437229798659,0.81255704,-0.64745075,-0.0962644
233,1437229798679,0.753914,-0.6556974,-0.051671237
234,1437229798700,0.6842753,-0.7067047,-0.07580041
235,1437229798721,0.6259377,-0.8475091,-0.17353885
236,1437229798738,0.57859564,-0.9983929,-0.26272517
237,1437229798760,0.5043755,-0.94738555,-0.32717147
238,1437229798778,0.4127457,-0.91592604,-0.2935739
239,1437229798801,0.4185489,-1.0454295,-0.2553948
240,1437229798820,0.48818758,-1.1437788,-0.25111872
241,1437229798851,0.5605751,-1.0628392,-0.23493081
242,1437229798889,0.5569099,-0.7855063,-0.21385595
243,1437229798890,0.5178146,-0.5985815,-0.20744187
244,1437229798917,0.42038152,-0.64470184,-0.22607327
245,1437229798918,0.25422618,-0.7235035,-0.22607327
246,1437229798940,0.048975453,-0.72167087,-0.17750947
247,1437229798960,-0.05151188,-0.63187367,-0.16162698
248,1437229798980,0.039812475,-0.50970066,-0.16712476
249,1437229799001,0.28079882,-0.28154248,-0.19217025
250,1437229799022,0.40358272,0.04313239,-0.2114125
251,1437229799041,0.32875174,0.29939035,-0.17812034
252,1437229799058,0.07524266,0.36566925,-0.07030263
253,1437229799080,-0.10557345,0.30977505,0.075694166
254,1437229799099,-0.12878634,0.1976813,0.15266319
255,1437229799119,-0.07105957,0.0666507,0.15907727
256,1437229799185,0.011407239,-0.028949708,0.15632838
257,1437229799186,0.0010225307,0.055044264,0.16426963
258,1437229799187,-0.10343543,0.2248648,0.15724468
259,1437229799198,-0.2598169,0.24196902,0.19298029
260,1437229799220,-0.2940254,0.18668573,0.26933846
261,1437229799238,-0.26195496,0.3091642,0.30935013
262,1437229799259,-0.266231,0.63170105,0.28644267
263,1437229799291,-0.28608415,0.861081,0.20000525
264,1437229799300,-0.2735614,0.98539203,0.15052517
265,1437229799319,-0.2314117,0.99211156,0.1761815
266,1437229799338,-0.22591391,0.97409105,0.20153241
267,1437229799362,-0.27203423,0.96095747,0.19359116
268,1437229799378,-0.31632197,0.9157534,0.17954126
269,1437229799401,-0.33373162,0.9105611,0.18931511
270,1437229799422,-0.31418395,0.9612629,0.19450746
271,1437229799441,-0.25279197,0.98966813,0.14930344
272,1437229799461,-0.19353805,0.99241704,0.05400845
273,1437229799481,-0.17276864,0.88032323,-0.0092161
274,1437229799502,-0.16604912,0.7856391,-0.027542057
275,1437229799521,-0.124204844,0.70164514,-0.030596383
276,1437229799541,-0.061591156,0.69064957,-0.045562584
277,1437229799563,-0.020968618,0.72333086,-0.059917916
278,1437229799578,-0.007529582,0.7682295,-0.05839075
279,1437229799602,-0.03990544,0.8235128,-0.069386326
280,1437229799622,-0.11107124,0.7859446,-0.08801772
281,1437229799641,-0.1611622,0.6417804,-0.12864025
282,1437229799661,-0.1837642,0.51349866,-0.1347489
283,1437229799682,-0.11687446,0.37788653,-0.118866414
284,1437229799701,-0.023106646,0.41087326,-0.1347489
285,1437229799722,0.06607968,0.5183856,-0.17750947
286,1437229799741,0.07829699,0.68973327,-0.25447848
287,1437229799761,0.06333079,0.79144233,-0.2975445
288,1437229799783,0.05202978,0.7874717,-0.31220526
289,1437229799802,-0.014249099,0.72516346,-0.29418474
290,1437229799822,-0.13672759,0.6469727,-0.25692195
291,1437229799842,-0.28974932,0.56694937,-0.20133322
292,1437229799894,-0.36091512,0.54892886,-0.14696622
293,1437229799896,-0.33556423,0.5871079,-0.11764468
294,1437229799913,-0.27600485,0.6393369,-0.14177386
295,1437229799918,-0.24759963,0.5541212,-0.16529217
296,1437229799942,-0.25737345,0.3626149,-0.18178554
297,1437229799959,-0.27936462,0.17141409,-0.1964463
298,1437229799978,-0.2744777,-0.025589947,-0.23706883
299,1437229800005,-0.26195496,-0.107751325,-0.27066642
300,1437229800020,-0.28028092,-0.15631512,-0.3024314
301,1437229800041,-0.39298555,-0.2583296,-0.30182055
302,1437229800060,-0.53379,-0.32735738,-0.2694447
303,1437229800082,-0.64405113,-0.30994773,-0.25600567
304,1437229800100,-0.7781361,-0.26688173,-0.21080163
305,1437229800122,-0.88289946,-0.3096423,-0.1655976
306,1437229800142,-0.9720858,-0.5145875,-0.13535978
307,1437229800162,-1.023093,-0.6422584,-0.1252805
308,1437229800182,-0.998353,-0.61751837,-0.04189739
309,1437229800202,-0.98888457,-0.56131876,0.03507163
310,1437229800222,-1.05272,-0.61140966,0.054619316
311,1437229800242,-1.1357976,-0.68471354,0.10440484
312,1437229800262,-1.1703116,-0.7238089,0.2445984
313,1437229800283,-1.0337832,-0.79375297,0.39303866
314,1437229800302,-0.91741335,-0.75526845,0.4654262
315,1437229800319,-0.8111228,-0.6807429,0.49322057
316,1437229800342,-0.68986607,-0.6355389,0.49658033
317,1437229800362,-0.4449091,-0.69937426,0.5020781
318,1437229800382,-0.20575535,-0.69998515,0.4871119
319,1437229800402,0.105175056,-0.5002322,0.40464512
320,1437229800422,0.3678471,-0.013678076,0.2500962
321,1437229800442,0.67022544,0.33604228,0.113567814
322,1437229800462,0.8525687,0.20409538,0.06439316
323,1437229800482,1.0019252,0.0034261504,0.06317143
324,1437229800502,1.082254,-0.037807252,0.094630994
325,1437229800523,1.1008854,0.057182293,0.11723301
326,1437229800543,1.1546416,0.10757868,0.10287767
327,1437229800562,1.1677752,0.00220442,0.04362374
328,1437229800668,1.0825595,-0.16395094,0.012469618
329,1437229800669,0.9924568,-0.13860002,0.024076058
330,1437229800670,0.9002162,-0.02223019,0.062560566
331,1437229800671,0.9805449,0.09994286,0.12731229
332,1437229800672,1.2688733,0.12407203,0.08760604
333,1437229800684,1.4087615,-0.06132557,-0.054114696
334,1437229800719,1.3495076,-0.32430306,-0.31525958
335,1437229800720,1.147922,-0.45624995,-0.4737791
336,1437229800739,0.8565393,-0.3902765,-0.45545316
337,1437229800770,0.6399876,-0.25649703,-0.42796424
338,1437229800779,0.40419358,-0.15448251,-0.36901572
339,1437229800799,0.19436137,0.10666238,-0.21385595
340,1437229800819,0.00438229,0.36872357,-0.029680084
341,1437229800864,-0.23568776,0.49944872,0.2839992
342,1437229800865,-0.39206925,0.6408641,0.4251091
343,1437229800882,-0.3682455,0.6799594,0.418695
344,1437229800902,-0.24210185,0.7386025,0.3566922
345,1437229800922,-0.07808452,0.74471116,0.22046924
346,1437229800943,-0.13581128,0.7899152,0.08271912
347,1437229800963,-0.37954652,0.915448,-0.011354128
348,1437229800983,-0.5087445,0.90323067,-0.06877546
349,1437229800999,-0.5166858,0.7535687,-0.13047285
350,1437229801023,-0.39268014,0.5645059,-0.19125395
351,1437229801043,-0.297996,0.56786567,-0.19553
352,1437229801060,-0.17490667,0.6497216,-0.18392356
353,1437229801080,-0.038378276,0.6970637,-0.19491914
354,1437229801103,0.090514295,0.70592123,-0.18209097
355,1437229801123,0.13113682,0.72791237,-0.14330103
356,1437229801143,0.090514295,0.70531034,-0.07610585
357,1437229801162,0.0028551277,0.5703091,-0.0382322
358,1437229801183,-0.06342375,0.47501412,-0.007994369
359,1437229801204,-0.08388773,0.5724472,0.0109424535
360,1437229801223,-0.079000816,0.64941615,0.043012876
361,1437229801243,-0.05975856,0.623149,0.07935936
362,1437229801264,-0.031047894,0.5373224,0.09432556
363,1437229801284,-0.015776264,0.50861174,0.08119196
364,1437229801303,-0.046014093,0.50800085,0.044234607
365,1437229801325,-0.07991711,0.46401855,0.028657546
366,1437229801386,-0.083582304,0.50922257,0.046372637
367,1437229801397,-0.06067486,0.613986,0.084551714
368,1437229801398,-0.031353325,0.7245526,0.10807002
369,1437229801400,-0.0044752564,0.72577435,0.11142979
370,1437229801422,0.007742049,0.7010343,0.10104507
371,1437229801443,0.014461568,0.70256144,0.09340926
372,1437229801460,0.020875653,0.6854572,0.086078875
373,1437229801485,0.026984306,0.5556484,0.093103826
374,1437229801514,0.02301368,0.3091642,0.097379886
