id,attr_time,attr_x,attr_y,attr_z
1,1437229794039,0.0061086523,0.051618114,-0.06505715
2,1437229794058,0.0143553335,0.04642576,-0.0720821
3,1437229794123,0.009162978,0.03940081,-0.06719518
4,1437229794124,0.008246681,0.06566802,-0.065973446
5,1437229794125,0.007330383,0.069027774,-0.054061573
6,1437229794149,0.007941248,0.05681047,-0.05467244
7,1437229794157,0.0061086523,0.05131268,-0.06414085
8,1437229794177,0.003970624,0.062002823,-0.059864793
9,1437229794197,0.00030543262,0.06291912,-0.053145275
10,1437229794217,-0.002443461,0.06047566,-0.0580322
11,1437229794238,-0.0030543262,0.059864793,-0.058643065
12,1437229794257,-0.003970624,0.06291912,-0.05222898
13,1437229794279,-0.015271631,0.04917465,-0.04734206
14,1437229794303,-0.0143553335,0.050701816,-0.038179077
15,1437229794319,-0.009162978,0.047036625,-0.027488936
16,1437229794340,-0.011301007,0.03634648,-0.02687807
17,1437229794361,-0.010079277,0.02687807,-0.024740042
18,1437229794381,-0.010079277,0.022907447,-0.024129177
19,1437229794401,-0.010995574,0.022296581,-0.016798794
20,1437229794421,-0.019547688,0.02321288,-0.016798794
21,1437229794441,-0.023518313,0.017715093,-0.007941248
22,1437229794458,-0.02565634,0.0036651916,-0.012217305
23,1437229794481,-0.022907447,0.007330383,-0.013133603
24,1437229794500,-0.023518313,0.0033597588,-0.0061086523
25,1437229794521,-0.022296581,-0.0106901415,-0.0106901415
26,1437229794538,-0.020158553,-0.013133603,-0.021685716
27,1437229794560,-0.021685716,-0.020158553,-0.017715093
28,1437229794581,-0.022907447,-0.016493361,-0.018020526
29,1437229794601,-0.021991149,-0.027183503,-0.0106901415
30,1437229794621,-0.01985312,-0.03573562,-0.023518313
31,1437229794640,-0.013133603,-0.026267206,-0.040927973
32,1437229794660,-0.01038471,0.003970624,-0.047647487
33,1437229794681,-0.0015271631,0.013744468,-0.044593163
34,1437229794701,-0.00030543262,0.004581489,-0.031154128
35,1437229794721,-0.0027488936,-0.0033597588,-0.055588737
36,1437229794741,-0.0061086523,0.010995574,-0.064446285
37,1437229794758,-0.009773844,0.022296581,-0.060170226
38,1437229794780,-0.0015271631,0.02565634,-0.030848695
39,1437229794798,-0.00030543262,0.005497787,-0.030848695
40,1437229794819,0.002443461,-0.006414085,-0.054061573
41,1437229794871,-0.0030543262,0.019547688,-0.061086524
42,1437229794872,-0.0027488936,0.032986723,-0.061391957
43,1437229794888,0.007330383,0.035430185,-0.03604105
44,1437229794898,0.0030543262,0.018325957,-0.025350908
45,1437229794921,0.004886922,0.0009162979,-0.038789943
46,1437229794939,-0.006414085,0.02107485,-0.03481932
47,1437229794960,-0.003970624,0.027488936,-0.032986723
48,1437229794979,-0.00580322,0.016187929,-0.021991149
49,1437229794998,-0.008552114,0.005192355,-0.025045475
50,1437229795020,-0.011911872,-0.0018325958,-0.032070424
51,1437229795042,-0.01038471,0.011911872,-0.026267206
52,1437229795058,-0.010079277,0.0009162979,-0.01740966
53,1437229795085,-0.006414085,0.0061086523,-0.030543262
54,1437229795101,-0.0067195175,0.017104227,-0.042455133
55,1437229795121,-0.013439035,0.02443461,-0.040317107
56,1437229795141,-0.008246681,0.023823744,-0.027794369
57,1437229795161,-0.008857546,0.01985312,-0.018325957
58,1437229795181,-0.009773844,-0.0030543262,-0.028710667
59,1437229795201,-0.005192355,-0.004276057,-0.035124753
60,1437229795221,-0.0027488936,0.011911872,-0.028099801
61,1437229795241,0.0012217305,0.011911872,-0.02321288
62,1437229795262,0.005192355,0.004276057,-0.015577064
63,1437229795279,0.013133603,0.0009162979,-0.03145956
64,1437229795302,0.009773844,0.015271631,-0.056505036
65,1437229795319,0.004276057,0.020158553,-0.061086524
66,1437229795339,0.007941248,0.03176499,-0.046120327
67,1437229795361,0.02076942,0.021685716,-0.037873644
68,1437229795381,0.022602014,0.013439035,-0.05375614
69,1437229795405,0.021991149,0.02107485,-0.077579886
70,1437229795421,0.023518313,0.04153884,-0.07391469
71,1437229795442,0.020463986,0.051618114,-0.06414085
72,1437229795459,0.019242255,0.04917465,-0.04917465
73,1437229795480,0.009162978,0.043982297,-0.035430185
74,1437229795501,0.00580322,0.026267206,-0.028405234
75,1437229795521,0.011911872,0.028710667,-0.018936822
76,1437229795544,0.009468411,0.041233405,-0.008552114
77,1437229795595,0.0030543262,0.036651913,-0.010995574
78,1437229795596,0.008857546,0.03023783,-0.02565634
79,1437229795612,0.0033597588,0.036957346,-0.008246681
80,1437229795619,0.006414085,0.029321533,-0.0015271631
81,1437229795639,-0.00061086525,0.013133603,-0.01160644
82,1437229795661,0.0015271631,0.010079277,-0.025045475
83,1437229795679,-0.009773844,0.026267206,-0.025045475
84,1437229795700,-0.0070249503,0.025961773,0.0061086523
85,1437229795719,-0.007941248,0.013439035,0.006414085
86,1437229795743,-0.0018325958,0.009773844,-0.017104227
87,1437229795765,-0.0009162979,0.03145956,-0.024740042
88,1437229795780,-0.0036651916,0.035430185,-0.01740966
89,1437229795800,-0.006414085,0.016798794,-0.0015271631
90,1437229795822,-0.00580322,0.008857546,0.003970624
91,1437229795842,-0.006414085,0.010995574,-0.009468411
92,1437229795862,-0.0070249503,0.028099801,-0.019547688
93,1437229795886,-0.008552114,0.04337143,-0.019547688
94,1437229795900,-0.003970624,0.041233405,0.0018325958
95,1437229795920,-0.004886922,0.028405234,-0.002443461
96,1437229795941,0.00061086525,0.023823744,-0.016493361
97,1437229795962,-0.005192355,0.038179077,-0.025045475
98,1437229795982,-0.007330383,0.044593163,-0.019242255
99,1437229796001,-0.0030543262,0.0421497,-0.026267206
100,1437229796022,-0.00580322,0.045814894,-0.040011674
101,1437229796042,-0.011301007,0.055283304,-0.03176499
102,1437229796062,-0.019547688,0.042455133,-0.03176499
103,1437229796082,-0.015271631,0.019547688,-0.0015271631
104,1437229796100,-0.022907447,0.014966198,-0.004581489
105,1437229796122,-0.021380283,0.022907447,-0.008857546
106,1437229796142,-0.026572637,0.02443461,-0.0070249503
107,1437229796162,-0.0290161,0.023518313,0.0021380284
108,1437229796182,-0.025961773,0.027488936,0.004886922
109,1437229796202,-0.02443461,0.028405234,-0.01282817
110,1437229796219,-0.018325957,0.036651913,-0.023518313
111,1437229796240,-0.021685716,0.03940081,-0.00061086525
112,1437229796261,-0.02321288,0.03176499,0.008552114
113,1437229796325,-0.023518313,0.02107485,0.0021380284
114,1437229796326,-0.02076942,0.025961773,-0.017104227
115,1437229796327,-0.025350908,0.03176499,-0.019547688
116,1437229796349,-0.024129177,0.036957346,-0.008552114
117,1437229796359,-0.01863139,0.03573562,0.007330383
118,1437229796383,-0.018325957,0.024740042,-0.017715093
119,1437229796399,-0.009162978,0.032070424,-0.03848451
120,1437229796422,-0.010079277,0.05131268,-0.03573562
121,1437229796441,-0.014660766,0.053145275,-0.01985312
122,1437229796460,-0.0143553335,0.03023783,-0.024129177
123,1437229796481,-0.004581489,0.03176499,-0.038179077
124,1437229796502,-0.008552114,0.042455133,-0.038789943
125,1437229796521,-0.0036651916,0.0421497,-0.03268129
126,1437229796541,-0.008552114,0.03970624,-0.014966198
127,1437229796561,0.00030543262,0.028710667,-0.030543262
128,1437229796583,0.0015271631,0.030848695,-0.035124753
129,1437229796603,-0.008246681,0.039095376,-0.03268129
130,1437229796623,-0.0125227375,0.038179077,-0.015577064
131,1437229796643,-0.0125227375,0.026267206,-0.015577064
132,1437229796663,-0.006414085,0.03604105,-0.022296581
133,1437229796683,-0.008552114,0.03481932,-0.033292156
134,1437229796703,-0.0106901415,0.03359759,-0.0290161
135,1437229796723,-0.016798794,0.029626964,-0.015577064
136,1437229796746,-0.021685716,0.019242255,-0.012217305
137,1437229796761,-0.013439035,0.02107485,-0.018936822
138,1437229796780,-0.015882496,0.02565634,-0.021685716
139,1437229796800,-0.01985312,0.034208454,-0.014660766
140,1437229796821,-0.01282817,0.026267206,-0.013744468
141,1437229796841,-0.009162978,0.02687807,-0.01863139
142,1437229796863,0.0015271631,0.037873644,-0.030543262
143,1437229796880,-0.012217305,0.040317107,-0.027183503
144,1437229796900,-0.01282817,0.0290161,-0.029932396
145,1437229796920,-0.010079277,0.027488936,-0.022907447
146,1437229796966,-0.0143553335,0.035124753,-0.027488936
147,1437229796967,-0.020158553,0.04062254,-0.029321533
148,1437229796980,-0.01985312,0.03970624,-0.035124753
149,1437229797000,-0.018020526,0.03940081,-0.020158553
150,1437229797057,-0.022602014,0.028099801,-0.0143553335
151,1437229797058,-0.015577064,0.0143553335,-0.029321533
152,1437229797061,-0.013133603,0.020463986,-0.04337143
153,1437229797101,-0.019242255,0.04062254,-0.03390302
154,1437229797102,-0.023518313,0.049480084,-0.002443461
155,1437229797121,-0.016798794,0.023518313,0.015271631
156,1437229797140,-0.01282817,0.0061086523,-0.0067195175
157,1437229797160,-0.007941248,0.023823744,-0.032375857
158,1437229797180,-0.0106901415,0.041233405,-0.049785517
159,1437229797211,-0.004276057,0.048258353,-0.038789943
160,1437229797220,-0.0018325958,0.039095376,-0.030848695
161,1437229797240,-0.0070249503,0.018936822,-0.033292156
162,1437229797263,-0.005497787,0.011911872,-0.04734206
163,1437229797280,-0.0030543262,0.034513887,-0.043066
164,1437229797300,-0.00061086525,0.053450707,-0.016493361
165,1437229797320,-0.006414085,0.0421497,-0.007330383
166,1437229797340,-0.0027488936,0.029321533,-0.013439035
167,1437229797360,0.00061086525,0.029932396,-0.017104227
168,1437229797379,0.0061086523,0.038789943,-0.03176499
169,1437229797399,0.00580322,0.048563786,-0.046731193
170,1437229797421,0.0076358155,0.05222898,-0.062308256
171,1437229797441,0.0067195175,0.05955936,-0.058948494
172,1437229797461,-0.00061086525,0.042760566,-0.04428773
173,1437229797479,0.0033597588,0.025045475,-0.03573562
174,1437229797501,-0.0036651916,0.016187929,-0.017715093
175,1437229797521,-0.0018325958,0.023823744,-0.002443461
176,1437229797540,0.00580322,0.04337143,-0.005192355
177,1437229797565,-0.002443461,0.035430185,0.00030543262
178,1437229797582,-0.005192355,0.034208454,0.0
179,1437229797601,-0.008246681,0.035124753,0.002443461
180,1437229797620,-0.008246681,0.030543262,-0.0143553335
181,1437229797639,-0.009773844,0.023518313,-0.017715093
182,1437229797660,-0.016798794,0.020158553,-0.013744468
183,1437229797682,-0.015882496,0.0143553335,-0.009773844
184,1437229797702,-0.018936822,0.027183503,-0.01160644
185,1437229797722,-0.023518313,0.03145956,-0.009468411
186,1437229797741,-0.022907447,0.03390302,-0.015577064
187,1437229797759,-0.013133603,0.027488936,-0.009773844
188,1437229797779,-0.011301007,0.028099801,-0.008552114
189,1437229797800,-0.004581489,0.029626964,-0.01863139
190,1437229797825,-0.0018325958,0.034513887,-0.022602014
191,1437229797841,-0.0015271631,0.03940081,-0.019242255
192,1437229797860,-0.00580322,0.033292156,-0.005497787
193,1437229797882,-0.0067195175,0.024740042,-0.002443461
194,1437229797900,0.0,0.032375857,-0.024129177
195,1437229797920,-0.0030543262,0.040927973,-0.025350908
196,1437229797940,-0.01282817,0.04642576,-0.01160644
197,1437229797960,-0.0076358155,0.03176499,-0.0030543262
198,1437229797980,-0.008552114,0.027794369,-0.011911872
199,1437229798000,-0.0061086523,0.029932396,-0.028099801
200,1437229798020,-0.006414085,0.04062254,-0.029626964
201,1437229798040,-0.008246681,0.03634648,-0.01863139
202,1437229798060,-0.006414085,0.03390302,-0.020158553
203,1437229798080,-0.0036651916,0.032986723,-0.019242255
204,1437229798100,-0.008246681,0.03848451,-0.0143553335
205,1437229798120,-0.00061086525,0.04337143,-0.022602014
206,1437229798141,-0.002443461,0.044593163,-0.029932396
207,1437229798162,-0.003970624,0.043982297,-0.02443461
208,1437229798182,-0.0030543262,0.03848451,-0.0143553335
209,1437229798204,-0.005497787,0.027183503,-0.0070249503
210,1437229798227,-0.005192355,0.022602014,-0.00580322
211,1437229798243,0.0018325958,0.029321533,-0.021380283
212,1437229798262,-0.0021380284,0.03481932,-0.016187929
213,1437229798281,0.00061086525,0.03940081,-0.004276057
214,1437229798301,0.002443461,0.029321533,-0.010079277
215,1437229798323,0.009162978,0.03268129,-0.03390302
216,1437229798341,0.005497787,0.042760566,-0.042760566
217,1437229798384,0.0012217305,0.04550946,-0.043982297
218,1437229798385,0.0033597588,0.03756821,-0.03940081
219,1437229798401,0.002443461,0.03145956,-0.030848695
220,1437229798422,0.0067195175,0.035430185,-0.040927973
221,1437229798441,0.007330383,0.04337143,-0.060170226
222,1437229798462,-0.004581489,0.04520403,-0.052534413
223,1437229798483,-0.01038471,0.053145275,-0.04337143
224,1437229798502,-0.015271631,0.042455133,-0.042760566
225,1437229798522,-0.01160644,0.022602014,-0.059253927
226,1437229798544,-0.008246681,0.021685716,-0.06536258
227,1437229798564,-0.00580322,0.011911872,-0.07422013
228,1437229798583,0.0012217305,0.015577064,-0.08032878
229,1437229798605,0.0106901415,0.026572637,-0.086437434
230,1437229798625,0.010995574,0.021685716,-0.09040806
231,1437229798642,0.013744468,0.029626964,-0.09040806
232,1437229798670,0.022907447,0.03359759,-0.094989546
233,1437229798682,0.023823744,0.038179077,-0.09560041
234,1437229798704,0.0290161,0.03023783,-0.106595986
235,1437229798727,0.035430185,0.021991149,-0.12858713
236,1437229798744,0.04184427,0.05100725,-0.1328632
237,1437229798762,0.043982297,0.064446285,-0.122783914
238,1437229798785,0.045814894,0.056199603,-0.11728613
239,1437229798805,0.04428773,0.026267206,-0.1255328
240,1437229798826,0.050396383,0.0061086523,-0.13500121
241,1437229798844,0.06352998,0.01985312,-0.12644911
242,1437229798865,0.069027774,0.04153884,-0.12186762
243,1437229798885,0.07971791,0.036651913,-0.124005646
244,1437229798906,0.087659165,0.005497787,-0.13316862
245,1437229798927,0.08399397,0.023518313,-0.13591751
246,1437229798946,0.09132435,0.042455133,-0.14569137
247,1437229798966,0.13622294,0.053145275,-0.13530666
248,1437229798987,0.17654006,0.00061086525,-0.12339478
249,1437229799006,0.19150625,0.018020526,-0.1160644
250,1437229799084,0.18203785,0.01282817,-0.12675454
251,1437229799085,0.16462818,-0.032375857,-0.15851954
252,1437229799088,0.15668693,-0.0015271631,-0.17531833
253,1437229799089,0.12644911,0.014049901,-0.17348573
254,1437229799106,0.09865474,-0.014966198,-0.14782938
255,1437229799128,0.06780604,-0.062308256,-0.14782938
256,1437229799142,0.018325957,-0.087659165,-0.18692477
257,1437229799162,-0.03848451,-0.006414085,-0.2098322
258,1437229799195,-0.071776666,0.101098195,-0.20280726
259,1437229799203,-0.0842994,0.10751228,-0.22999077
260,1437229799223,-0.09590584,0.058948494,-0.31245756
261,1437229799242,-0.10323623,0.12889257,-0.33841935
262,1437229799264,-0.12034045,0.19761491,-0.34880406
263,1437229799287,-0.12675454,0.115453534,-0.36041048
264,1437229799305,-0.13500121,0.032375857,-0.37995818
265,1437229799326,-0.18906279,0.065973446,-0.36346483
266,1437229799346,-0.22418754,0.16554448,-0.27000242
267,1437229799366,-0.2660318,0.05009095,-0.14844026
268,1437229799385,-0.26450464,-0.16218472,-0.11728613
269,1437229799406,-0.27397305,-0.21380283,-0.12797627
270,1437229799425,-0.27916542,-0.07788532,-0.0693332
271,1437229799446,-0.23273966,-0.06811147,-0.022602014
272,1437229799465,-0.12736541,-0.160963,-0.11209377
273,1437229799483,-0.0888809,-0.017715093,-0.22113322
274,1437229799507,-0.105374254,0.5204572,-0.1572978
275,1437229799526,-0.11881329,0.75747293,0.05131268
276,1437229799546,-0.12522738,0.32528573,0.25167647
277,1437229799565,-0.11484267,-0.26145032,0.30298916
278,1437229799586,-0.07666359,-0.29810223,0.25992316
279,1437229799607,-0.05955936,-0.13530666,0.30085114
280,1437229799625,0.003970624,-0.15515977,0.22143865
281,1437229799643,0.080634214,-0.027183503,0.2501493
282,1437229799674,0.09682214,0.12614368,0.3408628
283,1437229799687,0.12064589,0.07849618,0.37690386
284,1437229799713,0.15485434,0.06505715,0.35338554
285,1437229799723,0.18875736,0.1386664,0.29443705
286,1437229799744,0.1572978,0.20616703,0.3640757
287,1437229799798,0.12370021,0.20280726,0.3484986
288,1437229799812,0.06536258,0.071776666,0.2510656
289,1437229799813,0.07880162,0.07788532,0.07574729
290,1437229799823,0.054367006,0.28802297,-0.009468411
291,1437229799848,0.017715093,0.48533243,0.002443461
292,1437229799866,-0.048563786,0.45448375,0.029321533
293,1437229799883,-0.06169739,0.064446285,0.0012217305
294,1437229799906,-0.0711658,-0.14569137,-0.0870483
295,1437229799924,-0.055588737,-0.093767814,-0.087659165
296,1437229799945,-0.058643065,0.12156218,-0.03145956
297,1437229799966,-0.09101892,0.045814894,-0.007330383
298,1437229799984,-0.13316862,-0.16126843,-0.043982297
299,1437229800004,-0.11728613,-0.23304509,-0.05955936
300,1437229800026,-0.15241088,-0.16432275,-0.040011674
301,1437229800045,-0.17195857,-0.015882496,-0.0033597588
302,1437229800066,-0.21288654,0.044593163,0.039095376
303,1437229800086,-0.22235495,-0.11911872,0.039095376
304,1437229800106,-0.20250183,-0.22418754,0.01985312
305,1437229800126,-0.14019357,-0.18509217,-0.055283304
306,1437229800145,-0.12308934,-0.007941248,-0.06291912
307,1437229800166,-0.16920967,0.042455133,-0.0693332
308,1437229800188,-0.11636983,-0.09621128,-0.007941248
309,1437229800204,-0.058948494,-0.33108896,-0.035124753
310,1437229800227,0.031154128,-0.2507602,-0.18936823
311,1437229800245,0.081855945,0.19730948,-0.19028452
312,1437229800264,0.071776666,0.47403142,-0.22785273
313,1437229800285,0.051618114,0.5589417,-0.21563543
314,1437229800308,0.04886922,0.61941737,-0.172264
315,1437229800328,0.048258353,0.5852089,-0.16126843
316,1437229800348,-0.003970624,0.5513059,-0.14844026
317,1437229800367,-0.06688975,0.5222898,-0.20341812
318,1437229800384,-0.015577064,0.6227771,-0.29352075
319,1437229800404,0.042760566,0.83016586,-0.27672195
320,1437229800425,0.035124753,0.90224797,-0.19547687
321,1437229800447,0.13988814,0.8313876,-0.1020145
322,1437229800464,0.20341812,0.70921457,-0.14660765
323,1437229800531,0.21166481,0.6774496,-0.12797627
324,1437229800532,0.20952678,0.67073005,-0.03268129
325,1437229800533,0.17715092,0.73273283,-0.03604105
326,1437229800544,0.13775012,0.72265357,0.042455133
327,1437229800568,0.14446963,0.5155703,0.2125811
328,1437229800587,0.11911872,0.14905111,0.28955013
329,1437229800604,0.08979719,-0.07727446,0.3915646
330,1437229800627,0.06169739,-0.17165314,0.45845437
331,1437229800646,0.07880162,0.0018325958,0.5381723
332,1437229800665,0.08307768,0.0711658,0.64812803
333,1437229800694,0.13652839,-0.054367006,0.6630942
334,1437229800705,0.18417588,-0.12308934,0.6569856
335,1437229800725,0.24617869,-0.12889257,0.7128797
336,1437229800747,0.32162055,-0.22968534,0.8063421
337,1437229800765,0.30848694,-0.47800204,0.86742866
338,1437229800787,0.2556471,-0.6585127,0.93401295
339,1437229800807,0.21227567,-0.8885035,0.9486737
340,1437229800827,0.16310102,-1.0659598,0.8885035
341,1437229800847,0.10781772,-1.1545353,0.81031275
342,1437229800867,0.06841691,-1.1633929,0.6994407
343,1437229800887,0.08460484,-1.1374311,0.5143485
344,1437229800908,0.0693332,-0.98471475,0.31520647
345,1437229800925,0.029321533,-0.82619524,0.008552114
346,1437229800947,-0.023823744,-0.68325275,-0.24556783
347,1437229800965,-0.077579886,-0.5879578,-0.41996986
348,1437229800984,-0.172264,-0.5152648,-0.58459806
349,1437229801005,-0.24220806,-0.42210788,-0.68875057
350,1437229801030,-0.29168814,-0.33017266,-0.7507534
351,1437229801049,-0.37293324,-0.2733622,-0.8213083
352,1437229801070,-0.4279111,-0.25137106,-0.79473567
353,1437229801087,-0.44135013,-0.17989981,-0.7828238
354,1437229801106,-0.41172317,-0.014966198,-0.7620544
355,1437229801124,-0.34513888,0.38545597,-0.7779369
356,1437229801144,-0.2556471,0.7489208,-0.77946407
357,1437229801166,-0.12156218,0.8335256,-0.7449502
358,1437229801185,0.03023783,0.7492262,-0.7302894
359,1437229801269,0.17531833,0.5665775,-0.7284568
360,1437229801270,0.23823744,0.44806966,-0.7855727
361,1437229801271,0.20677789,0.4456262,-0.95386606
362,1437229801272,0.122783914,0.47311515,-1.1386528
363,1437229801284,0.050701816,0.39858958,-1.2260065
364,1437229801307,-0.016798794,0.30298916,-1.2638801
365,1437229801324,-0.12767084,0.20708331,-1.3264939
366,1437229801347,-0.17959438,0.13744467,-1.4223998
367,1437229801364,-0.14721853,0.1572978,-1.5125023
368,1437229801386,-0.052534413,0.33108896,-1.5344934
