id,attr_time,attr_x,attr_y,attr_z
1,1436463450002,-0.27473465,10.1161,1.1246762
2,1436463450003,-0.26036942,10.163386,1.2126632
3,1436463450018,-0.260968,10.187927,1.2761095
4,1436463450052,-0.2777274,10.204087,1.2791022
5,1436463450061,-0.30406362,10.205285,1.2336124
6,1436463450079,-0.3513491,10.165182,1.2120646
7,1436463450101,-0.427365,10.041881,1.2306197
8,1436463450119,-0.39504328,10.09575,1.1641805
9,1436463450139,-0.39743748,10.160394,1.1522095
10,1436463450161,-0.39324763,10.171766,1.1947067
11,1436463450179,-0.38367084,10.19092,1.2132617
12,1436463450199,-0.33997664,10.229227,1.2659341
13,1436463450221,-0.29448682,10.177752,1.287482
14,1436463450239,-0.30107087,10.122087,1.283292
15,1436463450259,-0.32321724,10.129868,1.2395979
16,1436463450281,-0.3657143,10.177752,1.1971009
17,1436463450299,-0.36870706,10.228628,1.2108675
18,1436463450319,-0.35553896,10.185533,1.2258313
19,1436463450341,-0.29209262,10.170568,1.2856863
20,1436463450363,-0.29807812,10.202292,1.3018472
21,1436463450384,-0.32920274,10.290278,1.2671312
22,1436463450404,-0.35314476,10.269928,1.2120646
23,1436463450423,-0.2669535,10.172963,1.2653356
24,1436463450444,-0.17717093,10.070012,1.3634979
25,1436463450463,-0.21428105,10.01315,1.3970166
26,1436463450483,-0.26994625,10.070611,1.3210008
27,1436463450503,-0.26036942,10.1143055,1.210269
28,1436463450528,-0.15562311,10.047267,1.3281834
29,1436463450543,0.049081136,10.00477,1.42455
30,1436463450563,0.13227965,10.0029745,1.4574703
31,1436463450584,0.09935937,10.049662,1.4191631
32,1436463450604,0.10295067,10.09994,1.5125369
33,1436463450624,0.16699557,10.143634,1.5598224
34,1436463450644,0.2184709,10.123882,1.5041572
35,1436463450663,0.15023616,10.133459,1.4317327
36,1436463450710,-0.038905777,10.129868,1.3688848
37,1436463450711,-0.19752164,10.122087,1.2563573
38,1436463450732,-0.32680854,10.087969,1.1851299
39,1436463450742,-0.32920274,10.056246,1.2156559
40,1436463450766,-0.27593175,10.080188,1.2641385
41,1436463450782,-0.19572599,10.134057,1.3198037
42,1436463450801,-0.092775315,10.155006,1.3467385
43,1436463450822,0.019153614,10.171167,1.3640964
44,1436463450842,0.077213004,10.149619,1.4065934
45,1436463450863,0.12270284,10.084976,1.412579
46,1436463450886,0.16280572,10.059238,1.4460979
47,1436463450901,0.24720132,10.120291,1.4101849
48,1436463450924,0.24361002,10.1065235,1.3221979
49,1436463450946,0.13587095,10.059238,1.2958617
50,1436463450964,0.053869538,10.03769,1.3443443
51,1436463450984,0.051475335,10.097546,1.323395
52,1436463451006,-0.020949265,10.152014,1.3174095
53,1436463451025,-0.14185645,10.1460285,1.3024458
54,1436463451042,-0.23523031,10.176555,1.2336124
55,1436463451066,-0.2657564,10.181343,1.2042835
56,1436463451084,-0.3549404,10.204686,1.2533646
57,1436463451104,-0.43634325,10.233417,1.1947067
58,1436463451125,-0.4818331,10.156203,1.1270704
59,1436463451144,-0.35913026,10.080188,1.1336545
60,1436463451164,-0.16460137,10.052654,1.1348516
61,1436463451186,-0.023942016,10.0341,1.1869255
62,1436463451204,0.044891283,10.081984,1.2264298
63,1436463451224,-0.023942016,10.102334,1.2030864
64,1436463451246,-0.034715924,10.075998,1.1953052
65,1436463451363,0.026934769,10.099341,1.204882
66,1436463451364,0.05207389,10.201095,1.2132617
67,1436463451365,0.027533319,10.268731,1.2629414
68,1436463451366,-0.02873042,10.283695,1.3359646
69,1436463451367,-0.12210429,10.271125,1.3084313
70,1436463451368,-0.18555063,10.262147,1.2180501
71,1436463451380,-0.29568392,10.250774,1.1719618
72,1436463451400,-0.4357447,10.201095,1.1246762
73,1436463451422,-0.4794389,10.168773,1.067814
74,1436463451440,-0.5021838,10.077195,1.0965444
75,1436463451460,-0.46387658,10.049662,1.1180922
76,1436463451482,-0.42676646,10.080787,1.1019313
77,1436463451500,-0.38307226,10.031705,1.1546037
78,1436463451520,-0.31783026,10.032304,1.2653356
79,1436463451542,-0.2669535,10.131663,1.2904748
80,1436463451560,-0.30585927,10.184336,1.2653356
81,1436463451580,-0.3172317,10.187927,1.2252327
82,1436463451602,-0.33877954,10.168773,1.1953052
83,1436463451620,-0.33399114,10.114903,1.2126632
84,1436463451640,-0.33758244,10.110115,1.2449849
85,1436463451663,-0.3561375,10.14124,1.2126632
86,1436463451680,-0.40282443,10.121488,1.2066777
87,1436463451701,-0.39264908,10.129868,1.1911154
88,1436463451726,-0.37828386,10.034698,1.2006922
89,1436463451742,-0.40102878,10.040085,1.1887212
90,1436463451766,-0.41479546,10.107721,1.1761516
91,1436463451788,-0.4249708,10.113707,1.1851299
92,1436463451807,-0.35673606,10.168773,1.1540052
93,1436463451824,-0.30406362,10.149619,1.1492168
94,1436463451845,-0.23942018,10.147225,1.1552023
95,1436463451862,-0.20350714,10.17835,1.1354501
96,1436463451882,-0.20649989,10.184336,1.1887212
97,1436463451906,-0.19273324,10.148422,1.2162545
98,1436463451923,-0.16699557,10.029909,1.2054806
99,1436463451977,-0.06284779,10.052654,1.204882
100,1436463451978,-0.035913024,10.087969,1.2042835
101,1436463451987,-0.15622166,10.1226845,1.1994951
102,1436463452009,-0.33159694,10.099341,1.146224
103,1436463452023,-0.49081135,10.157999,1.09834
104,1436463452042,-0.56084174,10.205883,1.050456
105,1436463452063,-0.58298814,10.14124,1.0935516
106,1436463452086,-0.52253455,10.13705,1.1025299
107,1436463452102,-0.47046062,10.179547,1.1001357
108,1436463452125,-0.34955344,10.271724,1.1091139
109,1436463452147,-0.22744916,10.302849,1.1360487
110,1436463452165,-0.11372458,10.271125,1.1779473
111,1436463452184,-0.06823475,10.209475,1.1833342
112,1436463452207,-0.05327099,10.221446,1.1731589
113,1436463452225,-0.092176765,10.235811,1.2204443
114,1436463452245,-0.14544775,10.218452,1.1815386
115,1436463452267,-0.23343466,10.152014,1.1779473
116,1436463452285,-0.30286652,10.09156,1.1713632
117,1436463452305,-0.30286652,10.086173,1.1384429
118,1436463452326,-0.37349546,10.079589,1.1115081
119,1436463452346,-0.41180268,10.005369,1.1599907
120,1436463452365,-0.3812766,10.007763,1.1671734
121,1436463452388,-0.34955344,10.077195,1.186327
122,1436463452405,-0.36750996,10.169372,1.2437878
123,1436463452425,-0.3609259,10.161591,1.2892777
124,1436463452447,-0.39205053,10.178948,1.2940661
125,1436463452466,-0.4417302,10.204686,1.2850877
126,1436463452486,-0.49559975,10.159196,1.2611457
127,1436463452508,-0.55126494,10.168773,1.216853
128,1436463452525,-0.58538234,10.187328,1.2072762
129,1436463452545,-0.57760113,10.123283,1.2533646
130,1436463452566,-0.4770447,10.120291,1.3275849
131,1436463452592,-0.41718966,10.119692,1.3221979
132,1436463452652,-0.40940848,10.125079,1.2850877
133,1436463452653,-0.38965634,10.146626,1.2635399
134,1436463452654,-0.31663316,10.077793,1.2970588
135,1436463452667,-0.23523031,10.0987425,1.3431472
136,1436463452683,-0.21547815,10.123283,1.3688848
137,1436463452703,-0.19393034,10.111911,1.3323733
138,1436463452724,-0.17717093,10.149619,1.3317747
139,1436463452745,-0.15682021,10.107122,1.364695
140,1436463452762,-0.1436521,10.105327,1.3988123
141,1436463452782,-0.1412579,10.128671,1.371279
142,1436463452805,-0.17537527,10.0903635,1.3180081
143,1436463452823,-0.22505496,10.067618,1.3138182
144,1436463452847,-0.24001873,10.011354,1.3210008
145,1436463452868,-0.23822308,10.017939,1.3605051
146,1436463452886,-0.24540567,10.049662,1.3509283
147,1436463452906,-0.24540567,10.093356,1.3365631
148,1436463452928,-0.24899697,10.134057,1.3628993
149,1436463452946,-0.28550854,10.173561,1.352724
150,1436463452968,-0.3345897,10.177752,1.3455414
151,1436463452987,-0.39085343,10.125079,1.3060371
152,1436463453006,-0.41359833,10.08318,1.264737
153,1436463453026,-0.39324763,10.030508,1.1953052
154,1436463453046,-0.26515785,10.068815,1.1671734
155,1436463453068,-0.14664486,10.087969,1.2904748
156,1436463453086,-0.107140526,10.160992,1.4059949
157,1436463453107,-0.24001873,10.283096,1.3988123
158,1436463453126,-0.43754035,10.269928,1.4101849
159,1436463453146,-0.6183026,10.266935,1.3545196
160,1436463453166,-0.7272388,10.150218,1.2982559
161,1436463453186,-0.724246,10.072407,1.2755109
162,1436463453206,-0.717662,10.088568,1.3054385
163,1436463453227,-0.66020113,10.071808,1.3150153
164,1436463453248,-0.4950012,10.080188,1.3784616
165,1436463453294,-0.33877954,10.116699,1.3970166
166,1436463453295,-0.27952304,10.11251,1.4347254
167,1436463453309,-0.29209262,10.160394,1.4628572
168,1436463453325,-0.35673606,10.181343,1.4802152
169,1436463453345,-0.41060558,10.166379,1.4305356
170,1436463453363,-0.439336,10.173561,1.3623008
171,1436463453386,-0.43394905,10.137649,1.2844892
172,1436463453406,-0.34356794,10.175956,1.3054385
173,1436463453423,-0.27234045,10.2417965,1.411382
174,1436463453446,-0.17956513,10.306439,1.5705963
175,1436463453469,-0.16101007,10.369886,1.6412252
176,1436463453486,-0.18016368,10.274716,1.6023195
177,1436463453504,-0.18375498,10.104729,1.5508442
178,1436463453529,-0.15263036,9.964069,1.5334862
179,1436463453546,-0.12389994,9.934141,1.5077485
180,1436463453566,-0.05626374,9.946711,1.5125369
181,1436463453589,0.031124622,9.950901,1.5269021
182,1436463453606,0.08499416,9.96766,1.5765818
183,1436463453635,0.07182605,9.958682,1.6573862
184,1436463453646,0.06584055,9.969456,1.7675194
185,1436463453663,0.05925649,9.999383,1.857302
186,1436463453682,0.05566519,10.036493,1.8555063
187,1436463453704,0.05626374,10.073604,1.8363527
188,1436463453726,0.02633622,10.117298,1.8118122
189,1436463453747,0.02633622,10.135254,1.7878702
190,1436463453770,0.076015905,10.141838,1.8112136
191,1436463453785,0.11252748,10.0987425,1.8543092
192,1436463453807,0.12210429,10.072407,1.8806454
193,1436463453826,0.046088383,10.014946,1.8668787
194,1436463453879,0.020949265,9.980828,1.8267759
195,1436463453880,-0.035913024,10.045472,1.7363948
196,1436463453896,-0.1376666,10.044873,1.7124528
197,1436463453906,-0.22685061,9.968858,1.7549498
198,1436463453945,-0.260968,9.889849,1.7705121
199,1436463453946,-0.32142156,9.855731,1.7322049
200,1436463453964,-0.35673606,9.847352,1.6992847
201,1436463453983,-0.29747957,9.904214,1.6537948
202,1436463454006,-0.15322891,9.922769,1.6112977
203,1436463454024,0.034117375,9.974244,1.654992
204,1436463454044,0.17836803,10.020332,1.7441759
205,1436463454067,0.25079262,10.044274,1.7812861
206,1436463454087,0.29508537,10.06283,1.8100165
207,1436463454107,0.3705027,9.989806,1.8602947
208,1436463454129,0.36511576,9.965266,1.827973
209,1436463454148,0.23283611,10.013748,1.7537527
210,1436463454166,0.012569559,10.078392,1.6328455
211,1436463454189,-0.16759412,10.13286,1.5628152
212,1436463454207,-0.28072014,10.177752,1.553837
213,1436463454227,-0.3693056,10.212467,1.6280571
214,1436463454249,-0.47046062,10.1304655,1.6729485
215,1436463454267,-0.56323594,10.040684,1.6699557
216,1436463454301,-0.66020113,10.005369,1.5915456
217,1436463454307,-0.7667431,9.995792,1.4945804
218,1436463454324,-0.85652566,10.041282,1.4586674
219,1436463454347,-0.8834604,10.109517,1.5023615
220,1436463454366,-0.86849666,10.116699,1.5382746
221,1436463454383,-0.87687635,10.128072,1.5514427
222,1436463454405,-0.96905315,10.177752,1.5436616
223,1436463454429,-1.0109516,10.163984,1.5520413
224,1436463454452,-1.0145429,10.262746,1.5442601
225,1436463454464,-0.9151836,10.360908,1.496376
226,1436463454488,-0.78888947,10.329783,1.5502456
227,1436463454505,-0.6937199,10.170568,1.6771383
228,1436463454526,-0.59017074,9.986814,1.7238252
229,1436463454557,-0.54168814,9.815628,1.7178397
230,1436463454599,-0.5033809,9.784504,1.7663223
231,1436463454600,-0.4189853,9.968259,1.8782512
232,1436463454608,-0.3752911,10.30225,2.0159178
233,1436463454629,-0.4961983,10.412383,2.111686
234,1436463454643,-0.7673417,10.366894,2.011728
235,1436463454667,-1.1300632,10.295666,1.7878702
236,1436463454685,-1.508347,10.138845,1.6250644
237,1436463454704,-1.8267759,9.937733,1.5298948
238,1436463454727,-1.977012,9.835381,1.4257472
239,1436463454747,-2.071583,9.861717,1.2952632
240,1436463454767,-2.0260932,9.882068,1.3395559
241,1436463454789,-1.7393875,9.8916445,1.4873978
242,1436463454807,-1.2521675,9.865308,1.6944963
243,1436463454827,-0.7368156,9.880272,1.9063832
244,1436463454850,-0.30047232,9.871294,2.0290859
245,1436463454866,0.016759412,9.721058,2.054225
246,1436463454887,0.2645593,9.481039,2.0374656
247,1436463454908,0.43275195,9.212888,2.1697452
248,1436463454927,0.54408234,9.03871,2.2170308
249,1436463454948,0.5422867,9.035717,2.1978772
250,1436463454968,0.38845924,9.091981,2.124854
251,1436463454987,0.13347675,9.24102,1.963844
252,1436463455017,-0.13347675,9.461885,1.7609353
253,1436463455027,-0.4249708,9.812635,1.7052702
254,1436463455045,-0.7302315,10.306439,1.7100586
255,1436463455067,-1.0085574,10.579977,1.7699136
256,1436463455089,-1.2437878,10.575788,1.7615339
257,1436463455108,-1.1755531,10.794857,1.6118963
258,1436463455129,-0.9528923,11.218032,1.1282675
259,1436463455148,-0.8158242,12.257115,0.87567925
260,1436463455167,-0.47644615,12.272079,0.59495914
261,1436463455187,-0.020350715,11.247959,0.6937199
262,1436463455208,0.5398925,10.341754,0.95708215
263,1436463455263,1.0498575,9.915586,1.0450691
264,1436463455264,1.1785458,9.760562,0.9139865
265,1436463455268,0.9959879,9.822212,0.6380547
266,1436463455286,0.7433996,9.7803135,0.46866497
267,1436463455304,0.57640404,9.576208,0.40162733
268,1436463455329,0.56203884,9.478046,0.39444473
269,1436463455345,0.63087213,9.816227,0.20709845
270,1436463455367,0.7044938,10.442909,-0.18315643
271,1436463455388,0.83258367,10.837354,-0.40821138
272,1436463455409,1.1438298,10.775703,-0.076015905
273,1436463455429,1.5849615,10.429741,0.58657944
274,1436463455452,1.9512744,9.945514,1.1773487
275,1436463455467,2.100912,9.424775,1.4161704
276,1436463455488,1.9859903,9.095572,1.2473791
277,1436463455511,1.7417817,9.1272955,0.8882488
278,1436463455527,1.4969746,9.580399,0.55725044
279,1436463455548,1.2629414,10.181941,0.55246204
280,1436463455571,1.0815806,10.488997,0.83138657
281,1436463455587,0.943914,10.731411,1.0702082
282,1436463455607,0.5967548,10.836157,1.151611
283,1436463455628,0.046088383,10.851719,0.99179804
284,1436463455648,-0.6793547,10.562021,0.7577648
285,1436463455669,-1.1749545,10.228029,0.59615624
286,1436463455692,-1.5041572,9.907805,0.33638534
287,1436463455707,-1.6244658,9.601347,-0.015562311
288,1436463455728,-1.4532804,9.398438,-0.2908955
289,1436463455749,-1.0600328,9.552865,-0.587178
290,1436463455769,-0.52073884,10.065823,-0.7320272
291,1436463455787,0.14425065,10.807426,-0.65541273
292,1436463455811,0.80445176,11.477204,-0.3250129
293,1436463455827,1.0947487,11.464635,0.17357962
294,1436463455847,1.1833342,11.262324,0.5770026
295,1436463455878,1.388637,10.787076,1.192911
296,1436463455947,1.3275849,10.262147,1.3461399
297,1436463455948,1.0055647,10.01734,1.0271125
298,1436463455949,0.41180268,9.964667,0.5201403
299,1436463455950,-0.11671733,9.64145,0.18136078
300,1436463455965,-0.15981296,9.409811,0.047285482
301,1436463455987,-0.0053869537,9.479841,-0.04070143
302,1436463456006,0.12330139,9.409811,-0.025737667
303,1436463456029,0.20829555,9.3822775,-0.050876785
304,1436463456048,0.20829555,9.70789,-0.15562311
305,1436463456066,0.15203181,10.038289,-0.037708677
306,1436463456089,0.10594343,10.062231,0.20530279
307,1436463456107,0.11133038,10.307637,0.16699557
308,1436463456127,0.0712275,10.997167,-0.046088383
309,1436463456147,-0.07062895,11.613674,-0.0796072
310,1436463456187,-0.08020575,12.012907,0.2633622
311,1436463456188,0.13108255,12.091916,0.866701
312,1436463456223,0.7152678,11.733982,1.8734628
313,1436463456226,1.4945804,11.709442,2.1906946
314,1436463456245,1.6041151,12.037448,1.8237832
315,1436463456265,1.1647792,12.905346,1.079785
316,1436463456285,0.32321724,12.62702,0.6853402
317,1436463456305,0.17417817,11.655573,0.78050977
318,1436463456325,0.7691373,10.88464,1.0151415
319,1436463456346,1.0546459,8.951322,1.4676456
320,1436463456365,1.3257892,6.9820905,1.7806876
321,1436463456387,1.8716671,6.4062853,1.9482816
322,1436463456407,2.3588872,7.2753806,1.7369933
323,1436463456425,2.337938,8.731653,1.5358804
324,1436463456446,1.9913772,9.655217,2.006341
325,1436463456473,1.8860323,10.147824,2.8113914
326,1436463456486,1.941099,10.301053,3.2202013
327,1436463456506,1.70946,10.184934,2.9376855
328,1436463456531,1.1204864,9.85214,2.369661
329,1436463456547,0.92655605,9.675568,1.875857
330,1436463456598,0.7128736,9.176975,1.7004818
331,1436463456599,0.46866497,8.628104,1.5334862
332,1436463456616,0.01436521,8.26239,1.4466964
333,1436463456625,-0.52073884,8.037933,1.3066356
334,1436463456650,-1.0097545,7.9146323,1.0552444
335,1436463456667,-1.3120226,7.828441,0.8074445
336,1436463456688,-1.4335283,7.8410106,0.65421563
337,1436463456709,-1.4496891,8.090008,0.5530606
338,1436463456730,-1.4580688,8.527548,0.54288524
339,1436463456750,-1.4766239,9.038112,0.6775591
340,1436463456772,-1.489792,9.5492735,1.0857705
341,1436463456795,-1.4137762,9.917382,1.8405426
342,1436463456810,-1.2354081,10.563218,2.4169466
343,1436463456827,-0.9307459,11.729194,2.0769699
344,1436463456847,0.29149407,13.345879,1.388637
345,1436463456867,2.2164323,13.168109,1.7824832
346,1436463456887,3.4356794,14.152725,2.8419175
347,1436463456908,2.4863784,16.472107,2.7287915
348,1436463456934,-0.36032736,16.901867,0.93134445
349,1436463456950,-2.1751323,13.331513,-0.52732295
350,1436463456970,-1.2270284,10.237008,-1.0474633
351,1436463456988,-0.36391866,8.497621,-1.1701661
352,1436463457011,-0.22804771,7.9541364,-1.3611037
353,1436463457030,-0.42556936,9.3733,-1.9195513
354,1436463457049,-0.28491,10.772711,-2.2936451
355,1436463457071,0.4201824,10.574591,-1.8285716
356,1436463457089,1.6328455,10.11251,-0.97144735
357,1436463457108,2.7623103,9.888652,0.24720132
358,1436463457131,3.2866404,9.809045,1.3431472
359,1436463457149,3.341707,9.761759,1.8136078
360,1436463457169,3.181894,9.41879,1.9195513
361,1436463457197,2.741361,8.845977,1.7375919
362,1436463457241,2.046444,8.39886,1.1438298
363,1436463457242,1.2521675,8.258799,0.40282443
364,1436463457256,0.581791,8.477868,-0.33518824
365,1436463457275,0.25558102,8.504205,-0.57879823
366,1436463457286,-0.26515785,8.486248,-0.6943185
367,1436463457308,-0.5734113,8.590396,-0.533907
368,1436463457326,-0.7835025,8.577228,-0.47405192
369,1436463457346,-0.9451111,8.620323,-0.60693014
370,1436463457368,-1.0696096,8.901043,-0.57281274
371,1436463457386,-1.0905589,9.557653,-0.23822308
372,1436463457408,-1.1390414,10.865486,0.026934769
373,1436463457431,-1.5664065,12.119449,0.29448682
374,1436463457448,-1.9901801,12.413936,0.8391677
375,1436463457470,-1.8267759,12.50731,1.3156139
376,1436463457491,-1.2348095,12.780249,1.4676456
377,1436463457508,-0.61770403,13.452421,1.501763
378,1436463457530,-0.11133038,14.1108265,1.4095862
379,1436463457552,0.4770447,14.156316,1.4969746
380,1436463457571,1.1899183,13.160927,1.6759412
381,1436463457588,1.7555484,11.171944,1.6861166
382,1436463457609,2.0757728,9.022549,1.3994108
383,1436463457628,2.2535424,7.5848308,1.2138603
384,1436463457649,2.3780408,7.2370734,1.0660183
385,1436463457668,2.4929626,8.186973,0.8230068
386,1436463457690,2.268506,9.701904,0.9995792
387,1436463457709,1.6430209,10.478224,1.9405005
388,1436463457736,1.6023195,10.296265,3.0358477
389,1436463457751,1.9117701,9.817424,3.196858
390,1436463457768,1.7489643,9.564836,2.4666264
391,1436463457795,1.1887212,8.987235,1.8854338
392,1436463457814,0.86011696,8.377312,1.5879543
393,1436463457882,0.51475334,7.7949224,1.4149733
394,1436463457883,-0.020949265,7.2885485,1.2599486
395,1436463457884,-0.705691,6.8767457,1.0223241
396,1436463457899,-1.4359225,7.0006456,0.76434886
397,1436463457910,-2.0811598,7.691373,0.27832595
398,1436463457926,-2.6330233,8.728063,-0.39324763
399,1436463457946,-3.1489737,9.43914,-0.66738373
400,1436463457969,-3.2052376,9.513959,-0.3513491
401,1436463457989,-2.9909565,9.476849,0.02813187
402,1436463458011,-2.433706,9.546879,1.0115502
403,1436463458033,-2.0452468,9.816227,1.9668367
404,1436463458051,-1.9075803,10.761936,2.135628
405,1436463458076,-1.3575124,12.943054,1.0989386
406,1436463458089,0.7661445,14.279019,0.7104794
407,1436463458111,3.8151605,14.057555,3.1094694
408,1436463458132,4.811148,15.692795,5.1505265
409,1436463458151,2.496554,16.53256,3.8696284
