id,attr_time,attr_x,attr_y,attr_z
1,1436896819608,-0.6398504,10.13705,1.0666169
2,1436896819633,-0.61530983,10.07121,1.0336965
3,1436896819653,-0.6278794,10.134656,1.0151415
4,1436896819669,-0.6889315,10.156203,1.021127
5,1436896819689,-0.682946,10.006566,1.0648212
6,1436896819709,-0.61890113,10.038888,1.0821792
7,1436896819731,-0.6751649,10.108319,0.9864111
8,1436896819752,-0.7080852,10.157401,0.90740246
9,1436896819771,-0.6997054,10.161591,0.96785605
10,1436896819792,-0.6877344,10.120889,1.0821792
11,1436896819813,-0.74878657,10.1382475,1.1073183
12,1436896819831,-0.789488,10.183737,1.0540473
13,1436896819852,-0.80445176,10.176555,1.01574
14,1436896819874,-0.7248446,10.1161,1.0690111
15,1436896819889,-0.670975,10.042479,1.0833763
16,1436896819912,-0.676362,10.031705,1.0259154
17,1436896819932,-0.7098808,10.123882,0.9780314
18,1436896819950,-0.6847417,10.149021,1.0127473
19,1436896819970,-0.635062,10.119094,1.1115081
20,1436896819989,-0.6386533,10.132261,1.1085154
21,1436896820011,-0.7146692,10.079589,1.0127473
22,1436896820033,-0.7769185,10.10413,0.9516952
23,1436896820094,-0.7613561,10.105327,0.9708488
24,1436896820095,-0.7134721,10.131064,1.0133458
25,1436896820096,-0.7086837,10.1226845,1.0283096
26,1436896820109,-0.7098808,10.126875,1.0432734
27,1436896820130,-0.6691794,10.159795,1.0582372
28,1436896820149,-0.5734113,10.032304,1.0923545
29,1436896820174,-0.54408234,10.065823,1.0390835
30,1436896820197,-0.62488663,10.09994,0.90979666
31,1436896820212,-0.6781576,10.096947,0.85891986
32,1436896820229,-0.6793547,10.114903,0.9516952
33,1436896820249,-0.6697779,10.092757,1.0378864
34,1436896820269,-0.7009025,10.1226845,1.0301052
35,1436896820289,-0.7368156,10.173561,0.97264445
36,1436896820310,-0.75716627,10.1699705,0.96426475
37,1436896820329,-0.7344214,10.125677,1.021127
38,1436896820349,-0.7015011,10.076596,1.0169371
39,1436896820371,-0.736217,10.086173,0.961272
40,1436896820389,-0.75836337,10.103531,0.91338795
41,1436896820410,-0.7326257,10.131064,0.95349085
42,1436896820429,-0.676362,10.135254,1.0229226
43,1436896820449,-0.6799533,10.195109,1.0235212
44,1436896820469,-0.7302315,10.159196,0.9792285
45,1436896820489,-0.80924016,10.120889,0.9044097
46,1436896820509,-0.75596917,10.078392,0.99060094
47,1436896820529,-0.7457938,10.1143055,0.92416185
48,1436896820549,-0.8194155,10.136452,0.84455466
49,1436896820569,-0.83976626,10.149021,0.9247604
50,1436896820590,-0.6991069,10.172963,1.0845734
51,1436896820610,-0.61650693,10.044274,1.0911574
52,1436896820630,-0.58418524,10.123882,0.93134445
53,1436896820650,-0.7032967,10.144233,0.7769185
54,1436896820671,-0.7332243,10.127473,0.81642276
55,1436896820693,-0.66738373,10.098145,0.93373865
56,1436896820712,-0.6536171,10.084377,1.0049661
57,1436896820732,-0.6584055,10.102933,1.0181342
58,1436896820750,-0.7086837,10.126875,0.96546185
59,1436896820769,-0.741604,10.14543,0.88765025
60,1436896820789,-0.7386112,10.046669,0.88765025
61,1436896820810,-0.6931214,10.068815,0.9900024
62,1436896820832,-0.6943185,10.089166,0.9876082
63,1436896820855,-0.6607997,10.126276,0.9576807
64,1436896820868,-0.5793968,10.0987425,0.985214
65,1436896820888,-0.5530606,10.104729,1.0217255
66,1436896820908,-0.5979519,10.175956,0.96665895
67,1436896820928,-0.7182605,10.196905,0.95229375
68,1436896820953,-0.75716627,10.117896,0.9983821
69,1436896820969,-0.74878657,10.030508,1.033098
70,1436896820993,-0.7009025,10.070012,1.0097545
71,1436896821013,-0.705691,10.086772,0.9475053
72,1436896821033,-0.7098808,10.137649,0.961272
73,1436896821053,-0.6691794,10.171167,0.9995792
74,1436896821068,-0.58298814,10.100538,1.0905589
75,1436896821093,-0.5386954,10.146626,1.0785879
76,1436896821113,-0.6302736,10.126875,0.9516952
77,1436896821133,-0.6931214,10.128072,0.86969376
78,1436896821149,-0.6775591,10.139444,0.8936358
79,1436896821173,-0.6721721,10.1226845,0.9911995
80,1436896821196,-0.6871359,10.101137,1.0241197
81,1436896821211,-0.6913257,10.11251,1.0348936
82,1436896821234,-0.7170634,10.159196,0.9636662
83,1436896821253,-0.694917,10.069414,0.93852705
84,1436896821272,-0.60932434,10.068216,1.0348936
85,1436896821293,-0.61052144,10.108319,1.0408791
86,1436896821310,-0.6087258,10.183139,1.0007763
87,1436896821330,-0.5919664,10.128671,1.01574
88,1436896821350,-0.5895722,10.0987425,1.033098
89,1436896821370,-0.6596026,10.078392,0.9923966
90,1436896821393,-0.7445967,10.092757,0.9127894
91,1436896821411,-0.7673417,10.116699,0.96665895
92,1436896821431,-0.7368156,10.134057,1.0606314
93,1436896821451,-0.7032967,10.150817,1.0755951
94,1436896821472,-0.6889315,10.128072,1.0336965
95,1436896821553,-0.7026982,10.178948,0.98581254
96,1436896821554,-0.6745663,10.107721,1.0049661
97,1436896821555,-0.5758055,10.032304,1.0630256
98,1436896821556,-0.59017074,10.093954,1.0313023
99,1436896821573,-0.6548142,10.123283,0.94930094
100,1436896821591,-0.6218939,10.166379,0.94690675
101,1436896821610,-0.61650693,10.138845,1.0241197
102,1436896821630,-0.6619968,10.113108,1.0684125
103,1436896821663,-0.7104794,10.11251,1.0480618
104,1436896821671,-0.7332243,10.120291,0.99898064
105,1436896821692,-0.7146692,10.150218,0.9744401
106,1436896821715,-0.7020996,10.117896,1.0265139
107,1436896821734,-0.61770403,10.101735,1.0241197
108,1436896821754,-0.62488663,10.110115,1.0199299
109,1436896821774,-0.64583594,10.144233,0.9828198
110,1436896821794,-0.65421563,10.120291,0.9828198
111,1436896821814,-0.623091,10.086772,1.027711
112,1436896821833,-0.6889315,10.121488,1.0606314
113,1436896821888,-0.75237787,10.117298,0.9864111
114,1436896821889,-0.80205756,10.128072,0.95109665
115,1436896821890,-0.830788,10.118495,1.0055647
116,1436896821911,-0.842759,10.238205,0.98581254
117,1436896821955,-0.8511387,10.161591,0.8810662
118,1436896821956,-0.78290397,10.180145,0.9295488
119,1436896821971,-0.6751649,10.12448,1.0289081
120,1436896821991,-0.50637364,9.999982,1.079785
121,1436896822026,-0.43634325,10.011354,1.0546459
122,1436896822030,-0.50397944,10.064027,1.0061632
123,1436896822051,-0.57520694,10.08737,0.99299514
124,1436896822071,-0.60214174,10.08737,1.0570401
125,1436896822093,-0.66379243,10.128072,1.1180922
126,1436896822118,-0.76195467,10.1460285,1.1198878
127,1436896822131,-0.8319851,10.1460285,1.0564415
128,1436896822151,-0.81881696,10.140641,1.0540473
129,1436896822174,-0.7649474,10.079589,1.0737995
130,1436896822197,-0.7015011,10.037092,1.0833763
131,1436896822302,-0.6512229,10.063428,1.0600328
132,1436896822303,-0.6703765,10.134057,1.062427
133,1436896822304,-0.6877344,10.143036,1.0696096
134,1436896822305,-0.6667852,10.061034,1.0965444
135,1436896822306,-0.65182143,10.081385,1.1168951
136,1436896822325,-0.7128736,10.101735,1.1097125
137,1436896822333,-0.777517,10.108319,1.079785
138,1436896822351,-0.78888947,10.1143055,1.073201
139,1436896822372,-0.801459,10.162787,1.067814
140,1436896822391,-0.8098387,10.121488,1.0845734
141,1436896822419,-0.8583213,10.186729,1.0827777
142,1436896822432,-0.8678981,10.223241,1.1150994
143,1436896822455,-0.7697359,10.016143,1.1611878
144,1436896822476,-0.6607997,10.017939,1.1671734
145,1436896822492,-0.65660983,10.050261,1.1180922
146,1436896822514,-0.64942724,10.120291,1.0528502
147,1436896822533,-0.6404489,10.149021,1.0199299
148,1436896822555,-0.676362,10.147824,1.0899603
149,1436896822573,-0.729633,10.142437,1.1587936
150,1436896822593,-0.75118077,10.135254,1.168969
151,1436896822615,-0.7260417,10.174759,1.1414356
152,1436896822633,-0.7080852,10.113108,1.1061212
153,1436896822654,-0.65660983,10.101137,1.1025299
154,1436896822685,-0.6476316,10.105327,1.0833763
155,1436896822696,-0.700304,10.105327,1.0456676
156,1436896822711,-0.78050977,10.14543,1.0402806
157,1436896822731,-0.801459,10.1621895,1.158195
158,1436896822752,-0.82899237,10.184934,1.1773487
159,1436896822774,-0.87807345,10.221446,1.1007342
160,1436896822794,-0.9271546,10.283695,1.1827357
161,1436896822811,-0.8086416,10.213664,1.0785879
162,1436896822833,-0.47764325,10.166379,1.0366893
163,1436896822853,-0.17357962,10.036493,1.0366893
164,1436896822878,0.18555063,9.904813,1.1438298
165,1436896822898,0.46926352,9.940127,1.1097125
166,1436896822918,0.60693014,9.870695,1.0235212
167,1436896822933,0.7404069,9.880871,0.93373865
168,1436896822954,0.62368953,9.891046,0.79248077
169,1436896823026,0.48123455,9.762956,0.724246
170,1436896823027,0.3824737,9.780912,0.7326257
171,1436896823028,0.3417723,9.807847,0.81881696
172,1436896823034,0.3250129,9.829395,0.9008184
173,1436896823062,0.30047232,10.068216,0.82360536
174,1436896823074,0.2837129,10.131064,0.7685388
175,1436896823092,0.30585927,10.085575,0.7505822
176,1436896823113,0.34596214,10.055049,0.65541273
177,1436896823132,0.3345897,10.061633,0.6769605
178,1436896823154,0.25198972,9.98442,0.4902128
179,1436896823174,0.12928689,9.997588,0.23582886
180,1436896823197,0.16579847,9.8677025,0.21787235
181,1436896823217,0.14425065,9.867104,0.19752164
182,1436896823234,0.10654198,10.031107,0.13347675
183,1436896823254,0.05746084,9.969456,0.18076223
184,1436896823276,0.22804771,9.837775,0.3286042
185,1436896823293,0.3489549,9.812037,0.44113165
186,1436896823314,0.42317516,9.836577,0.43275195
187,1436896823335,0.32441434,9.883265,0.24061728
188,1436896823355,0.05267244,9.796474,0.0712275
189,1436896823375,-0.11492168,9.879075,-0.060453594
190,1436896823394,-0.16460137,9.762358,-0.073621705
191,1436896823415,-0.17238252,9.660604,0.12569559
192,1436896823435,-0.19752164,9.481039,0.3824737
193,1436896823455,-0.12629414,9.314043,0.48602295
194,1436896823475,0.005985504,9.400833,0.42556936
195,1436896823496,-0.02633622,9.5385,0.16879122
196,1436896823515,0.049679685,9.510966,0.037708677
197,1436896823536,0.30825347,9.603143,0.077811554
198,1436896823555,0.53809685,9.662399,0.1412579
199,1436896823575,0.81043726,9.750386,0.22146365
200,1436896823596,0.82719666,9.636662,0.21308395
201,1436896823616,0.8487445,9.660006,0.18016368
202,1436896823634,0.75596917,9.778519,-0.023343466
203,1436896823660,0.6464345,9.674969,-0.3369839
204,1436896823736,0.8002619,9.734824,-0.3465607
205,1436896823737,0.9923966,10.042479,-0.31184477
206,1436896823738,1.062427,10.271724,-0.29987377
207,1436896823739,1.2240356,10.365098,-0.22984336
208,1436896823754,1.3754689,10.432136,-0.07062895
209,1436896823774,1.5245079,10.454881,-0.021547815
210,1436896823792,1.7316064,10.5285015,0.06584055
211,1436896823813,1.8746599,10.560823,0.49081135
212,1436896823834,1.9129672,10.666767,1.0666169
213,1436896823854,1.8058267,10.287286,1.3988123
214,1436896823873,1.7100586,10.065224,1.2294226
215,1436896823894,1.3126211,10.144831,0.62728083
216,1436896823916,0.9840169,10.314819,-0.12509704
217,1436896823933,0.92775315,10.009559,-0.53689975
218,1436896823956,1.9794062,11.297041,-0.1328782
219,1436896823976,4.0402155,14.572907,0.842759
220,1436896823996,2.356493,8.869919,2.3427265
221,1436896824016,3.702633,9.626487,1.5101427
222,1436896824036,4.6273932,10.333973,-0.81043726
223,1436896824056,4.856638,11.137228,-1.9955671
224,1436896824076,4.872799,11.102511,0.40342298
225,1436896824096,4.3287168,9.34397,2.7210102
226,1436896824114,4.0707417,8.772355,3.4165258
227,1436896824135,3.9193082,9.929353,3.2357635
228,1436896824154,3.459023,10.358514,2.6120741
229,1436896824173,2.822764,10.027515,1.9859903
230,1436896824196,2.1410148,8.4347725,1.9375077
231,1436896824217,0.587178,5.7766104,1.4820108
232,1436896824235,2.3768437,14.210186,0.7769185
233,1436896824254,4.4125137,14.589068,-2.445677
234,1436896824274,3.1022868,7.1065893,-0.3298013
235,1436896824293,4.2634745,7.153875,1.9506758
236,1436896824314,6.537368,8.941745,3.4452562
237,1436896824333,6.7887588,10.46326,2.6372132
238,1436896824356,5.427655,10.1861315,2.5510218
239,1436896824373,4.408922,9.227253,2.5234885
240,1436896824403,4.374805,8.517971,2.0811598
241,1436896824463,4.531027,8.9842415,1.2802993
242,1436896824464,3.809175,9.383475,0.7314286
243,1436896824465,3.4033577,9.292496,0.8702923
244,1436896824485,3.020884,8.911219,0.8265981
245,1436896824498,3.7110126,8.644265,0.98102415
246,1436896824514,4.9625816,8.694544,1.590947
247,1436896824536,5.489306,8.65863,1.9087774
248,1436896824555,5.741296,8.735844,1.376666
249,1436896824574,6.566098,8.354567,1.049259
250,1436896824606,6.9491706,8.395866,1.4760253
251,1436896824625,5.843648,8.98903,1.9153614
252,1436896824634,5.134964,8.723274,1.8776526
253,1436896824657,5.227141,7.7907324,2.1051018
254,1436896824679,4.4807487,7.912238,2.3930047
255,1436896824693,4.0402155,8.93935,1.7447745
256,1436896824713,3.366846,8.228272,1.4197617
257,1436896824732,3.1890767,7.510012,1.6944963
258,1436896824754,3.7989995,8.47727,1.1833342
259,1436896824774,4.3999443,8.918402,0.748188
260,1436896824797,4.5962687,8.711902,0.7110779
261,1436896824817,5.379771,8.616134,1.0271125
262,1436896824836,6.2883706,8.697536,0.87328506
263,1436896824854,6.7881603,8.023568,1.1528081
264,1436896824874,7.009624,8.572439,1.0462662
265,1436896824894,6.9383965,9.138069,0.8774749
266,1436896824918,6.4344172,8.496424,1.0366893
267,1436896824938,6.4469867,8.459313,1.448492
268,1436896824958,6.367978,9.041104,1.3700819
269,1436896824975,5.8502316,9.467871,1.2012907
270,1436896824993,5.265448,9.322423,1.3096284
271,1436896825015,4.5418005,8.713697,2.0590134
272,1436896825033,3.7259765,8.178593,2.765303
273,1436896825058,3.0232782,8.24204,3.3075895
274,1436896825075,2.3355439,8.6299,3.4757824
275,1436896825099,1.7142484,9.045893,3.4799721
276,1436896825114,1.4431051,9.5253315,3.489549
277,1436896825139,1.3347675,10.097546,3.7110126
278,1436896825164,1.3138182,10.234015,3.9217024
279,1436896825182,1.3431472,10.093356,4.3305125
280,1436896825195,1.4933833,9.685743,4.575918
281,1436896825214,1.5448587,9.293693,4.4657845
282,1436896825234,1.4568717,9.198523,4.032434
283,1436896825261,1.2521675,9.088988,3.596091
284,1436896825275,1.0055647,8.98903,3.4063504
285,1436896825295,0.85054016,9.036316,3.430891
286,1436896825315,0.80924016,9.2547865,3.4626143
287,1436896825337,0.94092125,9.481039,3.259107
288,1436896825355,1.252766,9.698911,2.9652188
289,1436896825375,1.745373,9.713875,2.8927941
290,1436896825397,2.2349873,9.584588,3.2202013
291,1436896825417,2.517503,9.3733,3.5883098
292,1436896825437,2.48578,9.368511,3.6487634
293,1436896825458,2.2230163,9.466075,3.489549
294,1436896825478,1.9572599,9.534908,3.317765
295,1436896825494,1.6663644,9.386468,3.0669725
296,1436896825523,1.4921862,9.3026705,2.8245595
297,1436896825548,1.3688848,9.151836,2.8221653
298,1436896825557,1.4371196,9.583391,2.815581
299,1436896825574,1.3814543,9.980229,2.597709
300,1436896825594,1.3365631,9.668983,2.557606
301,1436896825618,1.5316905,9.78989,2.8072014
302,1436896825636,1.496376,9.803658,2.919729
303,1436896825655,1.2605472,9.661801,2.9179332
304,1436896825674,0.8702923,9.611523,2.9993362
305,1436896825696,0.4381389,9.770737,2.8006175
306,1436896825715,-0.12749124,9.792285,2.3427265
307,1436896825736,-0.48482585,9.674969,2.0159178
308,1436896825757,-0.599149,9.710283,1.977012
309,1436896825777,-0.5386954,9.734225,1.9991584
310,1436896825797,-0.4878186,9.704298,2.111686
311,1436896825817,-0.4782418,9.700109,2.1757307
312,1436896825840,-0.48961425,9.646238,2.1817162
313,1436896825908,-0.48362875,9.836577,2.1613655
314,1436896825909,-0.5189432,10.087969,2.0368671
315,1436896825910,-0.59136784,10.220847,2.007538
316,1436896825917,-0.6787562,10.271724,2.0907366
317,1436896825936,-0.7846996,10.270527,2.0727801
318,1436896825957,-0.825401,10.086772,2.0685902
319,1436896825974,-0.75716627,10.12448,2.070386
320,1436896825995,-0.56982,10.1621895,2.007538
321,1436896826020,-0.3681085,10.362703,1.9536686
322,1436896826036,-0.21308395,10.454881,1.9333179
323,1436896826056,-0.26874915,10.271724,1.917157
324,1436896826075,-0.51714754,10.01734,2.0536265
325,1436896826096,-0.82240826,9.813234,2.1158757
326,1436896826118,-1.0498575,9.828198,2.0769699
327,1436896826138,-1.3180081,9.859323,1.8788497
328,1436896826155,-1.5011644,9.572617,1.4634558
329,1436896826178,-1.6071079,9.639654,1.1234791
330,1436896826198,-1.6376339,9.967062,0.85891986
331,1436896826217,-1.6292542,10.175357,0.8295909
332,1436896826238,-1.6232687,10.390237,1.0103531
333,1436896826258,-1.6334441,10.395624,1.2270284
334,1436896826278,-1.6609775,10.189124,1.4281414
335,1436896826299,-1.7357962,10.029909,1.5957354
336,1436896826317,-1.7812861,9.829993,1.7729063
337,1436896826337,-1.8836381,9.861717,2.006341
338,1436896826359,-1.9285295,10.028113,2.191293
339,1436896826378,-1.9027919,10.223241,2.0649989
340,1436896826398,-1.9393034,10.336368,1.7088615
341,1436896826417,-1.9261353,10.496181,1.4730326
342,1436896826447,-1.9620483,10.34774,1.4808137
343,1436896826458,-2.0931308,10.147225,1.6675615
344,1436896826475,-2.3020248,9.988609,1.6711528
345,1436896826497,-2.492364,10.006566,1.5819688
346,1436896826517,-2.544438,9.940127,1.2707225
347,1436896826537,-2.528277,9.7162695,1.027711
348,1436896826557,-2.5306711,9.788095,0.57999533
349,1436896826628,-2.4540567,9.89763,0.37948096
350,1436896826629,-2.1511903,9.7863,0.62488663
351,1436896826630,-1.887828,9.508572,1.0953473
352,1436896826647,-1.7561469,9.420585,1.5406688
353,1436896826655,-1.8046296,9.454104,1.5975311
354,1436896826675,-2.0177135,9.57142,1.496376
355,1436896826697,-2.3624785,9.786898,1.4598645
356,1436896826715,-2.7569232,9.943718,1.4676456
357,1436896826737,-2.996942,10.396222,1.3377602
358,1436896826755,-3.1064768,10.376471,1.1270704
359,1436896826777,-3.043629,9.829395,1.1671734
360,1436896826796,-2.8921957,9.504981,1.2665327
361,1436896826817,-2.743755,9.252991,1.3275849
362,1436896826838,-2.5743654,9.419388,1.42455
363,1436896826859,-2.4462755,9.794081,1.3862427
364,1436896826879,-2.31639,9.906608,1.2952632
365,1436896826899,-2.319383,10.018537,1.2312182
366,1436896826919,-2.3762453,10.074203,1.1701661
367,1436896826939,-2.5145104,9.965266,1.1611878
368,1436896826959,-2.7150247,9.827001,1.3772645
369,1436896826979,-2.735974,9.718064,1.572392
370,1436896826999,-2.6952724,9.643845,1.6220716
371,1436896827019,-2.719813,9.563639,1.6005238
372,1436896827037,-2.6844985,9.434352,1.6998832
373,1436896827059,-2.5312698,9.427768,1.673547
374,1436896827082,-2.4157495,9.5570545,1.5987282
375,1436896827098,-2.4289176,9.731832,1.5526398
376,1436896827121,-2.5127146,9.88925,1.5233108
377,1436896827139,-2.6168625,9.897031,1.496376
378,1436896827157,-2.581548,9.874287,1.6573862
379,1436896827177,-2.5911248,9.81084,1.7411832
380,1436896827197,-2.6503813,9.782708,1.6921021
381,1436896827223,-2.7814639,9.712678,1.7292122
382,1436896827238,-2.984971,9.712678,1.6849195
383,1436896827258,-3.1848867,9.79827,1.6226702
384,1436896827277,-3.2279825,9.697714,1.6376339
385,1436896827352,-3.2124202,9.531317,1.7866731
386,1436896827353,-3.2267854,9.53012,1.6418238
387,1436896827354,-3.4733882,9.3978405,1.3347675
388,1436896827358,-3.7427359,9.153033,1.1839328
389,1436896827376,-3.903746,8.907029,1.2096704
390,1436896827398,-3.8534677,9.053674,1.2485762
391,1436896827418,-3.7720647,9.169194,1.1791444
392,1436896827436,-3.6272156,9.068039,1.6154876
393,1436896827456,-3.3596635,8.986037,1.9722236
394,1436896827478,-3.217807,8.988432,2.1134815
395,1436896827497,-3.265691,9.09258,2.0697873
396,1436896827517,-3.2603042,9.32781,2.059612
397,1436896827540,-3.0292637,9.543886,2.0446482
398,1436896827557,-2.6234465,9.527127,2.2864625
399,1436896827579,-2.2798786,9.57142,2.633622
400,1436896827597,-1.9434932,9.686341,2.9400797
401,1436896827619,-1.8177977,9.57142,2.8628666
402,1436896827640,-1.8471266,9.637859,2.486977
403,1436896827660,-2.1188686,9.485229,2.0374656
404,1436896827680,-2.421735,8.950125,2.1021092
405,1436896827699,-2.3654714,9.164406,2.6007016
406,1436896827718,-1.5173253,9.870096,3.615843
407,1436896827740,-1.371279,8.55987,2.7222073
408,1436896827759,-2.9945478,8.6574335,2.0620062
409,1436896827778,-4.3754034,8.948329,1.4945804
410,1436896827800,-4.9482164,9.085397,1.252766
411,1436896827820,-4.7830167,9.536704,1.4000094
412,1436896827869,-4.4005427,9.725247,1.2982559
413,1436896827870,-4.24073,9.3978405,1.4185646
414,1436896827877,-4.015076,9.282919,1.882441
415,1436896827899,-3.8881836,9.449914,1.9859903
