id,attr_time,attr_x,attr_y,attr_z
1,1437147221407,-0.064446285,-0.04886922,-0.05222898
2,1437147221427,-0.06658431,-0.07544186,-0.05497787
3,1437147221449,-0.06719518,-0.08002335,-0.05131268
4,1437147221468,-0.07391469,-0.061391957,-0.0421497
5,1437147221486,-0.06291912,-0.04642576,-0.042455133
6,1437147221506,-0.058948494,-0.044898596,-0.041233405
7,1437147221525,-0.049785517,-0.040927973,-0.03573562
8,1437147221544,-0.04642576,-0.054061573,-0.0290161
9,1437147221582,-0.047647487,-0.05375614,-0.030848695
10,1437147221587,-0.04642576,-0.04550946,-0.027488936
11,1437147221605,-0.028405234,-0.048563786,-0.030543262
12,1437147221625,-0.011911872,-0.047036625,-0.028405234
13,1437147221645,-0.005192355,-0.032986723,-0.026572637
14,1437147221669,0.0012217305,-0.03940081,-0.032986723
15,1437147221686,-0.0061086523,-0.051618114,-0.03268129
16,1437147221705,-0.019242255,-0.04520403,-0.028099801
17,1437147221726,-0.026267206,-0.03756821,-0.027183503
18,1437147221745,-0.016187929,-0.034208454,-0.017715093
19,1437147221768,0.00061086525,-0.03023783,-0.021991149
20,1437147221788,0.005192355,-0.024740042,-0.023518313
21,1437147221806,-0.0018325958,-0.0125227375,-0.02107485
22,1437147221826,-0.0143553335,-0.02107485,-0.0143553335
23,1437147221848,-0.0018325958,-0.02565634,-0.014049901
24,1437147221868,0.015577064,-0.014660766,-0.01740966
25,1437147221888,0.029321533,0.008246681,-0.022907447
26,1437147221910,0.026572637,0.01740966,-0.01863139
27,1437147221930,0.01038471,0.009162978,-0.012217305
28,1437147221949,-0.00580322,0.0061086523,-0.011911872
29,1437147221966,-0.00061086525,-0.0036651916,-0.008246681
30,1437147221990,0.016493361,0.0033597588,-0.012217305
31,1437147222023,0.02107485,0.016798794,-0.015577064
32,1437147222028,0.009773844,0.016187929,-0.009468411
33,1437147222046,-0.0033597588,0.01038471,-0.013133603
34,1437147222067,-0.011911872,0.010079277,-0.008246681
35,1437147222086,0.008857546,0.009162978,-0.013744468
36,1437147222108,0.022296581,0.010995574,-0.0143553335
37,1437147222176,0.017715093,0.011911872,-0.010995574
38,1437147222177,0.01038471,0.004276057,-0.014660766
39,1437147222178,0.0015271631,0.004276057,-0.018325957
40,1437147222187,0.011911872,0.0070249503,-0.018020526
41,1437147222206,0.027488936,0.015271631,-0.021380283
42,1437147222229,0.03023783,0.02321288,-0.018020526
43,1437147222246,0.026572637,0.022907447,-0.01985312
44,1437147222266,0.018325957,0.014660766,-0.01985312
45,1437147222286,0.006414085,0.0106901415,-0.023823744
46,1437147222306,0.020463986,0.0015271631,-0.019547688
47,1437147222326,0.022602014,0.014660766,-0.016493361
48,1437147222349,0.025350908,0.02687807,-0.012217305
49,1437147222368,0.029626964,0.030848695,-0.015577064
50,1437147222387,0.027183503,0.025350908,-0.022602014
51,1437147222407,0.004276057,0.008552114,-0.02565634
52,1437147222427,-0.0015271631,-0.006414085,-0.017104227
53,1437147222447,0.01160644,-0.008857546,-0.016798794
54,1437147222476,0.032375857,-0.005192355,-0.02076942
55,1437147222534,0.036957346,-0.0018325958,-0.024740042
56,1437147222536,0.02076942,-0.008552114,-0.018325957
57,1437147222537,0.00580322,-0.005497787,-0.011301007
58,1437147222550,0.0036651916,0.015577064,-0.015882496
59,1437147222576,0.0106901415,0.022907447,-0.010995574
60,1437147222622,0.021991149,-0.008857546,-0.016187929
61,1437147222623,0.021991149,-0.014660766,-0.016493361
62,1437147222631,0.018020526,-0.015577064,-0.010079277
63,1437147222648,0.017715093,-0.01160644,-0.0106901415
64,1437147222666,0.01740966,-0.010995574,-0.015271631
65,1437147222690,0.02565634,-0.026572637,-0.01740966
66,1437147222708,0.026267206,-0.027183503,-0.024740042
67,1437147222728,0.014966198,-0.03970624,-0.023518313
68,1437147222747,0.005192355,-0.055588737,-0.02443461
69,1437147222768,0.0070249503,-0.061391957,-0.019242255
70,1437147222786,0.033292156,-0.057421334,-0.015577064
71,1437147222807,0.02321288,-0.062002823,-0.022907447
72,1437147222827,-0.03176499,-0.067500606,-0.032986723
73,1437147222847,-0.0711658,-0.102319926,-0.03268129
74,1437147222868,-0.10170906,-0.11575896,-0.02076942
75,1437147222893,-0.129198,-0.13683382,-0.020158553
76,1437147222912,-0.13713925,-0.1518,-0.02565634
77,1437147222929,-0.11789699,-0.1695151,-0.0290161
78,1437147222951,-0.08307768,-0.19486602,-0.053450707
79,1437147223015,-0.04886922,-0.23487769,-0.069027774
80,1437147223016,-0.010995574,-0.23518312,-0.06505715
81,1437147223017,0.065973446,-0.21655174,-0.048258353
82,1437147223035,0.106901415,-0.19150625,-0.053450707
83,1437147223048,0.0018325958,-0.22143865,-0.086132
84,1437147223067,-0.12492194,-0.31306845,-0.12950343
85,1437147223087,-0.29749137,-0.33414328,-0.1872302
86,1437147223109,-0.40591997,-0.31337386,-0.17898351
87,1437147223130,-0.4016439,-0.2687807,-0.096516706
88,1437147223149,-0.36102137,-0.32620203,-0.06811147
89,1437147223168,-0.16401732,-0.4297437,-0.0580322
90,1437147223190,0.15943582,-0.49449542,-0.10262536
91,1437147223208,0.27366763,-0.41630468,-0.24953845
92,1437147223227,0.19120082,-0.16310102,-0.37018433
93,1437147223247,-0.110872045,0.09468412,-0.39920044
94,1437147223269,-0.24862215,0.6047566,-0.22999077
95,1437147223293,-0.30176744,0.75808376,-0.081855945
96,1437147223313,-0.3866777,0.027488936,-0.17898351
97,1437147223330,-0.053450707,-0.31429017,-0.28038713
98,1437147223347,-0.1151481,0.57940567,0.1572978
99,1437147223367,-0.4596761,-0.16798794,0.3042109
100,1437147223388,-0.32467487,-0.4196644,0.43860126
101,1437147223408,0.03848451,-0.28955013,0.25320363
102,1437147223432,0.14966199,0.33628133,0.079107046
103,1437147223494,0.08582657,0.9618073,-0.065973446
104,1437147223495,0.14935656,0.91446525,-0.12980886
105,1437147223496,0.19456059,-0.18753563,-0.062002823
106,1437147223522,0.22266038,-0.74067414,0.052839845
107,1437147223528,0.16584991,-0.38881573,-0.0018325958
108,1437147223547,0.23182335,0.19120082,-0.099571034
109,1437147223574,0.3277292,0.34116822,-0.11942416
110,1437147223588,0.28038713,0.10751228,-0.054367006
111,1437147223609,0.28160888,-0.02321288,0.014660766
112,1437147223628,0.7119634,-0.122783914,-0.03848451
113,1437147223681,0.8894198,-0.2434298,-0.29718593
114,1437147223682,0.31215215,-0.36835176,-0.38545597
115,1437147223691,-0.548557,-0.7959574,-0.37018433
116,1437147223711,-0.23976462,-1.4080443,-0.050701816
117,1437147223729,0.13469578,-0.28405234,0.28160888
118,1437147223747,0.28313604,-0.19333886,-0.13347405
119,1437147223770,-0.070249505,-0.8323039,-0.56596667
120,1437147223789,-0.72356987,-0.22388211,0.19853121
121,1437147223808,-0.33658674,1.0317514,0.47525316
122,1437147223830,0.4914411,1.1404854,0.018325957
123,1437147223850,-0.047036625,-0.073303826,-0.30024028
124,1437147223872,-0.7174612,0.2049453,-0.30024028
125,1437147223889,-0.5729916,0.3145956,0.37812558
126,1437147223912,-0.25686884,-0.027183503,0.28405234
127,1437147223976,0.058948494,0.101098195,0.13652839
128,1437147223977,0.3323107,0.37415496,-0.005497787
129,1437147223978,0.30879238,0.6737844,-0.087964594
130,1437147223998,-0.01282817,0.700357,-0.09682214
131,1437147224009,-0.21013765,0.40225476,-0.032375857
132,1437147224028,0.0012217305,0.0290161,0.0018325958
133,1437147224054,0.13439035,0.12644911,0.04153884
134,1437147224069,0.116675265,0.42088616,-0.0015271631
135,1437147224090,-0.012217305,0.45020768,-0.09743301
136,1437147224109,-0.0018325958,0.17745635,-0.10262536
137,1437147224128,0.2049453,0.013133603,-0.10995574
138,1437147224149,0.17195857,-0.15577064,-0.16982053
139,1437147224169,-0.1994475,-0.32589662,-0.2742785
140,1437147224189,-0.25411993,-0.58123827,-0.33261612
141,1437147224209,-0.09468412,-0.63529986,-0.22968534
142,1437147224230,0.39095375,-0.06078109,-0.09773844
143,1437147224252,0.32070425,-0.50701815,-0.16065755
144,1437147224272,-0.38515055,-0.64476824,-0.08399397
145,1437147224292,-0.74006325,-0.6429357,0.0027488936
146,1437147224310,-0.19517145,-0.26297748,0.086132
147,1437147224329,0.20250183,0.6218608,0.07360926
148,1437147224348,0.18112154,0.22143865,0.038789943
149,1437147224368,-0.01985312,-0.017104227,0.0852157
150,1437147224389,0.07513642,0.08735373,0.23640485
151,1437147224463,0.23518312,-0.022602014,0.29168814
152,1437147224464,0.20952678,0.074830994,0.24678956
153,1437147224465,0.0888809,0.5491679,0.16035213
154,1437147224469,0.051923547,0.8396343,0.09712757
155,1437147224504,0.19486602,0.67256266,-0.021685716
156,1437147224509,0.3662137,0.122478485,-0.06505715
157,1437147224529,0.18784106,-0.40286562,0.023823744
158,1437147224555,0.094989546,0.01863139,0.058643065
159,1437147224569,0.03023783,0.5305365,-0.015882496
160,1437147224590,-0.009773844,0.49449542,-0.06078109
161,1437147224610,0.106595986,0.099571034,-0.09193522
162,1437147224631,0.14080444,-0.32620203,-0.16035213
163,1437147224651,0.03176499,-0.453262,-0.28008172
164,1437147224670,-0.16768251,-0.514654,-0.31245756
165,1437147224692,-0.08277224,-0.8518516,-0.2434298
166,1437147224711,0.16737708,-0.6618725,-0.03268129
167,1437147224734,0.6252206,-0.50793445,0.05467244
168,1437147224759,0.20158553,-0.46853364,-0.2321288
169,1437147224775,-0.29352075,-0.08399397,-0.03604105
170,1437147224793,-0.4147775,0.18234327,0.1282817
171,1437147224809,-0.18112154,0.17379116,0.22571471
172,1437147224830,0.17379116,-0.13347405,0.19333886
173,1437147224850,0.34666604,0.076358154,0.06078109
174,1437147224870,0.2660318,-0.13469578,-0.0018325958
175,1437147224889,-0.06383542,-0.344528,0.11209377
176,1437147224950,-0.2489276,-0.0983493,0.20616703
177,1437147224951,-0.19883664,0.5699373,0.17928895
178,1437147224952,0.027488936,0.84665924,-0.01282817
179,1437147224978,0.35124752,0.52442783,-0.17256944
180,1437147224990,0.32528573,-0.2669481,-0.1328632
181,1437147225021,0.093767814,-0.5323691,-0.0693332
182,1437147225029,-0.093462385,-0.12461651,0.027794369
183,1437147225051,-0.16615535,0.48075095,-0.011301007
184,1437147225076,-0.086132,0.54428095,-0.09437868
185,1437147225091,0.010995574,0.16157386,-0.08124508
186,1437147225109,0.1133155,-0.12644911,-0.05589417
187,1437147225130,0.3408628,-0.3371976,-0.099571034
188,1437147225150,0.6087272,-0.34483343,-0.28099802
189,1437147225169,0.33567044,-0.3191771,-0.40317106
190,1437147225189,-0.46731192,-0.39920044,-0.40225476
191,1437147225210,-0.61819565,-1.2266175,-0.21624629
192,1437147225231,-0.22876903,-0.8961393,-0.005192355
193,1437147225250,0.6010914,-0.25137106,-0.043676864
194,1437147225272,0.11484267,-0.3472769,-0.31245756
195,1437147225289,-0.41233405,-0.35521814,0.02443461
196,1437147225311,-0.038179077,0.4392121,0.103847094
197,1437147225330,0.48288897,1.2492194,0.010995574
198,1437147225350,0.086437434,0.61483586,0.040317107
199,1437147225374,-0.22235495,-0.18173242,0.37140608
200,1437147225422,-0.18509217,0.049480084,0.45173484
201,1437147225423,-0.10445796,0.4251622,0.35033122
202,1437147225430,-0.03481932,0.94897914,0.09132435
203,1437147225450,0.18997909,0.86345804,-0.10751228
204,1437147225470,0.5708536,0.24556783,-0.15210545
205,1437147225489,0.4437936,-0.3491095,-0.08827003
206,1437147225515,-0.02565634,-0.4016439,0.07452556
207,1437147225530,-0.23732115,0.033292156,0.12522738
208,1437147225550,-0.19853121,0.33658674,-0.013744468
209,1437147225573,0.039095376,0.18570304,-0.23090707
210,1437147225592,0.014049901,-0.14446963,-0.23945917
211,1437147225610,0.105068825,-0.23273966,-0.21868975
212,1437147225631,0.06536258,-0.44104472,-0.28955013
213,1437147225649,-0.08735373,-0.627664,-0.31764993
214,1437147225669,0.010995574,-1.0268645,-0.082161374
215,1437147225690,0.13683382,-1.491733,0.19914207
216,1437147225712,0.4447099,-1.4385877,-0.044593163
217,1437147225730,-0.118507855,-0.46975538,-0.105374254
218,1437147225810,-0.37934732,0.7079928,0.021380283
219,1437147225811,-0.24037547,0.8891144,0.16310102
220,1437147225812,-0.17531833,0.3726278,0.3036
221,1437147225813,0.04062254,0.19822577,0.099571034
222,1437147225830,0.16676621,0.41508293,-0.005497787
223,1437147225850,0.056505036,0.11575896,0.054367006
224,1437147225872,-0.112704635,0.05589417,0.1863139
225,1437147225933,0.02076942,0.54305923,0.21685717
226,1437147225934,0.08093964,1.131017,0.07666359
227,1437147225956,0.057421334,1.1059716,-0.15393804
228,1437147225957,0.03573562,0.33108896,-0.20372356
229,1437147225970,0.08460484,-0.49663344,-0.087964594
230,1437147225997,0.16157386,-0.49938235,-0.038789943
231,1437147226011,0.122783914,0.009468411,-0.03756821
232,1437147226033,-0.0983493,0.5335908,-0.15424347
233,1437147226050,-0.2284636,0.3371976,-0.12797627
234,1437147226075,-0.18448131,0.02076942,-0.062002823
235,1437147226093,0.095294975,-0.2950479,-0.074830994
236,1437147226113,0.020463986,-0.5928447,-0.15790866
237,1437147226132,-0.21960606,-0.8155051,-0.2959642
238,1437147226152,-0.26328292,-1.1371256,-0.32834008
239,1437147226187,-0.087659165,-1.0708468,-0.06688975
240,1437147226190,0.5131268,-0.45723262,-0.06383542
241,1437147226209,0.20341812,0.19181168,-0.22204952
242,1437147226230,-0.6169739,0.57757306,-0.122478485
243,1437147226250,-0.46181414,-0.023823744,0.11575896
244,1437147226270,-0.03176499,0.8231409,0.16829337
245,1437147226291,0.41050145,0.93431836,0.06169739
246,1437147226311,0.4334089,0.0027488936,0.0852157
247,1437147226339,0.20097467,-0.17501289,0.22693644
248,1437147226392,0.09315695,0.27305678,0.22602014
249,1437147226393,0.1337795,0.70524395,0.14721853
250,1437147226394,0.2706133,0.9483683,-0.07941248
251,1437147226431,0.39828414,0.26267207,-0.2003638
252,1437147226432,0.45875978,-0.4166101,-0.17684549
253,1437147226450,0.3436117,-0.5195409,-0.048258353
254,1437147226470,0.04917465,-0.13133603,0.015882496
255,1437147226491,-0.19150625,0.30543262,-0.069027774
256,1437147226516,-0.26358834,0.3659083,-0.13988814
257,1437147226531,-0.22876903,0.09987647,-0.1872302
258,1437147226552,-0.2406809,-0.39950588,-0.21930063
259,1437147226573,-0.33750305,-0.7348709,-0.24587326
260,1437147226590,-0.20372356,-0.7663304,-0.26236662
261,1437147226611,0.043982297,-0.6542367,-0.21930063
262,1437147226631,0.23701571,-1.0305296,-0.049480084
263,1437147226651,0.6081163,-0.86376345,-0.048258353
264,1437147226673,0.958753,-0.8707884,-0.12675454
265,1437147226694,0.18020524,-0.003970624,-0.09132435
266,1437147226715,-0.33444872,0.8020661,-0.028405234
267,1437147226733,-0.3921755,0.30390546,0.2098322
268,1437147226752,-0.044898596,-0.10354166,0.36132678
269,1437147226776,0.37995818,-0.031154128,0.17684549
270,1437147226791,0.6010914,0.41599923,0.06169739
271,1437147226810,0.45875978,0.61758476,0.12644911
272,1437147226975,0.06627888,0.44532076,0.22785273
273,1437147226976,-0.16401732,-0.05681047,0.33108896
274,1437147226977,-0.19181168,0.023823744,0.35002577
275,1437147226978,-0.16584991,0.49021935,0.2770274
276,1437147226979,-0.029626964,1.0137309,0.0580322
277,1437147226980,0.14263703,0.7189884,-0.10293079
278,1437147226981,0.12950343,-0.11148291,-0.057726767
279,1437147226982,-0.08399397,-0.30970868,0.07086037
280,1437147227154,-0.22999077,0.0027488936,0.12583824
281,1437147227155,-0.18387043,0.36987892,0.05955936
282,1437147227156,-0.06994407,0.3585779,-0.017715093
283,1437147227157,0.06261369,0.13408493,-0.110872045
284,1437147227158,0.004276057,-0.22204952,-0.12034045
285,1437147227159,-0.06566802,-0.344528,-0.09743301
286,1437147227160,0.12980886,-0.19547687,-0.1777618
287,1437147227161,0.3286455,-0.13316862,-0.33261612
288,1437147227162,-0.11942416,-0.3744604,-0.3662137
289,1437147227185,-0.4822781,-0.78954333,-0.3100141
290,1437147227191,-0.37598756,-1.0051788,-0.1826487
291,1437147227217,-0.03359759,-0.516792,-0.13622294
292,1437147227231,0.4560109,-0.8949176,-0.106901415
293,1437147227250,-0.15393804,-0.10934488,-0.047647487
294,1437147227270,-0.46944994,-0.023823744,-0.018936822
295,1437147227291,-0.18295415,0.29718593,0.071776666
296,1437147227310,0.12980886,1.153619,0.10048734
297,1437147227329,0.0870483,0.3643811,0.108123146
298,1437147227350,0.026572637,0.06872234,0.2941316
299,1437147227371,0.19303341,0.09162979,0.30970868
300,1437147227390,0.17470746,0.14630222,0.19211712
301,1437147227410,-0.11789699,0.3032946,0.099571034
302,1437147227430,-0.19975294,0.6478226,-0.0009162979
303,1437147227450,0.06047566,0.79168135,-0.028405234
304,1437147227470,0.28405234,0.2996294,-0.11911872
305,1437147227490,0.31856623,-0.25900686,-0.10781772
306,1437147227510,0.11728613,-0.2855795,-0.0106901415
307,1437147227530,-0.0711658,0.27458394,0.07422013
308,1437147227550,-0.13591751,0.659429,0.03848451
309,1437147227570,-0.11484267,0.54733527,-0.07422013
310,1437147227592,-0.090713486,0.021380283,-0.13652839
311,1437147227612,-0.07544186,-0.36132678,-0.09315695
312,1437147227633,-0.02107485,-0.49938235,-0.15271631
313,1437147227653,-0.039095376,-0.5885687,-0.30573806
314,1437147227671,-0.022907447,-0.462425,-0.3408628
315,1437147227703,-0.03390302,-0.5170974,-0.29260445
316,1437147227710,-0.01282817,-0.66645396,-0.17134771
317,1437147227731,0.45662177,-0.75228053,-0.13530666
318,1437147227750,0.086437434,-0.70341134,0.00061086525
319,1437147227772,-0.473726,0.64476824,-0.03970624
320,1437147227792,-0.44348818,0.42149702,0.14782938
321,1437147227811,0.007941248,-0.0036651916,0.26725355
322,1437147227832,0.61269784,0.42149702,0.16676621
323,1437147227857,0.63529986,0.41141775,0.051618114
324,1437147227873,0.36468655,0.05955936,0.06261369
325,1437147227900,0.15851954,-0.064751714,0.22174409
326,1437147227913,-0.035124753,0.19486602,0.22876903
327,1437147227935,-0.099571034,0.5552765,0.18081611
328,1437147227955,-0.061391957,0.87964594,0.079107046
329,1437147227974,0.07971791,0.8668178,0.03756821
330,1437147227993,0.2919936,0.19486602,-0.04642576
331,1437147228014,0.27030787,-0.4352415,-0.12492194
332,1437147228035,-0.024129177,-0.4538729,-0.07727446
333,1437147228054,-0.20525073,0.1301143,0.043066
334,1437147228074,-0.29932398,0.42455134,0.03481932
335,1437147228092,-0.3381139,0.204029,-0.049785517
336,1437147228112,-0.30207285,-0.20189096,-0.11178834
337,1437147228180,-0.23457226,-0.2773328,-0.15210545
338,1437147228181,-0.09743301,-0.13958271,-0.17501289
339,1437147228182,0.24709499,-0.13469578,-0.26633725
340,1437147229555,0.04184427,-0.41874814,-0.33292156
341,1437147229556,-0.42149702,-0.5467244,-0.23457226
342,1437147229557,-0.7629707,-0.7800749,-0.17592919
343,1437147229558,-0.3399465,-1.2617421,-0.18784106
344,1437147229559,0.65393126,-0.8222246,-0.10720685
345,1437147229560,0.8426886,-0.48930305,-0.12767084
346,1437147229561,-0.41813725,0.5119051,-0.23701571
347,1437147229562,-0.90316427,0.6805039,0.02107485
348,1437147229563,-0.08735373,0.42424592,0.16310102
349,1437147229564,0.59406644,0.66553766,0.12308934
350,1437147229565,0.7351763,0.66523224,0.037873644
351,1437147229566,0.267559,0.2180789,0.13591751
352,1437147229567,-0.24587326,-0.17867808,0.19883664
353,1437147229568,-0.419359,0.0693332,0.20219639
354,1437147229569,-0.26206118,0.48502702,0.25320363
355,1437147229570,0.21746802,0.874759,0.14996742
356,1437147229571,0.4718934,0.63804877,-0.02107485
357,1437147229572,0.50610185,-0.020158553,-0.14996742
358,1437147229573,0.16829337,-0.5170974,-0.10262536
359,1437147229574,-0.09621128,-0.20586158,0.06719518
360,1437147229575,-0.20433442,0.1441642,0.17592919
361,1437147229576,-0.23396139,0.28924468,0.054061573
362,1437147229577,-0.12950343,0.14110987,-0.105068825
363,1437147229578,-0.052534413,-0.2180789,-0.12217305
364,1437147229579,-0.119729586,-0.3481932,-0.065973446
365,1437147229580,-0.116980694,-0.28038713,-0.055283304
366,1437147229581,0.07422013,-0.28252518,-0.21227567
367,1437147229582,-0.06414085,-0.6630942,-0.30298916
368,1437147229583,-0.35277468,-0.9245446,-0.26450464
369,1437147229584,-0.5109888,-1.1252137,-0.14782938
370,1437147229585,-0.032375857,-0.66523224,-0.09285152
371,1437147229586,0.61422503,-0.28588495,-0.11881329
372,1437147229587,0.42271876,-0.3304781,-0.2706133
373,1437147229588,-0.5910121,0.24678956,0.014660766
374,1437147229589,-0.74220127,-0.06536258,0.22876903
375,1437147229590,0.03604105,0.22602014,0.24678956
376,1437147229591,0.883922,0.70829827,0.12370021
377,1437147229592,0.5329799,0.42852196,0.116675265
378,1437147229593,0.05955936,0.28893927,0.28344148
