id,attr_time,attr_x,attr_y,attr_z
1,1437147221418,0.03176499,0.09865474,-0.031154128
2,1437147221438,0.046120327,0.048563786,-0.033292156
3,1437147221461,0.046731193,0.04184427,-0.03940081
4,1437147221480,0.028099801,0.056505036,-0.04153884
5,1437147221499,0.0012217305,0.038179077,-0.03756821
6,1437147221520,-0.03756821,0.03176499,-0.047647487
7,1437147221539,-0.027183503,0.018020526,-0.04550946
8,1437147221561,0.013133603,0.020158553,-0.03390302
9,1437147221584,0.045814894,0.045814894,-0.029321533
10,1437147221600,0.07971791,0.053450707,-0.013133603
11,1437147221621,0.08368854,0.035124753,-0.016493361
12,1437147221639,0.044898596,0.043066,-0.038179077
13,1437147221659,0.024740042,0.090713486,-0.04886922
14,1437147221678,0.022907447,0.11942416,-0.05681047
15,1437147221703,0.0018325958,0.10751228,-0.04428773
16,1437147221722,-0.02321288,0.092240654,-0.026267206
17,1437147221739,-0.03268129,0.065973446,-0.022296581
18,1437147221761,-0.01282817,0.046120327,-0.028099801
19,1437147221780,0.0015271631,0.034208454,-0.023823744
20,1437147221822,0.0106901415,0.015577064,-0.013439035
21,1437147221823,0.0036651916,0.00580322,-0.03634648
22,1437147221840,0.005192355,0.025045475,-0.037873644
23,1437147221859,-0.015271631,0.009162978,-0.018936822
24,1437147221881,-0.01985312,-0.015577064,-0.013439035
25,1437147221902,-0.003970624,0.021685716,-0.029321533
26,1437147221920,0.04062254,0.022296581,-0.03481932
27,1437147221940,0.06841691,-0.040317107,-0.017715093
28,1437147221960,0.02443461,-0.09437868,-0.0143553335
29,1437147221981,-0.040011674,-0.108123146,-0.02321288
30,1437147222004,-0.0729984,-0.052839845,-0.03176499
31,1437147222024,-0.073303826,-0.03573562,-0.023518313
32,1437147222041,-0.011301007,-0.09193522,-0.013744468
33,1437147222061,0.047647487,-0.10995574,-0.012217305
34,1437147222082,0.056199603,-0.03940081,-0.02443461
35,1437147222105,0.04642576,0.05222898,-0.021380283
36,1437147222121,0.016187929,0.08032878,-0.009162978
37,1437147222142,0.014966198,0.034208454,-0.00580322
38,1437147222162,0.062002823,-0.007330383,-0.025045475
39,1437147222182,0.082161374,0.017715093,-0.03481932
40,1437147222200,0.063224554,0.051618114,-0.03604105
41,1437147222221,0.035124753,0.048258353,-0.015577064
42,1437147222253,0.034513887,-0.0018325958,-0.0009162979
43,1437147222260,0.013439035,-0.059253927,-0.0070249503
44,1437147222280,-0.009773844,-0.063224554,-0.018325957
45,1437147222300,0.0018325958,0.006414085,-0.03573562
46,1437147222320,0.054061573,0.03970624,-0.03573562
47,1437147222341,0.07788532,0.02687807,-0.015882496
48,1437147222362,0.044593163,-0.0076358155,-0.008246681
49,1437147222383,-0.020463986,-0.005192355,-0.016798794
50,1437147222404,-0.050396383,0.016493361,-0.029626964
51,1437147222421,-0.02443461,0.033292156,-0.035124753
52,1437147222449,0.044898596,0.036957346,-0.024129177
53,1437147222467,0.076052725,0.011301007,-0.02443461
54,1437147222489,0.0580322,0.018020526,-0.029626964
55,1437147222502,0.03970624,0.06872234,-0.018325957
56,1437147222521,0.033292156,0.08246681,-0.017715093
57,1437147222542,0.05131268,0.061086524,-0.017715093
58,1437147222561,0.07422013,0.064751714,-0.047647487
59,1437147222586,0.057421334,0.076358154,-0.049480084
60,1437147222605,0.034208454,0.06169739,-0.03481932
61,1437147222624,0.0018325958,0.026267206,0.0027488936
62,1437147222641,-0.030848695,-0.028405234,0.008246681
63,1437147222666,-0.01282817,-0.054061573,-0.022602014
64,1437147222733,0.007330383,-0.007330383,-0.04428773
65,1437147222734,0.013744468,0.036651913,-0.04184427
66,1437147222735,0.018325957,0.057421334,-0.024129177
67,1437147222762,0.012217305,0.040317107,0.004581489
68,1437147222763,0.004886922,-0.002443461,0.011301007
69,1437147222781,0.008246681,-0.017715093,-0.009162978
70,1437147222809,0.024740042,0.019242255,-0.021685716
71,1437147222823,0.056505036,0.057726767,-0.019547688
72,1437147222842,0.0693332,0.05589417,-0.020463986
73,1437147222862,0.05955936,0.025045475,-0.0009162979
74,1437147222887,0.018936822,-0.0012217305,0.004886922
75,1437147222902,-0.013439035,-0.029626964,-0.01863139
76,1437147222922,-0.022296581,0.0018325958,-0.042760566
77,1437147222941,0.017104227,0.047647487,-0.043982297
78,1437147222963,0.047647487,0.048563786,-0.0009162979
79,1437147222984,0.018936822,-0.013744468,0.014049901
80,1437147223002,-0.0106901415,-0.036957346,-0.021991149
81,1437147223022,-0.01740966,0.032070424,-0.03940081
82,1437147223042,-0.009468411,0.061391957,-0.032070424
83,1437147223063,-0.008246681,0.012217305,-0.018020526
84,1437147223084,-0.0036651916,-0.02687807,-0.004581489
85,1437147223101,0.009773844,-0.014966198,0.005497787
86,1437147223123,0.006414085,-0.027488936,-0.0070249503
87,1437147223147,-0.0018325958,-0.040927973,-0.024129177
88,1437147223213,-0.008246681,0.0033597588,-0.016798794
89,1437147223214,0.016187929,0.021685716,-0.0033597588
90,1437147223215,0.041233405,-0.016493361,-0.002443461
91,1437147223234,0.06169739,-0.053450707,-0.0036651916
92,1437147223247,0.042455133,-0.03940081,-0.026572637
93,1437147223262,0.015882496,0.040927973,-0.03023783
94,1437147223289,0.013133603,0.09437868,-0.0061086523
95,1437147223303,0.021991149,0.0571159,0.010079277
96,1437147223323,0.046120327,0.011911872,0.009773844
97,1437147223343,0.06047566,0.007330383,-0.022602014
98,1437147223363,0.05497787,0.056505036,-0.04886922
99,1437147223385,0.036957346,0.13255776,-0.042760566
100,1437147223402,0.031154128,0.14019357,-0.030848695
101,1437147223422,0.040927973,0.11362094,-0.024740042
102,1437147223442,0.0580322,0.122783914,-0.027794369
103,1437147223464,0.07391469,0.13225232,-0.015882496
104,1437147223489,0.10567969,0.13683382,-0.0036651916
105,1437147223505,0.13775012,0.16249016,-0.012217305
106,1437147223527,0.17470746,0.16493362,-0.009773844
107,1437147223543,0.22693644,0.16371189,0.009773844
108,1437147223577,0.24190263,0.18661933,0.02076942
109,1437147223685,0.17501289,0.15821409,0.043676864
110,1437147223686,0.069027774,0.027794369,0.0580322
111,1437147223687,0.048563786,-0.14966199,0.064751714
112,1437147223688,0.059864793,-0.1957823,0.07574729
113,1437147223689,0.08093964,-0.11209377,0.06841691
114,1437147223690,0.11148291,0.014049901,0.040927973
115,1437147223768,0.16401732,0.0693332,0.01985312
116,1437147223769,0.061086524,0.058337633,-0.040927973
117,1437147223770,-0.25870144,0.062308256,-0.19333886
118,1437147223771,-0.5317582,0.14049901,-0.33841935
119,1437147223788,-0.5314528,0.31948254,-0.43371433
120,1437147223803,-0.39492437,0.4129449,-0.45265114
121,1437147223833,-0.35155296,0.29535335,-0.4297437
122,1437147223842,-0.41325033,0.09315695,-0.35094208
123,1437147223862,-0.6719518,-0.24098633,-0.5742133
124,1437147223882,-0.7153232,-0.064751714,-0.95905846
125,1437147223901,-0.6731735,0.094989546,-1.1798862
126,1437147223921,-0.7648033,-0.09315695,-1.2073752
127,1437147223942,-1.2461652,-0.49846604,-0.86070913
128,1437147223961,-0.788627,-0.312763,-0.24556783
129,1437147223982,-0.11942416,-0.7669413,0.41141775
130,1437147224004,0.24495697,-0.30268374,1.0320568
131,1437147224022,0.8228355,-0.66859204,1.0751228
132,1437147224042,1.0729848,-0.61575216,0.64904433
133,1437147224063,0.926988,0.8588765,0.31337386
134,1437147224085,0.6603453,1.7944167,0.44257188
135,1437147224114,0.5549711,1.1026118,0.66706485
136,1437147224125,0.63316184,-0.49327368,0.54305923
137,1437147224141,0.5198463,-1.5103643,0.29718593
138,1437147224161,0.27366763,-1.6539177,0.22540927
139,1437147224183,-0.14508049,-1.0088439,0.21655174
140,1437147224202,-0.41355577,-0.38026363,0.18325958
141,1437147224222,-0.4447099,0.02443461,0.17104226
142,1437147224243,-0.35521814,0.22296582,0.21777347
143,1437147224262,-0.23579398,0.34880406,0.25137106
144,1437147224284,0.076358154,0.3539964,0.28924468
145,1437147224324,0.27091873,0.6020077,0.31887165
146,1437147224325,0.226631,0.86132,0.3203988
147,1437147224341,0.121256754,0.8552113,0.3051272
148,1437147224391,-0.17379116,0.7644979,0.24648413
149,1437147224392,-2.0286834,0.6239988,-0.32986724
150,1437147224415,-2.1719313,0.24770586,-0.9468411
151,1437147224422,-0.15057829,0.6914995,-1.2391402
152,1437147224442,1.7837266,0.9975429,-1.5418239
153,1437147224463,1.3365731,1.3775011,-1.4785993
154,1437147224482,-1.5763378,5.862779,0.32620203
155,1437147224501,-1.3939945,5.862779,0.8338311
156,1437147224522,-0.37232238,2.4055874,0.4569272
157,1437147224541,-0.1255328,-1.2363913,0.7266242
158,1437147224561,0.4098906,-3.028059,1.3854424
159,1437147224582,0.5027421,-1.3069462,1.4908166
160,1437147224602,0.752586,-0.11636983,1.5354098
161,1437147224621,0.63163465,0.8793405,1.294118
162,1437147224641,0.2049453,0.8597928,0.6658431
163,1437147224661,-0.33108896,0.02687807,0.2012801
164,1437147224681,-0.6243043,-1.0192287,0.05131268
165,1437147224702,-0.6637051,-1.4672983,0.021991149
166,1437147224721,-0.6444628,-1.5250251,-0.04886922
167,1437147224741,-0.537256,-1.5476271,-0.22052236
168,1437147224765,-0.089186326,-1.4395039,-0.46578476
169,1437147224782,0.21746802,-0.22693644,-0.6084218
170,1437147224811,0.2406809,1.0509937,-0.7049385
171,1437147224822,0.24923302,1.0858129,-0.65179324
172,1437147224997,-0.14446963,1.0598512,-0.37598756
173,1437147224998,-0.8054258,1.672549,-0.03145956
174,1437147224999,-0.8750645,2.7061331,-0.13316862
175,1437147225000,-0.5681047,2.6529877,-0.41508293
176,1437147225001,0.5360342,2.2693644,-0.68325275
177,1437147225023,2.255009,1.2730432,-0.8857546
178,1437147225027,1.8484782,1.3362677,-1.3814718
179,1437147225028,1.1749994,3.3622024,-1.0735956
180,1437147225029,-1.543351,0.20189096,0.7987063
181,1437147225030,0.48349985,1.9199494,1.0308352
182,1437147225412,0.7965683,2.1621575,1.2073752
183,1437147225413,-0.6035349,0.13469578,1.1618657
184,1437147225414,-1.3448198,-1.5286902,1.0021244
185,1437147225415,-0.58246,-3.7168095,1.1844677
186,1437147225416,1.1386528,-4.128227,1.1429288
187,1437147225417,1.4114041,-2.5286767,1.0213667
188,1437147225418,0.78954333,-1.3833044,1.0824533
189,1437147225419,-0.6591236,0.030848695,0.9786061
190,1437147225420,-0.9279043,1.2483032,0.75961095
191,1437147225427,-0.73884153,0.62796944,0.58184916
192,1437147225428,-0.3100141,0.09987647,0.38698313
193,1437147225429,0.1957823,-0.15515977,0.08277224
194,1437147225430,0.32925636,-0.23701571,-0.28191432
195,1437147225431,0.22082779,-0.1826487,-0.6188065
196,1437147225432,-0.08246681,0.1966986,-0.8402451
197,1437147225433,-0.2489276,0.77763146,-0.92149025
198,1437147225434,-0.29443705,1.1328496,-0.94989544
199,1437147225435,-0.21838433,1.1212431,-0.9630291
200,1437147225436,-0.076052725,0.78038037,-0.9282097
201,1437147225437,0.08979719,0.40042216,-1.142318
202,1437147225442,0.8359691,1.3726143,-1.5943583
203,1437147225463,2.4901922,3.4290922,-1.7562376
204,1437147225482,0.34972036,1.3151928,-0.37384954
205,1437147225502,0.39003745,4.6712866,0.8576548
206,1437147225522,-0.41416663,4.4443502,1.5519031
207,1437147225542,-1.7577647,-1.7788396,1.8726074
208,1437147225562,-1.1713341,-4.725348,1.9401081
209,1437147225582,0.7266242,-5.4733524,1.4285084
210,1437147225602,0.51007247,-3.1202996,0.7415904
211,1437147225622,-0.1853976,-1.215011,0.46761733
212,1437147225642,-0.46395215,-0.27488935,0.34972036
213,1437147225662,-0.70646566,-0.4972443,0.26145032
214,1437147225682,-0.7290677,-1.212262,0.17654006
215,1437147225702,-0.7098254,-1.5030339,0.007330383
216,1437147225722,-0.5833763,-1.4575244,-0.2434298
217,1437147225742,-0.43401974,-1.2125676,-0.37782016
218,1437147225762,-0.039095376,-0.947452,-0.55680364
219,1437147225782,0.08552113,-0.36835176,-0.7489208
220,1437147225802,0.090713486,-0.025045475,-0.89766645
221,1437147225822,0.13897185,0.16615535,-0.9941832
222,1437147225842,0.16157386,0.31429017,-1.0363328
223,1437147225863,0.100792766,0.40591997,-0.97035944
224,1437147225883,-0.11056661,0.44318274,-0.9443977
225,1437147225903,-0.91415983,0.63804877,-1.0329732
226,1437147225923,-1.7373008,1.4059063,-1.1734722
227,1437147225943,-0.7791586,2.638327,-1.2113458
228,1437147225963,1.3732251,2.4489589,-1.1200215
229,1437147225983,2.024102,0.6649268,-1.131017
230,1437147226003,3.1926873,-0.16798794,-1.6878207
231,1437147226023,-0.7119634,-1.4850134,-3.4028249
232,1437147226043,-3.6603045,-1.3918564,-0.784351
233,1437147226063,2.117259,9.203601,0.7370089
234,1437147226135,-0.7370089,8.250041,1.1151345
235,1437147226136,-1.3955216,-3.6089919,1.3973542
236,1437147226158,-0.8170323,-6.4204993,1.3610078
237,1437147226159,-0.37110063,-6.2393775,1.2907583
238,1437147226163,0.054367006,-5.6856284,1.1618657
239,1437147226183,0.44104472,-5.0982814,1.0186177
240,1437147226204,0.7312057,-4.7204614,0.82894415
241,1437147226225,0.84299403,-4.0436225,0.4972443
242,1437147226243,0.5830709,-2.9074132,0.3491095
243,1437147226263,-0.20830505,-1.1224649,0.3820962
244,1437147226283,-0.21533,2.2434027,0.22388211
245,1437147226303,0.042455133,3.089451,0.100792766
246,1437147226323,0.25350907,3.0326405,0.03756821
247,1437147226344,0.36774087,2.488665,0.031154128
248,1437147226363,0.48441613,1.8735237,-0.049480084
249,1437147226383,0.46517387,1.1203269,-0.20433442
250,1437147226403,0.3268129,0.64751714,-0.54825157
251,1437147226423,0.15485434,1.2855659,-1.2629639
252,1437147226443,0.54305923,6.136447,-1.25319
253,1437147226463,-0.505491,7.989201,0.1151481
254,1437147226483,2.515543,7.0680165,0.8020661
255,1437147226517,1.5552629,8.899085,1.1808025
256,1437147226523,-3.2421672,1.5589281,1.4840971
257,1437147226543,-4.0005565,-5.607132,1.6022996
258,1437147226573,-2.4691174,-7.8086905,1.6972891
259,1437147226583,0.16310102,-7.1013083,0.9981538
260,1437147226608,0.4981606,-4.624861,0.31429017
261,1437147226624,0.3811799,-3.6193767,0.08399397
262,1437147226643,0.21471913,-3.095865,0.04642576
263,1437147226663,-0.049480084,-2.8985555,0.03726278
264,1437147226683,-0.42119157,-2.8170052,0.008857546
265,1437147226703,-0.9166033,-2.4010057,-0.019242255
266,1437147226723,-1.1462886,-1.6224581,-0.080634214
267,1437147226743,-1.0589349,-0.65209866,-0.16249016
268,1437147226763,-0.87872964,0.23793201,-0.22693644
269,1437147226784,-0.65118235,0.7290677,-0.2602286
270,1437147226803,-0.49602258,1.0916162,-0.22540927
271,1437147226823,-0.3454443,1.1646146,-0.22266038
272,1437147226844,-0.11575896,1.0699304,-0.29840767
273,1437147226864,0.10720685,1.0482447,-0.44409904
274,1437147226884,0.4654793,1.3384057,-0.5326745
275,1437147226904,1.5344934,2.0314324,-0.76174897
276,1437147226925,2.54517,5.604383,-0.9718866
277,1437147226944,1.7525724,7.8615303,-0.31612277
278,1437147226964,1.5830573,2.8264735,1.4654657
279,1437147226989,1.988061,-0.22327125,2.5674667
280,1437147227007,-1.0015136,6.1208696,1.0858129
281,1437147227023,-2.6187794,-0.21899518,-0.09682214
282,1437147227044,-2.7870727,-4.5885143,-0.2648101
283,1437147227064,-1.8008307,-4.6373835,-0.16523905
284,1437147227083,0.23273966,-3.7522397,0.08674286
285,1437147227103,0.7141015,-2.790127,0.18906279
286,1437147227124,0.5546656,-2.091908,0.17501289
287,1437147227143,0.4605924,-1.6811012,0.122783914
288,1437147227163,0.46181414,-1.2577715,0.052839845
289,1437147227183,0.44104472,-0.83108217,-0.029626964
290,1437147227203,0.3652974,-0.23335053,-0.08827003
291,1437147227223,0.2666427,0.30757064,-0.13561209
292,1437147227243,0.1685988,0.7910705,-0.18020524
293,1437147227263,0.11881329,1.2134838,-0.23915374
294,1437147227284,0.17348573,1.4639386,-0.39461896
295,1437147227314,0.2415972,1.5964963,-0.9062186
296,1437147227336,-0.23854288,1.3707817,-1.3665055
297,1437147227344,-0.24984388,3.767206,-1.6447546
298,1437147227366,0.56199604,6.1107903,-1.5653422
299,1437147227387,2.143526,6.0478716,0.2443461
300,1437147227407,1.1490375,4.903415,5.4507504
301,1437147227426,-0.40042216,3.3646457,4.669454
302,1437147227445,-3.0607402,0.014660766,0.54153204
303,1437147227464,-3.6997054,-2.5305092,0.040011674
304,1437147227488,-3.0094275,-2.1203132,1.720502
305,1437147227505,-2.012801,-1.1340714,2.298075
306,1437147227525,-0.98837996,-2.0665572,1.31672
307,1437147227545,0.34238997,-3.1453452,0.9468411
308,1437147227568,1.0882565,-2.6563475,0.8173377
309,1437147227587,1.6178766,-1.6129897,0.6792821
310,1437147227608,1.5674802,0.28099802,0.6114761
311,1437147227624,0.96974856,1.4156802,0.6423248
312,1437147227648,-0.011911872,1.1163563,0.66798115
313,1437147227685,-0.5546656,0.021991149,0.68966687
314,1437147227686,-0.8924741,-0.6817256,0.6786713
315,1437147227705,-1.0870347,-1.0757337,0.6646214
316,1437147227768,-1.2394456,-1.2837334,0.6236934
317,1437147227769,-1.3274102,-1.4010195,0.5928447
318,1437147227770,-1.3628404,-1.428203,0.5681047
319,1437147227785,-1.3200798,-1.4178182,0.5320636
320,1437147227805,-1.1615603,-1.3063353,0.4596761
321,1437147227832,-0.95386606,-1.0961977,0.35827246
322,1437147227844,-0.74281216,-0.8765916,0.20647246
323,1437147227864,-0.51343226,-0.57940567,0.035430185
324,1437147227884,0.30604348,-0.19028452,-0.364992
325,1437147227904,1.7467692,1.3197744,-0.77824235
326,1437147227924,2.881146,4.3047676,-0.9080512
327,1437147227944,3.6868773,3.8933496,-1.0619892
328,1437147227964,3.1929927,1.9062049,-0.18967366
329,1437147227984,1.278541,1.1496484,7.378947
330,1437147228004,2.8099802,0.99265605,2.1242838
331,1437147228025,2.218968,-0.86498517,-1.8781052
332,1437147228045,0.01740966,3.4565809,-0.70524395
333,1437147228065,-1.8249599,-0.47494772,-0.25167647
334,1437147228085,-3.2244523,-0.3304781,0.21013765
335,1437147228107,-3.2155948,-0.22357668,0.8078693
336,1437147228140,-2.6028967,-1.6749926,1.459357
337,1437147228145,-2.3561072,-2.447737,1.3750577
338,1437147228165,-2.2919664,-2.1740694,0.9428705
339,1437147228185,-2.2379048,-1.8041905,0.31215215
340,1437147228205,-1.9685133,-1.4138476,-0.10903945
341,1437147228225,-1.2657127,-1.1814134,-0.30787608
342,1437147228246,-0.39278635,-1.1771374,-0.41599923
343,1437147228265,-0.02076942,-1.3148874,-0.5143485
344,1437147228285,0.3051272,-1.1023064,-0.6658431
345,1437147228305,0.46273044,-0.7153232,-0.8356637
346,1437147228325,0.49205196,-0.3726278,-0.977079
347,1437147228345,0.47433686,-0.100792766,-1.1090258
348,1437147228365,0.44898596,0.25045475,-1.2253957
349,1437147228385,0.46822822,0.6056729,-1.3164146
350,1437147228407,0.9398162,0.8426886,-1.6447546
351,1437147228426,2.084883,3.5509596,-1.890628
352,1437147228446,4.093408,5.2940636,-1.988061
353,1437147228467,3.692375,2.999043,0.050396383
354,1437147228488,1.9840903,1.8506162,6.2042527
355,1437147228511,1.2104294,0.7351763,2.295937
356,1437147228525,-0.48563787,-0.2501493,-0.7993172
357,1437147228547,-1.1392636,0.9434814,0.93431836
358,1437147228570,-1.3979651,-1.3164146,0.9071349
359,1437147228586,-1.3371841,-1.4483615,0.94989544
360,1437147228606,-1.2983941,-1.248914,1.1954633
361,1437147228626,-1.3658947,-0.30695978,1.0506883
362,1437147228647,-1.4437801,-0.087659165,0.6627888
363,1437147228667,-1.525636,-0.4147775,0.064751714
364,1437147228688,-1.6936239,-0.69027776,-0.43768495
365,1437147228707,-1.6939293,-0.5992588,-0.79198676
366,1437147228726,-1.541213,-0.47311515,-0.9242391
367,1437147228746,-1.3588698,-0.35124752,-1.0280862
368,1437147228767,-0.89675015,-0.2049453,-1.047023
369,1437147228786,-0.49174652,-0.40591997,-1.0742066
370,1437147228807,-0.183565,-0.5112942,-1.1753048
371,1437147228827,-0.003970624,-0.3191771,-1.325883
372,1437147228847,0.15271631,-0.16920967,-1.466382
373,1437147228868,0.22937989,-0.07971791,-1.4559973
374,1437147228886,0.21044308,-0.010995574,-1.3023647
375,1437147228907,0.13988814,-0.1142318,-1.0720685
376,1437147228927,0.18387043,-0.18234327,-1.0115929
377,1437147228947,0.50671273,-0.13469578,-1.0204504
378,1437147228972,1.1823297,-0.12064589,-1.0445796
379,1437147228986,2.2128594,3.189022,-1.3701707
380,1437147229015,3.9547415,6.137058,-1.6972891
381,1437147229026,4.359745,3.2763758,-1.8209893
382,1437147229047,1.565953,1.4388931,4.3020186
383,1437147229066,-0.24190263,2.3942864,5.8340683
384,1437147229086,1.7681495,-5.0601025,-1.1081096
385,1437147229112,-0.78038037,0.4615087,-1.0934488
386,1437147229132,-0.80909103,3.3249395,-0.6988298
387,1437147229146,-1.6319265,-2.2091942,-0.28160888
388,1437147229171,-1.6181821,-2.3087652,0.26542094
