id,attr_time,attr_x,attr_y,attr_z
1,1436462332509,-0.40761283,10.020332,1.4460979
2,1436462332528,-0.39504328,10.053851,1.4586674
3,1436462332554,-0.3669114,10.048465,1.4514848
4,1436462332568,-0.35314476,10.056845,1.4598645
5,1436462332589,-0.33279404,10.103531,1.4526819
6,1436462332608,-0.31184477,10.109517,1.4772224
7,1436462332628,-0.31304187,10.10413,1.4754268
8,1436462332651,-0.32920274,10.071808,1.4490906
9,1436462332668,-0.3172317,10.055647,1.4425066
10,1436462332691,-0.2621651,10.086772,1.4407109
11,1436462332711,-0.20709845,10.119692,1.4820108
12,1436462332758,-0.20290859,10.092757,1.4933833
13,1436462332759,-0.25677812,10.076596,1.4640543
14,1436462332771,-0.35314476,10.040684,1.3796587
15,1436462332791,-0.3184288,10.030508,1.3533225
16,1436462332811,-0.23223756,10.09575,1.3784616
17,1436462332829,-0.17118542,10.128072,1.4143747
18,1436462332856,-0.089782566,10.109517,1.4682442
19,1436462332870,-0.061052144,10.119094,1.4706384
20,1436462332888,-0.094570965,10.125677,1.4718355
21,1436462332911,-0.17597382,10.13286,1.4323312
22,1436462332930,-0.24181437,10.134656,1.3772645
23,1436462332950,-0.26396075,10.105926,1.3790601
24,1436462332971,-0.2813187,10.088568,1.4089876
25,1436462332991,-0.32441434,10.085575,1.4329298
26,1436462333011,-0.3788824,10.084976,1.4149733
27,1436462333032,-0.40282443,10.063428,1.4377182
28,1436462333052,-0.42916065,10.096349,1.411382
29,1436462333072,-0.44472298,10.116699,1.4030021
30,1436462333090,-0.43155485,10.096947,1.4257472
31,1436462333118,-0.42676646,10.090961,1.4275428
32,1436462333189,-0.40342298,10.075998,1.4095862
33,1436462333190,-0.41180268,10.059837,1.395221
34,1436462333191,-0.40641573,10.084377,1.3928268
35,1436462333192,-0.39504328,10.09575,1.377863
36,1436462333212,-0.36990416,10.123882,1.4389153
37,1436462333231,-0.35673606,10.131663,1.4556746
38,1436462333248,-0.3477578,10.117896,1.4718355
39,1436462333269,-0.35553896,10.118495,1.4694413
40,1436462333290,-0.41838676,10.113108,1.4454993
41,1436462333312,-0.41958386,10.105327,1.3958195
42,1436462333330,-0.39564183,10.125079,1.3838485
43,1436462333349,-0.35434186,10.102334,1.4257472
44,1436462333375,-0.30107087,10.092158,1.4562732
45,1436462333391,-0.2765303,10.056246,1.508347
46,1436462333412,-0.29448682,10.048465,1.4969746
47,1436462333432,-0.34715924,10.093954,1.435324
48,1436462333452,-0.39983168,10.059837,1.3862427
49,1436462333473,-0.34596214,10.037092,1.4401124
50,1436462333492,-0.24241292,10.108319,1.4814123
51,1436462333512,-0.23223756,10.100538,1.4981717
52,1436462333532,-0.20829555,10.093356,1.4598645
53,1436462333552,-0.21547815,10.059837,1.46585
54,1436462333573,-0.272939,10.068216,1.4838065
55,1436462333589,-0.30406362,10.07121,1.4760253
56,1436462333612,-0.31603462,10.09156,1.4628572
57,1436462333633,-0.2825158,10.099341,1.4460979
58,1436462333653,-0.30406362,10.070012,1.4544775
59,1436462333673,-0.30585927,10.084377,1.4580688
60,1436462333692,-0.31184477,10.072407,1.4634558
61,1436462333712,-0.29209262,10.0664215,1.471237
62,1436462333732,-0.31184477,10.131663,1.4502877
63,1436462333751,-0.32920274,10.115502,1.4478935
64,1436462333773,-0.32441434,10.09156,1.4790181
65,1436462333793,-0.29508537,10.023924,1.4969746
66,1436462333813,-0.27473465,10.007763,1.4820108
67,1436462333830,-0.32621,10.011953,1.4395138
68,1436462333944,-0.3238158,10.067618,1.4305356
69,1436462333945,-0.31124622,10.127473,1.4652514
70,1436462333946,-0.25438392,10.0903635,1.5059528
71,1436462333947,-0.23523031,10.059837,1.5173253
72,1436462333948,-0.24660277,10.0748005,1.4754268
73,1436462333960,-0.27114335,10.09994,1.4389153
74,1436462333973,-0.29269117,10.103531,1.4041992
75,1436462333994,-0.26276365,10.101735,1.4257472
76,1436462334009,-0.22385786,10.073604,1.4610616
77,1436462334034,-0.1376666,10.056845,1.4377182
78,1436462334049,-0.107739076,10.058042,1.4305356
79,1436462334071,-0.109534726,10.0903635,1.407192
80,1436462334089,-0.11971009,10.123882,1.3964181
81,1436462334113,-0.10654198,10.143036,1.4209588
82,1436462334129,-0.09816227,10.115502,1.4772224
83,1436462334153,-0.11192893,10.117298,1.4933833
84,1436462334173,-0.14844051,10.14543,1.4514848
85,1436462334193,-0.22325931,10.1065235,1.3790601
86,1436462334213,-0.17238252,10.1226845,1.3557167
87,1436462334233,-0.17118542,10.134656,1.3880384
88,1436462334253,-0.18195933,10.096349,1.3856442
89,1436462334273,-0.16400282,10.085575,1.3850456
90,1436462334293,-0.19572599,10.085575,1.407192
91,1436462334313,-0.26156655,10.139444,1.4454993
92,1436462334330,-0.29149407,10.155006,1.4443022
93,1436462334353,-0.29867667,10.115502,1.4335283
94,1436462334370,-0.3393781,10.129868,1.4257472
95,1436462334390,-0.38726214,10.107122,1.411382
96,1436462334410,-0.4333505,10.083779,1.3988123
97,1436462334435,-0.45789108,10.084377,1.377863
98,1436462334453,-0.45489833,10.070611,1.4281414
99,1436462334476,-0.43035775,10.119094,1.4389153
100,1436462334493,-0.43634325,10.108319,1.472434
101,1436462334510,-0.41958386,10.114903,1.5089456
102,1436462334530,-0.42916065,10.143036,1.4820108
103,1436462334557,-0.49559975,10.097546,1.4856021
104,1436462334578,-0.55365914,9.940725,1.5119383
105,1436462334632,-0.5734113,9.894637,1.4718355
106,1436462334633,-0.57281274,9.965864,1.3521254
107,1436462334634,-0.5363012,10.103531,1.2934675
108,1436462334650,-0.46088383,10.170568,1.3443443
109,1436462334670,-0.36750996,10.187328,1.5370775
110,1436462334690,-0.36511576,10.128671,1.7010803
111,1436462334710,-0.40701428,10.095152,1.6980876
112,1436462334732,-0.480636,10.186729,1.5598224
113,1436462334750,-0.62488663,10.2178545,1.4586674
114,1436462334771,-0.7529764,10.149619,1.4227544
115,1436462334795,-0.7044938,10.1544075,1.5059528
116,1436462334810,-0.65660983,10.304046,1.6071079
117,1436462334833,-0.6536171,10.381259,1.644218
118,1436462334850,-0.47165772,10.351331,1.5861586
119,1436462334873,-0.061650693,10.251373,1.4820108
120,1436462334890,0.45010993,10.115502,1.4939818
121,1436462334913,0.7918822,9.682152,1.8183962
122,1436462334930,0.92057055,9.787497,2.1877017
123,1436462334952,0.37110126,10.219051,2.3169887
124,1436462334972,-0.4261679,10.554838,2.2780828
125,1436462334994,-1.1611878,10.5602255,2.0374656
126,1436462335013,-1.4155718,10.397419,1.7968484
127,1436462335030,-1.4077905,10.385448,1.6825253
128,1436462335054,-1.3628993,10.214862,1.5251064
129,1436462335074,-1.4437037,10.081385,1.6316484
130,1436462335093,-1.4867992,9.710283,1.75076
131,1436462335113,-1.2216414,9.4535055,1.8513165
132,1436462335134,-0.91099375,9.312247,1.7878702
133,1436462335154,-0.6967127,9.335591,1.6639702
134,1436462335174,-0.5494693,9.264363,1.5693992
135,1436462335194,-0.39983168,9.002797,1.5173253
136,1436462335213,-0.019752163,8.807071,1.4885949
137,1436462335234,0.51714754,8.814852,1.6376339
138,1436462335254,0.9900024,8.952518,1.8968062
139,1436462335273,1.2695254,8.954913,2.0512323
140,1436462335309,1.5298948,9.123704,2.1505916
141,1436462335314,1.7633295,9.423578,2.284667
142,1436462335415,1.9087774,9.762956,2.4396915
143,1436462335416,1.8866309,10.116699,2.556409
144,1436462335417,1.7016789,10.429143,2.457648
145,1436462335418,1.5263035,10.564415,2.2343888
146,1436462335419,1.3186066,10.697892,2.1428106
147,1436462335452,0.91578215,11.009736,2.1769278
148,1436462335453,0.39145198,11.43351,2.0733786
149,1436462335471,-0.15263036,11.884817,1.6932992
150,1436462335494,-0.3196259,12.615048,1.3730747
151,1436462335519,-0.092775315,13.772645,1.2354081
152,1436462335532,0.46148238,14.67526,1.228824
153,1436462335551,1.3078327,15.354015,1.0480618
154,1436462335571,2.1051018,14.797363,0.5805939
155,1436462335594,2.6994624,12.987946,0.2220622
156,1436462335611,3.311181,10.690709,0.32920274
157,1436462335632,4.407127,9.162011,0.4794389
158,1436462335651,5.66528,8.874707,0.16819267
159,1436462335671,6.0202203,9.27394,-0.18076223
160,1436462335691,5.915474,10.160992,-0.97503865
161,1436462335711,4.970961,10.459669,-1.0217255
162,1436462335732,3.863643,10.408194,-0.46627077
163,1436462335751,2.8700492,10.254965,-0.28072014
164,1436462335771,1.9219455,9.7863,-0.5129577
165,1436462335791,1.2264298,9.436148,-0.96905315
166,1436462335811,0.79008657,8.747814,-1.1174936
167,1436462335838,0.62728083,7.756615,-0.9307459
168,1436462335856,0.6997054,6.8204823,-0.60453594
169,1436462335871,1.0366893,6.1596823,-0.2717419
170,1436462335893,1.4856021,5.8520274,-0.077213004
171,1436462335912,1.8632874,5.9807158,0.011372458
172,1436462335932,2.0685902,6.5846534,-0.0712275
173,1436462335951,2.112883,7.4585366,-0.26396075
174,1436462335973,2.2691047,9.1272955,-0.5530606
175,1436462335994,2.3331497,11.78486,-1.1474211
176,1436462336016,1.9835961,12.633005,-1.1827357
177,1436462336034,2.4049757,13.302783,-0.748188
178,1436462336055,2.932897,14.161104,0.008978256
179,1436462336070,3.2237926,14.23293,0.688333
180,1436462336091,3.268684,14.62558,0.4177882
181,1436462336112,3.1591492,14.663887,-0.04070143
182,1436462336134,3.1992521,14.5088625,-0.43754035
183,1436462336152,3.489549,14.646529,-0.7260417
184,1436462336171,4.0054994,13.682862,-0.39504328
185,1436462336191,4.7429137,11.199477,0.60693014
186,1436462336216,5.249287,7.7171106,2.4127567
187,1436462336234,6.0172276,6.0262055,4.023456
188,1436462336251,6.591836,6.5565214,4.587889
189,1436462336272,5.928642,8.46051,4.2640734
190,1436462336296,4.110844,8.975264,3.341707
191,1436462336316,3.3530796,9.037513,2.6886885
192,1436462336335,2.1559787,8.670003,1.2934675
193,1436462336356,0.87328506,8.024766,0.6135142
194,1436462336374,-0.26635495,7.2699933,0.29149407
195,1436462336396,-1.1145009,6.3787518,-0.022146367
196,1436462336412,-1.4850036,5.5778913,-0.25378537
197,1436462336434,-1.2743138,5.171476,-0.18794483
198,1436462336454,-0.830788,5.271434,-0.061650693
199,1436462336474,-0.4213795,5.7125654,0.11192893
200,1436462336494,0.053869538,6.9479733,0.362123
201,1436462336514,0.9588778,9.132683,0.9127894
202,1436462336534,1.8249803,10.912771,2.4019828
203,1436462336554,2.1386206,11.796232,4.2634745
204,1436462336574,1.6747441,11.865664,5.674258
205,1436462336594,0.8463503,12.052411,5.5443726
206,1436462336616,0.8182184,12.51928,4.3400893
207,1436462336635,1.2587515,12.664728,3.2423477
208,1436462336652,1.7411832,13.016078,2.813187
209,1436462336672,2.2266076,13.75409,2.2583308
210,1436462336727,2.815581,14.036008,1.5233108
211,1436462336728,3.0705638,12.509106,1.3150153
212,1436462336746,3.196858,9.85633,1.377863
213,1436462336753,3.5817258,8.05589,1.316811
214,1436462336779,4.4993033,7.893683,0.8726865
215,1436462336793,5.271434,8.595184,0.022146367
216,1436462336813,5.4791307,9.518747,-0.44891283
217,1436462336834,4.670489,9.397242,0.29747957
218,1436462336854,3.674501,9.314043,0.7667431
219,1436462336873,2.7700913,9.455899,0.41240123
220,1436462336902,1.8447324,9.215282,-0.20470424
221,1436462336918,1.234211,8.81964,-0.664391
222,1436462336938,0.670975,8.189965,-0.6967127
223,1436462336952,0.3776853,7.765593,-0.53929394
224,1436462336975,-0.12868834,6.9665284,-0.22685061
225,1436462336995,-0.32680854,6.341642,0.0077811554
226,1436462337016,-0.1945289,6.126762,0.10654198
227,1436462337036,0.670975,7.28376,0.02932897
228,1436462337055,1.9871874,10.6954975,-0.60214174
229,1436462337076,2.6850972,13.862428,-1.335366
230,1436462337096,2.9311013,12.726379,0.035913024
231,1436462337115,4.098873,13.024457,0.9463082
232,1436462337133,5.3265004,13.310564,1.3156139
233,1436462337156,5.9477954,13.332112,0.87328506
234,1436462337176,6.1465144,14.072519,0.08319851
235,1436462337193,5.6844335,14.515447,-0.15562311
236,1436462337214,4.6178164,14.074913,0.095768064
237,1436462337233,3.506907,13.375807,0.26276365
238,1436462337255,2.8700492,11.099519,0.705691
239,1436462337274,3.2597055,8.48984,1.4915876
240,1436462337295,3.9725792,6.4481835,2.2960393
241,1436462337315,4.349666,6.001665,2.4534583
242,1436462337335,4.023456,7.915829,1.9877859
243,1436462337354,2.9885623,9.926959,1.7130513
244,1436462337374,1.685518,9.680955,2.0326772
245,1436462337393,1.0139444,9.250597,1.9979613
246,1436462337413,0.5327099,9.279327,1.7052702
247,1436462337460,-0.3369839,8.831013,1.2419921
248,1436462337461,-1.0031705,8.158841,0.75357497
249,1436462337473,-1.3341689,7.3442135,0.3429694
250,1436462337493,-1.1881226,6.6600704,0.17776948
251,1436462337513,-0.7763199,6.051345,0.35793316
252,1436462337533,-0.41060558,5.8759694,0.8571242
253,1436462337553,0.014963761,6.517017,1.4167689
254,1436462337574,0.770933,7.9092455,1.608305
255,1436462337594,1.6944963,8.5886,2.5025394
256,1436462337614,2.1517887,10.064626,3.1262288
257,1436462337633,2.5803509,10.274716,4.5783124
258,1436462337656,2.3600843,9.881469,5.6365495
259,1436462337676,1.7238252,10.313622,5.4366336
260,1436462337694,0.79607207,11.310807,4.39755
261,1436462337716,0.037708677,12.5186825,3.466804
262,1436462337736,-0.21906945,13.807362,2.9658175
263,1436462337756,-0.20530279,15.09185,2.4678235
264,1436462337776,0.52373165,14.857219,1.6801311
265,1436462337796,1.2108675,12.712014,1.0869676
266,1436462337816,1.4293385,10.016143,0.99898064
267,1436462337834,2.087744,8.491635,0.8230068
268,1436462337854,3.3321302,8.345589,0.36631286
269,1436462337874,4.547786,9.200917,-0.33159694
270,1436462337895,5.180454,10.518925,-0.98700964
271,1436462337913,5.1265845,11.265916,-0.56323594
272,1436462337933,4.8297033,11.1653595,0.7529764
273,1436462337954,4.1012673,10.4728365,1.7770962
274,1436462337977,2.8856115,9.528324,1.951873
275,1436462337999,1.8507179,8.836999,1.2964603
276,1436462338019,1.3198037,8.067263,0.58657944
277,1436462338037,1.0923545,7.2143283,0.40162733
278,1436462338053,0.9115923,6.4577603,0.52133745
279,1436462338073,0.9175778,6.205771,0.59017074
280,1436462338093,1.1288661,6.9306154,0.58119243
281,1436462338114,1.5628152,9.063251,0.48961425
282,1436462338133,2.0123265,12.406754,0.08259996
283,1436462338186,2.4732103,13.463195,0.14844051
284,1436462338189,3.7858315,13.791799,0.3752911
285,1436462338205,5.315128,13.8480625,0.50038815
286,1436462338213,5.9807158,13.499706,0.6051345
287,1436462338237,5.6946087,13.268666,0.6715736
288,1436462338253,5.439626,13.226768,0.736217
289,1436462338273,4.4424415,12.7575035,0.9792285
290,1436462338295,3.406949,10.457873,1.5412674
291,1436462338315,3.4955344,7.748235,2.2499511
292,1436462338335,4.2173862,5.897517,2.6431987
293,1436462338355,4.7746367,5.345654,2.5570073
294,1436462338375,4.26527,7.157466,2.3002293
295,1436462338396,2.949058,9.81084,2.468422
296,1436462338417,1.0307038,10.012551,3.0903158
297,1436462338437,-0.46327803,9.405622,2.7629087
298,1436462338457,-0.96187055,9.493608,1.654992
299,1436462338477,-1.1198878,9.091382,0.80445176
300,1436462338496,-0.86251116,8.213907,0.78769237
301,1436462338517,-0.38845924,7.1544733,1.2156559
302,1436462338537,0.2777274,6.575675,1.4047978
303,1436462338557,1.0899603,6.6307416,1.602918
304,1436462338576,1.8567034,7.4070616,2.0213048
305,1436462338595,2.296638,8.312668,2.6916811
306,1436462338617,2.6731262,9.314043,3.3961751
307,1436462338636,2.9281087,10.259753,4.064756
308,1436462338655,2.5103204,10.965444,4.362834
309,1436462338676,1.0414777,10.730213,4.2197804
310,1436462338696,-0.55844754,10.201095,3.6062663
311,1436462338717,-1.4137762,10.319608,2.6270378
312,1436462338736,-1.4311341,11.629236,1.6334441
313,1436462338757,-0.99658644,13.523648,1.0079589
314,1436462338776,-0.1592144,15.320497,0.8774749
315,1436462338797,0.81043726,15.728109,1.110311
316,1436462338817,1.4449008,13.978547,1.4101849
317,1436462338834,1.5981296,11.063007,1.5197195
318,1436462338958,2.1158757,8.802881,1.5819688
319,1436462338959,3.3614593,8.476072,0.8098387
320,1436462338960,4.100669,9.015965,-0.1400608
321,1436462338961,5.121796,9.9928,-1.7615339
322,1436462338962,5.1170077,10.506355,-1.5520413
323,1436462338963,4.7189717,10.327988,0.08080431
324,1436462338985,4.262876,9.840768,1.4347254
325,1436462339006,3.0879216,9.226056,1.6927006
326,1436462339015,1.673547,8.673594,0.99419224
327,1436462339036,0.92057055,8.242638,-0.16101007
328,1436462339055,0.83497787,7.6728177,-0.78649527
329,1436462339075,0.7062895,6.9000893,-0.5859809
330,1436462339095,0.5835867,6.2632318,-0.17537527
331,1436462339115,0.599149,6.049549,0.2136825
332,1436462339137,0.98581254,6.9240313,0.43155485
333,1436462339155,1.6065093,9.542689,0.10474633
334,1436462339177,1.9237411,13.0280485,-0.44891283
335,1436462339198,1.6310499,12.741941,0.20829555
336,1436462339218,2.220622,12.880207,0.95947635
337,1436462339238,2.9885623,13.115437,1.3449428
338,1436462339258,3.3889925,13.014282,1.4329298
339,1436462339276,3.6409822,14.119804,1.110311
340,1436462339296,3.490746,15.567698,0.65660983
341,1436462339318,2.7353754,15.011046,0.5674258
342,1436462339337,2.944868,12.75511,0.98581254
343,1436462339358,3.517681,9.720459,1.6597804
344,1436462339376,3.8522706,6.979098,2.7246015
345,1436462339396,4.4143095,5.967548,3.7732618
346,1436462339418,4.653131,7.6811976,4.1282024
347,1436462339435,3.4626143,10.442909,3.6272156
348,1436462339456,1.0995371,10.5045595,2.8431146
349,1436462339477,0.08020575,10.210073,2.018312
350,1436462339496,-0.11671733,10.471041,1.7375919
351,1436462339518,-0.20949265,9.944916,1.5107412
352,1436462339536,-0.15263036,9.519346,1.4209588
353,1436462339556,0.015562311,8.207323,1.3796587
354,1436462339575,0.6823475,7.1221514,1.2443863
355,1436462339600,1.6136919,6.737882,1.2773066
356,1436462339656,2.054225,6.615179,1.3664906
357,1436462339657,2.2379801,6.5726824,1.6915035
358,1436462339668,2.0655975,6.943185,1.5556326
359,1436462339679,1.666963,7.785944,1.2916719
360,1436462339696,1.3311762,9.145252,1.395221
361,1436462339731,0.748188,10.078392,2.3026235
362,1436462339735,-0.25079262,10.294469,3.3919852
363,1436462339755,-1.2856863,10.516531,3.7247794
364,1436462339776,-2.0649989,11.118074,3.301604
365,1436462339809,-2.1499932,12.249334,2.5258827
366,1436462339817,-1.8405426,13.213,1.899799
367,1436462339841,-0.9223662,13.10586,1.3275849
368,1436462339856,1.3150153,12.143391,0.8451532
369,1436462339876,3.0639796,10.390836,0.9032126
370,1436462339895,4.0438066,9.357139,0.84575176
371,1436462339916,4.811747,9.36492,0.81522566
372,1436462339936,5.4713492,10.128671,0.46387658
373,1436462339957,5.6323595,10.971429,0.34596214
374,1436462339976,4.953005,11.205462,0.53330845
375,1436462339996,4.2024226,11.412561,0.6386533
376,1436462340019,3.193865,11.52449,0.6769605
377,1436462340038,1.8890251,11.204266,0.47644615
378,1436462340058,0.90500826,10.05864,0.3441665
379,1436462340076,0.7410054,9.003994,0.29628247
380,1436462340099,0.516549,7.99005,0.23942018
381,1436462340119,0.39025488,7.088034,0.37828386
382,1436462340139,0.2717419,6.39192,0.516549
383,1436462340158,0.18255788,5.9968767,0.6410475
384,1436462340177,0.18914193,6.0345855,0.6877344
385,1436462340198,0.16998832,6.851008,0.7715315
386,1436462340218,0.25019407,8.729858,0.6679823
387,1436462340239,0.12808979,12.027272,0.16879122
388,1436462340257,-0.16340427,13.152547,0.11312603
389,1436462340276,0.45729253,13.498509,0.7164649
390,1436462340295,1.5227122,13.888764,1.2240356
391,1436462340315,2.7581203,13.398551,1.70946
392,1436462340340,3.9474401,14.138958,1.6825253
393,1436462340432,4.361637,15.1774435,1.1803415
394,1436462340434,3.389591,14.735713,1.1402385
395,1436462340436,3.1789012,12.153566,1.6262615
396,1436462340437,4.221576,9.491813,2.1152773
397,1436462340438,5.2810106,7.44896,2.6731262
398,1436462340457,5.892729,6.5032506,3.0454245
399,1436462340476,5.527613,7.0610995,3.5625722
400,1436462340496,4.2419267,9.252393,3.958214
401,1436462340521,2.0883424,11.285069,3.6044707
402,1436462340545,-0.15322891,11.604695,2.3732524
403,1436462340556,-1.5628152,11.592126,0.729633
404,1436462340576,-2.303222,10.742185,-0.19991584
405,1436462340596,-2.134431,9.466075,-0.29149407
406,1436462340617,-1.5095441,8.440758,0.42078096
407,1436462340637,-0.9139865,7.566276,0.93014735
408,1436462340659,-0.010175358,7.0144124,1.1330559
409,1436462340676,1.1653777,7.120356,1.5592239
410,1436462340697,2.043451,7.425018,1.9859903
411,1436462340719,2.540248,7.89907,2.5121162
412,1436462340739,2.4582467,8.369531,2.830545
413,1436462340757,1.6346412,8.393473,3.0125043
