id,attr_time,attr_x,attr_y,attr_z
1,1436463450022,0.06817787,-0.05770021,-0.015430983
2,1436463450042,0.06542898,-0.06503059,-0.016041849
3,1436463450069,0.06268008,-0.069917515,-0.0053517073
4,1436463450084,0.05748773,-0.06472516,0.007476462
5,1436463450104,0.05993119,-0.06350343,0.01755574
6,1436463450124,0.05168451,-0.06350343,0.023969823
7,1436463450143,0.040383503,-0.06289256,0.022137228
8,1436463450162,0.03213682,-0.06197626,0.05023703
9,1436463450184,0.02266841,-0.064419724,0.07680967
10,1436463450205,0.016559757,-0.06930665,0.09635736
11,1436463450225,0.009840239,-0.06930665,0.1079638
12,1436463450245,0.007091347,-0.072971836,0.10979639
13,1436463450265,0.015948892,-0.082745686,0.094524756
14,1436463450285,0.029387929,-0.08915977,0.08811067
15,1436463450305,0.051379077,-0.0912978,0.08383462
16,1436463450325,0.06206922,-0.100155346,0.08352919
17,1436463450345,0.07978431,-0.11328895,0.08505635
18,1436463450364,0.09597224,-0.13925071,0.079558566
19,1436463450384,0.110633,-0.17254287,0.075587936
20,1436463450406,0.13628934,-0.19667205,0.07589337
21,1436463450424,0.15156098,-0.21896863,0.08383462
22,1436463450444,0.16652718,-0.23485114,0.103076875
23,1436463450465,0.17935534,-0.23668373,0.10521491
24,1436463450486,0.185464,-0.22874248,0.09513563
25,1436463450507,0.17966077,-0.22080123,0.08261289
26,1436463450527,0.1601131,-0.21408172,0.07100645
27,1436463450544,0.14881209,-0.20522417,0.050847895
28,1436463450566,0.13476218,-0.18720365,0.032216504
29,1436463450583,0.12132315,-0.16857225,0.01541771
30,1436463450605,0.114603624,-0.15604952,-0.009933196
31,1436463450626,0.1133819,-0.13833442,-0.024288531
32,1436463450646,0.1115493,-0.12947688,-0.029480886
33,1436463450694,0.10666238,-0.11481611,-0.042309057
34,1436463450695,0.10635695,-0.094657555,-0.0520829
35,1436463450714,0.09994286,-0.08549458,-0.05483179
36,1436463450723,0.08680926,-0.06930665,-0.055748094
37,1436463450749,0.092307046,-0.05800564,-0.05086117
38,1436463450763,0.09902656,-0.054035015,-0.047195975
39,1436463450786,0.10055373,-0.04181771,-0.0520829
40,1436463450805,0.10544065,-0.03815252,-0.07621208
41,1436463450823,0.11032757,-0.047926366,-0.09453803
42,1436463450848,0.1274318,-0.06961208,-0.123554125
43,1436463450865,0.14636862,-0.08335655,-0.17242335
44,1436463450883,0.17019236,-0.10076621,-0.19777426
45,1436463450903,0.217229,-0.110540055,-0.22037627
46,1436463450923,0.26090586,-0.13558553,-0.24603263
47,1436463450946,0.2847296,-0.14261048,-0.2655803
48,1436463450966,0.28411874,-0.15055172,-0.28268453
49,1436463450986,0.27220687,-0.15268975,-0.27749217
50,1436463451006,0.24257989,-0.16002014,-0.26894006
51,1436463451026,0.19462697,-0.16918312,-0.28024107
52,1436463451046,0.15980765,-0.17132114,-0.27718675
53,1436463451066,0.13262415,-0.1615473,-0.2506141
54,1436463451086,0.11918512,-0.14810826,-0.22953925
55,1436463451104,0.11032757,-0.14016701,-0.18891671
56,1436463451127,0.099332,-0.128866,-0.21579479
57,1436463451146,0.11643623,-0.117565006,-0.2084644
58,1436463451164,0.10971671,-0.1306986,-0.27077267
59,1436463451184,0.115519926,-0.1297823,-0.27107808
60,1436463451205,0.1433143,-0.13192034,-0.25855535
61,1436463451227,0.16438915,-0.1334475,-0.30681372
62,1436463451248,0.1836314,-0.15268975,-0.31383866
63,1436463451268,0.19401611,-0.18017869,-0.2561119
64,1436463451287,0.20226279,-0.20736219,-0.22923383
65,1436463451305,0.21478553,-0.23149137,-0.27016178
66,1436463451325,0.2502157,-0.27333564,-0.31017345
67,1436463451346,0.32168695,-0.32495376,-0.3300266
68,1436463451364,0.40445918,-0.39062178,-0.3636242
69,1436463451384,0.46982178,-0.45109743,-0.36270788
70,1436463451450,0.51533127,-0.4911091,-0.33705154
71,1436463451451,0.5477071,-0.5176817,-0.29123664
72,1436463451452,0.5654222,-0.5192089,-0.26435858
73,1436463451468,0.5715309,-0.5042427,-0.22129257
74,1436463451485,0.54801255,-0.49355257,-0.167231
75,1436463451507,0.49272922,-0.46881253,-0.1409638
76,1436463451525,0.43683505,-0.45415175,-0.1409638
77,1436463451544,0.40293202,-0.43368778,-0.15806802
78,1436463451567,0.38979843,-0.41475093,-0.14371268
79,1436463451584,0.38643867,-0.39825758,-0.13790946
80,1436463451608,0.39315817,-0.39673042,-0.12599759
81,1436463451627,0.40781894,-0.39123264,-0.09148371
82,1436463451644,0.40598634,-0.39856303,-0.082320735
83,1436463451664,0.4010994,-0.38573486,-0.08048813
84,1436463451687,0.38552237,-0.36038393,-0.07835011
85,1436463451708,0.3812463,-0.33503303,-0.063994765
86,1436463451728,0.36841813,-0.32861894,-0.049639437
87,1436463451747,0.3632258,-0.33136785,-0.054526363
88,1436463451767,0.36658555,-0.34175256,-0.05666439
89,1436463451787,0.37758112,-0.37901533,-0.048112277
90,1436463451807,0.39499077,-0.43949097,-0.04322535
91,1436463451828,0.42003626,-0.4819461,-0.047195975
92,1436463451849,0.44447085,-0.5222632,-0.008406034
93,1436463451865,0.43866763,-0.5311207,0.021526363
94,1436463451888,0.39743423,-0.4984395,-0.0010756515
95,1436463451907,0.35833886,-0.43643665,-0.026121125
96,1436463451931,0.29633605,-0.3826805,-0.042614486
97,1436463451946,0.239831,-0.34450144,-0.016652714
98,1436463451966,0.19981933,-0.32587007,-0.017874446
99,1436463451988,0.16897063,-0.30174088,-0.018179879
100,1436463452008,0.13537304,-0.26234007,-0.0035191122
101,1436463452026,0.10360806,-0.2327131,0.01419598
102,1436463452047,0.08680926,-0.19942094,0.04596097
103,1436463452068,0.100859165,-0.17071028,0.078642264
104,1436463452088,0.10971671,-0.16093643,0.09513563
105,1436463452108,0.10757868,-0.13986158,0.10582577
106,1436463452132,0.11307646,-0.1316149,0.1079638
107,1436463452178,0.1378165,-0.1306986,0.10521491
108,1436463452179,0.1591968,-0.14841369,0.11010182
109,1436463452198,0.1723304,-0.17804067,0.12384629
110,1436463452204,0.16713804,-0.19453402,0.13239841
111,1436463452224,0.14911751,-0.1914797,0.12537345
112,1436463452268,0.1387328,-0.17773522,0.09971711
113,1436463452269,0.13903823,-0.16826682,0.07436621
114,1436463452284,0.13659477,-0.1755972,0.067035824
115,1436463452307,0.1378165,-0.18140042,0.078642264
116,1436463452326,0.1246829,-0.17162658,0.09421933
117,1436463452345,0.112465605,-0.14352678,0.10826923
118,1436463452366,0.101164594,-0.116343275,0.09757909
119,1436463452387,0.10757868,-0.10779116,0.094524756
120,1436463452408,0.11185473,-0.123368226,0.10521491
121,1436463452428,0.11368734,-0.12611711,0.10979639
122,1436463452448,0.10941128,-0.12061933,0.11529417
123,1436463452468,0.099637434,-0.10901289,0.09208129
124,1436463452488,0.07398109,-0.08977064,0.06611952
125,1436463452508,0.05962576,-0.075720735,0.067952126
126,1436463452528,0.047408454,-0.060143672,0.075587936
127,1436463452547,0.034580283,-0.04975896,0.07070102
128,1436463452568,0.019614086,-0.032043867,0.063981496
129,1436463452586,0.012283701,-0.0112744495,0.053596787
130,1436463452607,0.0132,0.007051507,0.046571836
131,1436463452628,0.011367403,0.01316016,0.038019724
132,1436463452647,0.015948892,0.019574245,0.050847895
133,1436463452667,0.017781489,0.019268813,0.054207653
134,1436463452688,-0.0011553355,0.038511068,0.061232604
135,1436463452708,-0.021008458,0.054698996,0.06459236
136,1436463452728,-0.04544306,0.07913361,0.07039558
137,1436463452748,-0.09003623,0.121894166,0.07100645
138,1436463452768,-0.1468467,0.17687204,0.08322375
139,1436463452787,-0.22687006,0.25292477,0.09605192
140,1436463452806,-0.28184792,0.32011995,0.11101812
141,1436463452828,-0.331328,0.34363827,0.13362013
142,1436463452928,-0.35728976,0.36013162,0.15164067
143,1436463452929,-0.36981252,0.36318594,0.13026038
144,1436463452930,-0.37164512,0.3570773,0.08444548
145,1436463452931,-0.3808081,0.35188493,0.052069627
146,1436463452932,-0.38966563,0.3384459,0.044739243
147,1436463452954,-0.39455256,0.32134166,0.028856747
148,1436463452969,-0.38813847,0.29507446,0.005949299
149,1436463452985,-0.36889622,0.2590334,0.0010623764
150,1436463453006,-0.34323987,0.2309336,0.016334008
151,1436463453088,-0.32796824,0.21444026,0.03191107
152,1436463453089,-0.3059771,0.20497185,0.05726198
153,1436463453090,-0.29009458,0.18908934,0.063981496
154,1436463453091,-0.27237952,0.1670982,0.07161731
155,1436463453123,-0.24672318,0.15182658,0.09880082
156,1436463453124,-0.22900808,0.13197345,0.11162898
157,1436463453151,-0.21220928,0.12006158,0.13178754
158,1436463453165,-0.19693765,0.11150946,0.12873322
159,1436463453185,-0.18258232,0.10784428,0.11743221
160,1436463453205,-0.16822699,0.09868129,0.10888009
161,1436463453225,-0.1608966,0.08921288,0.106131196
162,1436463453245,-0.15356621,0.082493365,0.10429861
163,1436463453265,-0.14531954,0.07271952,0.094830185
164,1436463453285,-0.14043261,0.06569457,0.07344991
165,1436463453305,-0.1337131,0.04400885,0.06428693
166,1436463453325,-0.12638271,0.022628574,0.070090145
167,1436463453345,-0.11874689,0.008884104,0.08627808
168,1436463453365,-0.107445896,0.0018591527,0.08505635
169,1436463453385,-0.097366616,-0.004554931,0.074060775
170,1436463453404,-0.09492315,-0.0015006047,0.060010873
171,1436463453424,-0.09156339,-0.0042494982,0.048404433
172,1436463453444,-0.086371034,-0.0021114703,0.042295784
173,1436463453464,-0.08209498,0.0027754512,0.043822944
174,1436463453484,-0.084843874,-0.0076092575,0.052375056
175,1436463453506,-0.081484124,-0.01707767,0.060316306
176,1436463453525,-0.08026239,-0.028378677,0.06550866
177,1436463453549,-0.08087325,-0.04181771,0.07039558
178,1436463453565,-0.0765972,-0.057394773,0.055429384
179,1436463453584,-0.082705855,-0.07846963,0.04015775
180,1436463453606,-0.08667648,-0.091603234,0.03649256
181,1436463453628,-0.086371034,-0.10107164,0.030078476
182,1436463453646,-0.08178955,-0.10565313,0.019082902
183,1436463453665,-0.07629177,-0.08824347,-0.00077021867
184,1436463453685,-0.064685315,-0.062281698,-0.027953722
185,1436463453706,-0.05277345,-0.0463992,-0.051777463
186,1436463453725,-0.040556144,-0.032043867,-0.063994765
187,1436463453745,-0.026200812,-0.02868411,-0.07621208
188,1436463453767,-0.007569421,-0.013412477,-0.074379474
189,1436463453786,0.0043424517,0.00063742325,-0.07468492
190,1436463453810,0.015948892,0.015909055,-0.052693766
191,1436463453829,0.02144668,0.03392958,-0.024288531
192,1436463453849,0.01106197,0.039121933,0.011752519
193,1436463453865,0.009840239,0.04125996,0.021831796
194,1436463453892,0.00037182868,0.062029377,0.0199992
195,1436463453905,-0.0035987943,0.069359764,0.012057952
196,1436463453925,-0.007569421,0.076690145,0.008087328
197,1436463453945,-0.0011553355,0.08035534,-0.009016899
198,1436463453965,-0.0039042272,0.09807043,-0.04353079
199,1436463453988,-0.005736824,0.11334206,-0.07315776
200,1436463454005,-0.012456339,0.1258648,-0.097592354
201,1436463454025,-0.014594372,0.13991469,-0.11225313
202,1436463454048,-0.020092156,0.14693965,-0.12538673
203,1436463454068,-0.021924753,0.14357989,-0.14371268
204,1436463454089,-0.017343264,0.13655494,-0.1599006
205,1436463454109,-0.0066531226,0.1240322,-0.15470825
206,1436463454128,0.0067859143,0.1231159,-0.13943663
207,1436463454149,0.018086921,0.12830825,-0.123859555
208,1436463454168,0.04252153,0.13594407,-0.10980967
209,1436463454189,0.05840403,0.1286137,-0.08842938
210,1436463454209,0.07703542,0.120672435,-0.074379474
211,1436463454227,0.089252725,0.10387364,-0.06216218
212,1436463454246,0.09261248,0.10051389,-0.033146076
213,1436463454269,0.07367566,0.10326278,-0.04750141
214,1436463454302,0.053211674,0.11120403,-0.06796539
215,1436463454308,0.017476056,0.1249485,-0.07163058
216,1436463454327,-0.0072639883,0.12525393,-0.054526363
217,1436463454347,-0.034752924,0.11364749,-0.036505837
218,1436463454366,-0.05002455,0.10204105,0.03649256
219,1436463454386,-0.037807252,0.08432596,0.17149378
220,1436463454406,-0.021313887,0.082798794,0.2954994
221,1436463454426,0.0049533173,0.07943904,0.38651836
222,1436463454446,0.052295376,0.09226721,0.42866805
223,1436463454470,0.112465605,0.119145274,0.4729558
224,1436463454489,0.14575776,0.1652656,0.4564624
225,1436463454507,0.1518664,0.2309336,0.3831586
226,1436463454526,0.13995454,0.2849952,0.34161976
227,1436463454546,0.12956983,0.33294812,0.3223775
228,1436463454566,0.1133819,0.36013162,0.3468121
229,1436463454586,0.115519926,0.38029018,0.39018354
230,1436463454606,0.11216017,0.3711272,0.42378113
231,1436463454626,0.114298195,0.3644077,0.46990144
232,1436463454646,0.112771034,0.36960003,0.49158716
233,1436463454666,0.102691755,0.36685112,0.4796753
234,1436463454686,0.102691755,0.3628805,0.4283626
235,1436463454706,0.09994286,0.35310668,0.38193685
236,1436463454726,0.10574608,0.3271449,0.3458958
237,1436463454746,0.11735253,0.29782337,0.31840688
238,1436463454766,0.12895897,0.2727779,0.3214612
239,1436463454786,0.1378165,0.2504813,0.32115576
240,1436463454809,0.15614247,0.23704228,0.3074113
241,1436463454826,0.1723304,0.22818473,0.29855376
242,1436463454846,0.19157265,0.23490423,0.27442458
243,1436463454866,0.21417466,0.22635213,0.22799882
244,1436463454886,0.23952557,0.18053724,0.114377886
245,1436463454906,0.25143746,0.1231159,0.048404433
246,1436463454926,0.2780101,0.100208454,0.08078029
247,1436463454947,0.28870022,0.13166802,0.10674207
248,1436463454966,0.31038594,0.16679277,0.12445715
249,1436463454986,0.3183272,0.21046963,0.10674207
250,1436463455009,0.3024447,0.2672801,0.07894769
251,1436463455026,0.27006882,0.3027103,0.03863059
252,1436463455046,0.24746682,0.3020994,0.016334008
253,1436463455066,0.21783985,0.2849952,0.0016732421
254,1436463455086,0.19401611,0.2391803,-0.010238629
255,1436463455106,0.18851832,0.15915695,-0.0065734386
256,1436463455126,0.16988693,0.08066077,0.039241455
257,1436463455146,0.1704978,0.039427362,0.1070475
258,1436463455166,0.16194569,0.033013284,0.20875657
259,1436463455186,0.1591968,0.031486116,0.28633645
260,1436463455206,0.13537304,0.038511068,0.29824832
261,1436463455226,0.099332,0.06447284,0.28847447
262,1436463455246,0.059014894,0.08157706,0.25915295
263,1436463455266,-0.004515093,0.092572644,0.19653925
264,1436463455286,-0.06407446,0.083715096,0.14339398
265,1436463455306,-0.11202738,0.07424668,0.14156139
266,1436463455333,-0.14348695,0.09012918,0.19898272
267,1436463455346,-0.15875857,0.118534416,0.23899439
268,1436463455368,-0.16700526,0.12464307,0.30221894
269,1436463455388,-0.15387166,0.11150946,0.37124673
270,1436463455409,-0.10866763,0.071192354,0.3990411
271,1436463455427,-0.05399518,0.038816497,0.36177832
272,1436463455449,-0.009707447,0.044314288,0.2942777
273,1436463455468,0.06237465,0.060502216,0.18645999
274,1436463455488,0.11735253,0.08310423,0.0893324
275,1436463455507,0.17141409,0.09074005,0.020304631
276,1436463455528,0.21875615,0.09654327,0.01786117
277,1436463455547,0.24746682,0.12219961,0.05145876
278,1436463455579,0.2679308,0.15091027,0.13178754
279,1436463455596,0.27465034,0.19916862,0.22677709
280,1436463455607,0.25357547,0.24070746,0.3016081
281,1436463455628,0.2257811,0.22726843,0.30069178
282,1436463455647,0.20195736,0.1670982,0.26037467
283,1436463455668,0.1546153,0.12647566,0.13728532
284,1436463455688,0.09505594,0.05133924,-0.06643823
285,1436463455707,0.0028152913,-0.019826563,-0.15684628
286,1436463455728,-0.083011284,-0.081523955,-0.20449378
287,1436463455751,-0.11477627,-0.15543865,-0.20968613
288,1436463455771,-0.1337131,-0.1878145,-0.16173321
289,1436463455788,-0.1468467,-0.22171752,-0.048112277
290,1436463455809,-0.17005958,-0.25317708,0.0490153
291,1436463455831,-0.16700526,-0.2748628,0.08414005
292,1436463455851,-0.17830625,-0.27119762,0.057872843
293,1436463455871,-0.19113442,-0.26967046,0.010225356
294,1436463455891,-0.16059117,-0.2849421,-0.07621208
295,1436463455909,-0.16272919,-0.31579077,-0.13913119
296,1436463455931,-0.20151913,-0.31670707,-0.20541008
297,1436463455948,-0.23511672,-0.28952357,-0.30834088
298,1436463455968,-0.27268493,-0.246763,-0.37859038
299,1436463455988,-0.27360123,-0.23698916,-0.43081936
300,1436463456010,-0.27115777,-0.24034892,-0.4894624
301,1436463456028,-0.22900808,-0.2232447,-0.56459886
302,1436463456049,-0.120579496,-0.23301853,-0.6959349
303,1436463456069,-0.077513486,-0.22782618,-0.6137735
304,1436463456094,0.003120724,-0.2281316,-0.51114815
305,1436463456110,0.039772637,-0.2730302,-0.4677767
306,1436463456128,-0.034447487,-0.29196703,-0.28085193
307,1436463456149,-0.038723547,-0.30540606,-0.3834773
308,1436463456169,-0.03566922,-0.38665116,-0.54627293
309,1436463456189,-0.08545475,-0.41016945,-0.44975618
310,1436463456219,-0.11660887,-0.39153805,-0.29795617
311,1436463456290,-0.122412086,-0.34266886,-0.07835011
312,1436463456291,-0.12210666,-0.27180848,0.11895937
313,1436463456292,-0.09278512,-0.2363783,0.20509137
314,1436463456293,-0.020092156,-0.21988493,0.23013684
315,1436463456309,0.09566681,-0.21285999,0.13209297
316,1436463456332,0.2135638,-0.2055296,-0.051777463
317,1436463456348,0.30763704,-0.15482779,-0.21487848
318,1436463456368,0.35009217,-0.08366198,-0.32605594
319,1436463456400,0.3681127,-0.039679684,-0.43173563
320,1436463456410,0.35375738,0.0058297776,-0.43448454
321,1436463456434,0.32107607,0.03667847,-0.41524228
322,1436463456449,0.28961653,0.06019678,-0.39722177
323,1436463456469,0.27495575,0.089518316,-0.37736863
324,1436463456491,0.25785154,0.117312685,-0.3291103
325,1436463456509,0.2492994,0.14846681,-0.25580645
326,1436463456530,0.24502335,0.18695132,-0.21518391
327,1436463456552,0.22455937,0.26422578,-0.21548934
328,1436463456572,0.19798674,0.3497469,-0.21884911
329,1436463456591,0.16897063,0.3760141,-0.24542174
330,1436463456609,0.12956983,0.31156784,-0.29123664
331,1436463456632,0.142398,0.20252839,-0.33705154
332,1436463456651,0.19035092,0.14755051,-0.32788855
333,1436463456676,0.23922014,0.1661819,-0.34254932
334,1436463456698,0.28595135,0.16129498,-0.24053481
335,1436463456709,0.24380162,0.100208454,0.1959284
336,1436463456733,0.22517024,0.045230582,0.6950053
337,1436463456749,0.24044187,0.04828491,0.6980596
338,1436463456769,0.24288532,0.106011674,0.27045396
339,1436463456788,0.26334932,0.12830825,-0.22220887
340,1436463456809,0.251132,0.1502994,-0.12783019
341,1436463456829,0.24807768,0.1829807,-0.09973039
342,1436463456850,0.23769297,0.14632878,-0.060024146
343,1436463456870,0.21325836,0.09043461,-0.0053517073
344,1436463456889,0.18607485,0.022628574,0.029773043
345,1436463456911,0.1414817,-0.08580001,0.12140283
346,1436463456935,0.082227774,-0.16887769,0.16080365
347,1436463456992,0.017476056,-0.23393483,0.14614287
348,1436463456993,-0.025895376,-0.28341493,0.11254528
349,1436463456994,-0.07904066,-0.33075696,0.079558566
350,1436463457030,-0.120579496,-0.38481855,0.036797993
351,1436463457031,-0.1346294,-0.4294117,-0.0053517073
352,1436463457052,-0.12760444,-0.4443779,-0.060024146
353,1436463457070,-0.1214958,-0.4330769,-0.10278471
354,1436463457092,-0.10408613,-0.41383466,-0.135466
355,1436463457109,-0.06163099,-0.37748817,-0.118972644
356,1436463457136,-0.013372641,-0.33442217,-0.08506963
357,1436463457149,0.05840403,-0.28952357,-0.08048813
358,1436463457171,0.12101771,-0.26234007,-0.12538673
359,1436463457190,0.18668573,-0.24187608,-0.17333965
360,1436463457210,0.19340524,-0.19514489,-0.19655253
361,1436463457230,0.18790746,-0.13894528,-0.31292236
362,1436463457252,0.1732467,-0.10687486,-0.38958594
363,1436463457270,0.16164026,-0.11420524,-0.36881652
364,1436463457290,0.13903823,-0.12703341,-0.3226962
365,1436463457312,0.077951714,-0.105042264,-0.22923383
366,1436463457330,0.010145672,-0.045482904,-0.15592998
367,1436463457352,-0.028033402,-0.03601449,-0.024899397
368,1436463457369,-0.047581095,-0.10779116,0.11529417
369,1436463457391,-0.06376903,-0.19575575,0.18218392
370,1436463457412,-0.032614898,-0.23882176,0.038936023
371,1436463457436,-0.021619316,-0.27119762,-0.3816447
372,1436463457454,-0.09400685,-0.22477186,-0.26435858
373,1436463457470,-0.16853242,-0.160631,-0.006268006
374,1436463457491,-0.17952798,-0.09282496,0.07222818
375,1436463457512,-0.19510505,-0.042428575,0.25396058
376,1436463457531,-0.17005958,0.025988331,0.36880326
377,1436463457552,-0.107445896,0.076690145,0.46898517
378,1436463457570,-0.017343264,0.13441691,0.48639482
379,1436463457592,0.052295376,0.1988632,0.42469743
380,1436463457611,0.13751107,0.24162376,0.2802278
381,1436463457633,0.21753442,0.28071913,0.10582577
