id,attr_time,attr_x,attr_y,attr_z
1,1436899622619,-0.00900269,-0.0157013,-0.0090332
2,1436899622638,0.00701904,0.000320435,-0.0111694
3,1436899622658,0.0134277,0.00779724,0.00164795
4,1436899622677,-0.0111389,0.00245666,0.00805664
5,1436899622697,-0.0378418,-0.0103607,0.0101929
6,1436899622717,-0.0378418,-0.0103607,0.0048523
7,1436899622740,-0.0100708,-0.00715637,0.00271606
8,1436899622756,0.0112915,0.0142059,0.00805664
9,1436899622776,0.00595093,0.0184784,0.00592041
10,1436899622797,0.0134277,0.00886536,0.00592041
11,1436899622817,0.0187683,0.000320435,0.00378418
12,1436899622839,0.0283813,-0.00502014,0.00378418
13,1436899622856,0.0241089,0.00138855,0.00378418
14,1436899622876,0.0294495,0.00779724,-0.00369263
15,1436899622895,0.043335,0.0184784,0.00271606
16,1436899622916,0.0294495,0.00886536,0.00912476
17,1436899622936,-0.00366211,-0.00395203,-0.0015564
18,1436899622955,-0.00152588,-0.00715637,-0.00582886
19,1436899622974,0.0326538,-0.00288391,0.000579834
20,1436899622994,0.0315857,0.0174103,0.00164795
21,1436899623015,0.043335,0.0163422,0.00164795
22,1436899623034,0.0369263,0.00352478,-0.00369263
23,1436899623054,0.0326538,0.00138855,-0.00476074
24,1436899623074,0.0379944,-0.0018158,-0.00262451
25,1436899623094,0.0401306,-0.0018158,-0.000488281
26,1436899623114,0.0454712,0.00245666,0.00164795
27,1436899623134,0.0636291,0.0110016,0.00698853
28,1436899623153,0.0572205,0.0110016,0.00378418
29,1436899623173,0.0337219,0.0110016,0.00698853
30,1436899623193,0.0305176,0.0142059,0.00912476
31,1436899623212,0.0369263,0.00886536,0.00912476
32,1436899623233,0.0476074,0.00993347,0.0123291
33,1436899623252,0.0476074,0.0110016,0.0133972
34,1436899623272,0.0273132,0.0045929,0.00592041
35,1436899623291,0.015564,0.00138855,0.00912476
36,1436899623311,0.0038147,-0.00288391,0.00698853
37,1436899623334,0.00167847,-0.00608826,0.00912476
38,1436899623351,-0.00152588,-0.00288391,0.00698853
39,1436899623371,-0.012207,0.00352478,0.0101929
40,1436899623391,-0.0239563,0.00672913,0.00912476
41,1436899623410,-0.0228882,0.00245666,0.0101929
42,1436899623430,-0.030365,0.000320435,0.0187378
43,1436899623450,-0.0346375,-0.00288391,0.0219421
44,1436899623471,-0.00579834,-0.00502014,0.0240784
45,1436899623490,0.00808716,0.00672913,0.0155334
46,1436899623510,-0.00900269,0.00672913,0.00698853
47,1436899623528,-0.0271606,-0.0146332,0.00912476
48,1436899623549,-0.030365,-0.0167694,0.00912476
49,1436899623570,-0.0132751,-0.00822449,0.0144653
50,1436899623589,-0.0111389,-0.0103607,0.00912476
51,1436899623609,-0.0325012,-0.000747681,0.00164795
52,1436899623628,-0.0325012,0.000320435,-0.0143738
53,1436899623648,-0.0100708,-0.000747681,-0.00796509
54,1436899623668,0.0038147,-0.000747681,0.00271606
55,1436899623688,0.0038147,0.00672913,0.00592041
56,1436899623707,0.00274658,-0.00288391,0.0048523
57,1436899623727,-0.00579834,-0.00608826,-0.00369263
58,1436899623746,-0.00900269,0.000320435,-0.0122375
59,1436899623770,0.000610352,-0.00288391,-0.00689697
60,1436899623786,0.00595093,0.00993347,-0.0015564
61,1436899623806,0.0112915,0.00886536,-0.000488281
62,1436899623826,0.0166321,0.00566101,0.00592041
63,1436899623845,0.000610352,0.0131378,0.00698853
64,1436899623868,-0.00579834,0.00352478,0.000579834
65,1436899623886,0.0177002,0.00352478,-0.00369263
66,1436899623905,0.0305176,0.015274,-0.00369263
67,1436899623925,0.0230408,0.0110016,-0.00262451
68,1436899623944,0.0102234,0.00566101,-0.0101013
69,1436899623967,0.00701904,0.00566101,-0.00689697
70,1436899623984,0.0198364,0.0110016,0.00164795
71,1436899624004,0.025177,0.0163422,-0.000488281
72,1436899624024,0.0294495,0.023819,-0.00369263
73,1436899624044,0.0422668,0.0270233,0.00698853
74,1436899624064,0.0486755,0.0174103,0.00805664
75,1436899624084,0.0411987,0.0120697,0.00805664
76,1436899624104,0.0369263,0.00245666,0.011261
77,1436899624123,0.0326538,0.00352478,0.00698853
78,1436899624143,0.0326538,0.00672913,0.00912476
79,1436899624164,0.0337219,0.0131378,0.00592041
80,1436899624183,0.0294495,0.00886536,0.011261
81,1436899624202,-0.000457764,0.0045929,0.00698853
82,1436899624222,-0.0100708,0.00566101,0.00592041
83,1436899624242,-0.0143433,0.00352478,0.00698853
84,1436899624446,-0.00579834,-0.00608826,0.00378418
85,1436899624447,-0.0100708,0.000320435,0.0123291
86,1436899624448,-0.0218201,-0.000747681,0.00912476
87,1436899624449,-0.0218201,-0.0146332,-0.000488281
88,1436899624450,-0.0228882,-0.00395203,-0.00796509
89,1436899624451,-0.00366211,-0.0018158,0.00164795
90,1436899624452,-0.0175476,-0.0114288,0.0123291
91,1436899624453,-0.0495911,-0.0135651,0.0101929
92,1436899624454,-0.0421143,-0.0124969,0.0101929
93,1436899624455,-0.0196838,-0.0114288,0.00164795
94,1436899624462,-0.0132751,0.00352478,0.00271606
95,1436899624480,-0.0314331,-0.00288391,-0.0015564
96,1436899624499,-0.0335693,-0.0135651,-0.00369263
97,1436899624519,-0.0260925,-0.0157013,-0.000488281
98,1436899624540,-0.0282288,-0.0199738,-0.00262451
99,1436899624558,-0.0292969,-0.0210419,-0.00369263
100,1436899624577,-0.030365,-0.00502014,-0.00796509
101,1436899624601,-0.0218201,-0.000747681,0.00164795
102,1436899624617,-0.0421143,-0.00395203,0.011261
103,1436899624638,-0.0624084,0.00138855,0.0155334
104,1436899624658,-0.0442505,0.00138855,0.0133972
105,1436899624678,-0.0111389,-0.000747681,0.00592041
106,1436899624700,0.00701904,0.00993347,0.00912476
107,1436899624716,-0.0111389,0.00138855,0.00271606
108,1436899624737,-0.00579834,-0.0124969,-0.00796509
109,1436899624756,0.00488281,-0.00715637,-0.01651
110,1436899624776,0.0219727,-0.000747681,-0.00796509
111,1436899624798,0.00808716,-0.0167694,-0.01651
112,1436899624816,-0.0100708,-0.0167694,-0.0111694
113,1436899624836,-0.0100708,-0.00608826,-0.00582886
114,1436899624856,0.0102234,-0.0092926,0.000579834
115,1436899624875,0.00488281,0.00138855,-0.00262451
116,1436899624895,0.0038147,0.00886536,-0.0015564
117,1436899624915,0.0305176,0.000320435,0.000579834
118,1436899624934,0.0102234,-0.000747681,-0.00262451
119,1436899624954,-0.00259399,-0.00288391,0.00271606
120,1436899624974,-0.000457764,-0.0018158,0.000579834
121,1436899624995,0.0283813,0.00138855,0.00271606
122,1436899625023,0.03479,0.00352478,0.00164795
123,1436899625032,0.015564,0.00672913,0.00271606
124,1436899625053,0.00167847,0.00672913,0.00164795
125,1436899625073,0.00595093,-0.000747681,0.00378418
126,1436899625094,0.0198364,-0.00715637,0.000579834
127,1436899625113,0.0187683,-0.0018158,0.00592041
128,1436899625133,0.00488281,0.0142059,0.0155334
129,1436899625152,0.00274658,-0.0018158,0.00912476
130,1436899625172,0.0123596,-0.0242462,-0.00796509
131,1436899625193,0.0123596,-0.0167694,-0.0143738
132,1436899625211,0.0177002,-0.0167694,-0.0101013
133,1436899625232,-0.00473022,-0.0210419,-0.00582886
134,1436899625251,-0.0538635,-0.02211,-0.0090332
135,1436899625271,-0.0624084,-0.0242462,-0.00796509
136,1436899625291,-0.0549316,-0.0285187,-0.00582886
137,1436899625311,-0.0325012,-0.0135651,-0.00369263
138,1436899625331,-0.0260925,-0.0178375,-0.00262451
139,1436899625350,-0.0271606,-0.0146332,0.00698853
140,1436899625370,-0.0367737,-0.00288391,0.00698853
141,1436899625392,-0.0196838,-0.00822449,0.00912476
142,1436899625410,-0.0239563,-0.0146332,0.00271606
143,1436899625430,0.0038147,-0.000747681,-0.00476074
144,1436899625449,0.0422668,-0.00608826,0.00912476
145,1436899625469,0.0123596,-0.00822449,0.011261
146,1436899625490,-0.020752,0.00352478,-0.00262451
147,1436899625509,0.00915527,0.0045929,0.00271606
148,1436899625528,0.0102234,0.000320435,0.00698853
149,1436899625548,-0.0164795,0.00672913,-0.00369263
150,1436899625567,-0.00686645,-0.0092926,-0.00369263
151,1436899625591,-0.00259399,-0.0018158,-0.00582886
152,1436899625608,-0.0357056,0.00352478,-0.00689697
153,1436899625627,-0.0527954,-0.00502014,-0.00262451
154,1436899625647,-0.0335693,-0.0157013,-0.00262451
155,1436899625667,0.00701904,-0.00502014,0.00592041
156,1436899625689,0.0337219,0.00245666,0.00805664
157,1436899625708,0.0305176,0.0045929,0.0048523
158,1436899625726,0.0294495,0.00352478,-0.00262451
159,1436899625747,0.0273132,-0.0018158,-0.0015564
160,1436899625766,0.0241089,-0.00395203,-0.00582886
161,1436899625784,0.025177,0.00352478,0.0048523
162,1436899625806,0.0166321,0.00138855,0.00592041
163,1436899625828,0.0038147,-0.00395203,0.00912476
164,1436899625844,-0.00473022,0.00245666,0.011261
165,1436899625865,-0.00366211,0.00138855,0.0101929
166,1436899625884,-0.00259399,-0.00395203,0.00805664
167,1436899625905,-0.00152588,-0.000747681,0.000579834
168,1436899625927,0.0134277,0.000320435,0.0048523
169,1436899625944,0.00701904,0.00245666,0.00805664
170,1436899625964,-0.0154114,0.00993347,0.011261
171,1436899625984,-0.0143433,0.015274,0.011261
172,1436899626004,-0.00793457,0.000320435,-0.00262451
173,1436899626024,0.00595093,-0.0189056,-0.0282593
174,1436899626043,0.0144958,-0.0231781,0.00698853
175,1436899626063,-0.012207,-0.0359955,-0.00262451
176,1436899626083,0.000610352,-0.0434723,-0.0197144
177,1436899626103,0.00915527,-0.0381317,0.00271606
178,1436899626123,0.00701904,-0.0285187,-0.00476074
179,1436899626142,0.0230408,-0.0135651,-0.01651
180,1436899626161,0.0294495,-0.0114288,-0.00369263
181,1436899626182,0.00808716,-0.00288391,-0.000488281
182,1436899626201,0.00915527,0.0045929,0.00698853
183,1436899626224,0.0166321,-0.00288391,0.011261
184,1436899626241,-0.00473022,-0.00715637,0.0048523
185,1436899626261,-0.000457764,-0.000747681,-0.00262451
186,1436899626280,0.025177,0.0142059,0.00912476
187,1436899626301,0.0123596,0.0131378,0.00698853
188,1436899626323,-0.00686645,0.00352478,-0.00796509
189,1436899626340,-0.0111389,0.000320435,0.00378418
190,1436899626360,-0.00366211,-0.0018158,0.00164795
191,1436899626380,0.0102234,-0.0018158,0.00378418
192,1436899626400,0.0112915,-0.000747681,0.00698853
193,1436899626422,0.015564,0.000320435,-0.000488281
194,1436899626439,-0.00579834,0.00138855,-0.00582886
195,1436899626459,-0.012207,-0.00502014,-0.00582886
196,1436899626477,-0.0164795,-0.0124969,-0.0122375
197,1436899626499,0.00701904,-0.00822449,-0.0090332
198,1436899626520,0.0294495,0.0045929,-0.00582886
199,1436899626538,0.0326538,0.0045929,-0.00582886
200,1436899626558,0.00167847,0.00352478,-0.0122375
201,1436899626578,-0.00900269,-0.00502014,-0.0111694
202,1436899626597,-0.00686645,-0.00502014,-0.00476074
203,1436899626617,0.0198364,-0.00288391,-0.00262451
204,1436899626637,0.0219727,0.000320435,0.011261
205,1436899626656,-0.0100708,-0.0018158,0.00378418
206,1436899626677,-0.039978,-0.00502014,0.00271606
207,1436899626697,-0.0453186,-0.0114288,-0.00476074
208,1436899626717,-0.0132751,-0.0135651,-0.000488281
209,1436899626735,0.000610352,-0.0018158,-0.000488281
210,1436899626756,0.00915527,0.00352478,0.00164795
211,1436899626775,0.00274658,-0.00502014,0.000579834
212,1436899626794,-0.0260925,-0.0103607,0.000579834
213,1436899626816,-0.0260925,0.00245666,0.00378418
214,1436899626834,0.0123596,-0.0103607,0.00378418
215,1436899626857,0.00915527,-0.0157013,-0.0111694
216,1436899626875,-0.00900269,0.00245666,-0.01651
217,1436899626894,-0.0260925,0.00779724,-0.0090332
218,1436899626914,-0.0645447,-0.0306549,-0.00796509
219,1436899626934,-0.0827026,-0.0691071,0.00164795
220,1436899626953,-0.0848389,-0.0626984,-0.0229187
221,1436899626973,-0.0164795,-0.0626984,0.011261
222,1436899626993,-0.0196838,-0.0424042,0.0176697
223,1436899627013,-0.0239563,-0.0295868,-0.0015564
224,1436899627033,-0.0143433,-0.0178375,0.0166016
225,1436899627053,-0.012207,-0.000747681,0.0251465
226,1436899627073,-0.0196838,0.00886536,0.0272827
227,1436899627092,-0.0463867,0.00886536,0.00805664
228,1436899627111,-0.0239563,0.000320435,0.00271606
229,1436899627132,-0.0186157,0.0131378,0.00378418
230,1436899627151,-0.012207,0.0110016,0.00271606
231,1436899627172,-0.030365,0.0131378,-0.00476074
232,1436899627191,-0.0367737,0.0142059,-0.000488281
233,1436899627211,-0.0367737,0.0110016,0.00698853
234,1436899627232,-0.0314331,0.0131378,0.00592041
235,1436899627251,-0.00579834,-0.00822449,-0.0111694
236,1436899627270,0.0177002,-0.0092926,-0.0143738
237,1436899627290,0.0241089,0.00779724,0.00378418
238,1436899627310,0.0144958,0.0110016,-0.0111694
239,1436899627329,0.00274658,-0.0092926,0.00164795
240,1436899627352,-0.0175476,-0.0114288,-0.00476074
241,1436899627369,0.0112915,-0.00822449,-0.0090332
242,1436899627389,0.0283813,0.00352478,0.0101929
243,1436899627409,0.0219727,0.0259552,0.0133972
244,1436899627428,0.0305176,0.00779724,0.0155334
245,1436899627451,0.0102234,0.00886536,0.0144653
246,1436899627468,0.0038147,0.00352478,0.00912476
247,1436899627488,0.00701904,-0.00502014,0.0155334
248,1436899627508,0.00595093,-0.00715637,0.00912476
249,1436899627528,0.0123596,0.00672913,0.0101929
250,1436899627550,0.0198364,-0.0018158,0.0133972
251,1436899627567,0.0112915,-0.00715637,0.00912476
252,1436899627587,0.0112915,0.00245666,0.0048523
253,1436899627606,0.0123596,0.00352478,0.0123291
254,1436899627627,0.0337219,-0.00608826,0.0155334
255,1436899627649,0.0411987,0.0120697,0.0251465
256,1436899627666,0.03479,0.023819,0.0326233
257,1436899627686,0.0497437,0.000320435,0.0230103
258,1436899627706,0.00595093,-0.0210419,0.00805664
259,1436899627726,0.0134277,-0.00395203,0.0101929
260,1436899627747,0.00701904,-0.0146332,-0.00369263
261,1436899627765,0.00274658,-0.00715637,-0.0133057
262,1436899627784,-0.0100708,-0.0092926,-0.0207825
263,1436899627805,-0.020752,-0.0146332,-0.0229187
264,1436899627825,-0.0132751,-0.000747681,-0.0154419
265,1436899627847,-0.00259399,0.0131378,-0.00582886
266,1436899627864,-0.00793457,0.00672913,-0.0090332
267,1436899627884,0.0038147,0.00779724,-0.00582886
268,1436899627904,0.0294495,0.00886536,-0.00262451
269,1436899627923,0.0422668,0.00352478,-0.00796509
270,1436899627943,0.0444031,0.00779724,-0.000488281
271,1436899627962,0.0476074,0.0174103,0.00698853
272,1436899627985,0.0411987,0.0248871,0.0144653
273,1436899628003,0.0219727,0.0174103,0.0187378
274,1436899628023,0.0198364,0.0120697,0.0155334
275,1436899628042,0.0390625,0.0216827,0.0283508
276,1436899628061,0.03479,0.0366364,0.0347595
277,1436899628084,0.0273132,0.0312958,0.0347595
278,1436899628101,0.0219727,0.0174103,0.0294189
279,1436899628121,-0.00152588,0.00886536,0.011261
280,1436899628141,-0.00259399,0.00245666,0.0198059
281,1436899628161,-0.000457764,-0.00288391,0.0123291
282,1436899628183,0.00167847,-0.00395203,0.0166016
283,1436899628201,-0.0154114,0.000320435,0.0123291
284,1436899628220,-0.0196838,-0.0124969,0.00592041
285,1436899628240,-0.0389099,-0.0114288,0.0048523
286,1436899628260,-0.048523,0.00245666,0.00592041
287,1436899628279,-0.0314331,-0.0135651,0.0101929
288,1436899628300,-0.030365,-0.0167694,0.00164795
289,1436899628319,-0.0474548,-0.0146332,0.00698853
290,1436899628339,-0.0688171,-0.0199738,0.0048523
291,1436899628359,-0.0634766,-0.0231781,0.00698853
292,1436899628380,-0.0421143,-0.0103607,0.011261
293,1436899628399,-0.0218201,-0.0124969,0.0155334
294,1436899628418,-0.0154114,-0.00502014,0.0048523
295,1436899628438,-0.00686645,-0.000747681,0.0101929
296,1436899628458,-0.00366211,-0.0103607,0.00164795
297,1436899628480,0.0112915,-0.0092926,0.00592041
298,1436899628498,0.0123596,0.0142059,0.0176697
299,1436899628517,0.0187683,0.0131378,0.0198059
300,1436899628537,0.0262451,0.00566101,0.0133972
301,1436899628556,0.0230408,0.0110016,0.00698853
302,1436899628579,0.0187683,0.00672913,0.0101929
303,1436899628596,0.0112915,-0.00288391,0.00805664
304,1436899628615,0.0177002,0.000320435,0.0101929
305,1436899628636,0.0379944,0.00779724,0.0187378
306,1436899628656,0.0315857,0.0131378,0.0155334
307,1436899628678,0.0273132,0.023819,0.0230103
308,1436899628695,0.025177,0.0142059,0.0304871
309,1436899628715,0.0283813,0.0142059,0.0315552
310,1436899628734,0.0315857,0.0184784,0.0315552
311,1436899628755,0.0465393,0.0216827,0.0219421
312,1436899628774,0.0422668,0.00672913,0.0123291
313,1436899628795,0.0230408,-0.000747681,-0.00262451
314,1436899628814,0.0166321,-0.000747681,0.00271606
315,1436899628834,0.0134277,-0.000747681,0.0048523
316,1436899628854,0.00595093,-0.000747681,0.00698853
317,1436899628874,-0.0186157,0.00672913,0.00698853
318,1436899628893,-0.0314331,-0.0018158,0.0048523
319,1436899628912,-0.0431824,0.00245666,0.00698853
320,1436899628932,-0.0346375,-0.00288391,0.00912476
321,1436899628953,-0.0292969,-0.00502014,0.00698853
322,1436899628973,-0.00579834,0.000320435,0.00378418
323,1436899628992,0.000610352,-0.000747681,0.0101929
324,1436899629011,-0.0143433,-0.00822449,0.0101929
325,1436899629032,-0.0239563,-0.00822449,0.00698853
326,1436899629051,-0.0196838,-0.0092926,0.00805664
327,1436899629072,-0.000457764,-0.0018158,0.00698853
328,1436899629091,-0.00579834,0.00993347,0.011261
329,1436899629111,-0.0143433,0.00672913,0.00805664
330,1436899629131,-0.0282288,-0.0018158,0.00271606
331,1436899629151,-0.0389099,-0.000747681,0.00164795
332,1436899629170,-0.0292969,0.00566101,0.011261
333,1436899629190,-0.0282288,-0.0018158,0.011261
334,1436899629211,-0.0325012,-0.00822449,0.00271606
335,1436899629229,-0.0239563,-0.00715637,-0.00262451
336,1436899629250,-0.0175476,-0.000747681,-0.0015564
337,1436899629269,-0.0186157,0.0045929,0.000579834
338,1436899629289,0.00167847,0.00566101,0.00164795
339,1436899629310,0.0187683,0.0045929,0.00805664
340,1436899629328,0.0177002,0.00672913,0.00805664
341,1436899629349,0.00915527,0.00886536,0.011261
342,1436899629368,0.000610352,-0.0199738,0.00378418
343,1436899629388,0.000610352,-0.0231781,-0.00796509
344,1436899629409,0.0241089,0.00138855,0.000579834
345,1436899629428,0.0326538,0.00886536,0.0048523
346,1436899629448,0.0112915,0.000320435,-0.00582886
347,1436899629467,-0.00579834,-0.00608826,-0.0122375
348,1436899629489,0.0166321,-0.0114288,-0.00796509
349,1436899629507,0.0294495,-0.0018158,-0.000488281
350,1436899629527,0.0209045,0.00245666,0.000579834
351,1436899629546,0.0123596,-0.0146332,-0.000488281
352,1436899629566,0.00488281,-0.02211,0.00592041
353,1436899629586,-0.0218201,0.00138855,0.00698853
354,1436899629606,-0.0325012,0.0045929,0.00912476
355,1436899629626,-0.0228882,-0.0124969,0.00698853
356,1436899629645,-0.00259399,-0.0124969,0.00912476
357,1436899629665,0.00701904,-0.00395203,0.020874
358,1436899629684,0.0102234,-0.00288391,0.0187378
359,1436899629707,0.0187683,-0.00395203,0.0187378
360,1436899629725,0.0112915,-0.00502014,0.00592041
361,1436899629744,0.0102234,-0.0231781,0.000579834
362,1436899629764,0.0038147,-0.0157013,0.0123291
363,1436899629783,0.000610352,0.00886536,0.0176697
364,1436899629807,0.0102234,-0.00395203,0.0144653
365,1436899629823,0.00595093,-0.000747681,0.0187378
366,1436899629843,-0.00579834,0.00566101,0.0176697
367,1436899629862,-0.000457764,-0.00288391,0.0133972
368,1436899629883,-0.000457764,-0.00395203,0.0123291
369,1436899629905,0.0102234,-0.0092926,0.011261
370,1436899629923,-0.000457764,-0.0210419,0.00912476
371,1436899629942,-0.0228882,-0.0092926,0.0048523
372,1436899629961,-0.020752,-0.000747681,-0.000488281
373,1436899629982,-0.00473022,-0.0114288,-0.00369263
374,1436899630004,-0.000457764,-0.0146332,-0.00369263
375,1436899630022,-0.000457764,-0.00608826,0.0123291
376,1436899630041,-0.020752,0.00138855,0.011261
377,1436899630061,-0.048523,-0.00715637,0.00271606
378,1436899630081,-0.0645447,-0.0157013,-0.00582886
379,1436899630103,-0.0997925,-0.0189056,-0.0175781
380,1436899630121,-0.111542,-0.0274506,-0.01651
381,1436899630140,-0.126495,-0.031723,-0.0143738
382,1436899630160,-0.147858,-0.0391998,-0.0175781
383,1436899630179,-0.178833,-0.0477448,-0.0175781
384,1436899630202,-0.231171,-0.0552216,-0.0101013
385,1436899630220,-0.286713,-0.0626984,0.00378418
386,1436899630239,-0.351868,-0.0562897,-0.0133057
387,1436899630258,-0.325165,-0.115036,0.00164795
388,1436899630278,-0.326233,-0.138535,0.00912476
389,1436899630299,-0.421295,-0.111832,0.0123291
390,1436899630318,-0.454407,-0.153488,0.0240784
391,1436899630341,-0.566559,-0.201553,0.0262146
392,1436899630358,-0.737457,-0.267776,0.0433044
393,1436899630378,-0.896606,-0.304092,0.00271606
394,1436899630397,-1.00983,-0.370316,0.0155334
395,1436899630417,-1.17004,-0.438675,-0.00689697
