id,attr_time,attr_x,attr_y,attr_z
1,1436547648043,0.028099801,0.06078109,0.022296581
2,1436547648057,0.012217305,0.059864793,0.016798794
3,1436547648058,0.004581489,0.026267206,0.021991149
4,1436547648059,0.011301007,0.012217305,0.016798794
5,1436547648078,0.007941248,0.048563786,0.008246681
6,1436547648104,0.007330383,0.067500606,0.005497787
7,1436547648118,0.018936822,0.05131268,0.009773844
8,1436547648139,0.02076942,0.03023783,0.016493361
9,1436547648158,0.01282817,0.04153884,0.014660766
10,1436547648177,0.018936822,0.06078109,0.01740966
11,1436547648197,0.04153884,0.03756821,0.02687807
12,1436547648219,0.02321288,-0.00061086525,0.02687807
13,1436547648238,0.00030543262,0.017104227,0.011301007
14,1436547648258,0.013439035,0.04337143,0.0061086523
15,1436547648278,0.032375857,0.0421497,0.0106901415
16,1436547648298,0.022907447,0.031154128,0.007330383
17,1436547648317,0.0106901415,0.015271631,0.003970624
18,1436547648339,0.0106901415,0.008246681,0.005497787
19,1436547648358,0.02107485,0.026267206,0.01038471
20,1436547648378,0.0290161,0.04734206,0.012217305
21,1436547648396,0.018020526,0.039095376,0.008857546
22,1436547648417,0.015577064,0.03390302,0.008552114
23,1436547648437,0.017715093,0.030848695,0.008857546
24,1436547648460,0.017715093,0.02565634,0.0033597588
25,1436547648478,0.019547688,0.04642576,0.004886922
26,1436547648500,0.03726278,0.052839845,0.018325957
27,1436547648517,0.03390302,0.041233405,0.024129177
28,1436547648546,0.015577064,0.022296581,0.010079277
29,1436547648582,0.01160644,0.0067195175,0.008857546
30,1436547648583,0.0143553335,0.030543262,0.0106901415
31,1436547648597,0.01160644,0.037873644,0.010079277
32,1436547648617,0.0076358155,0.048258353,0.0067195175
33,1436547648637,0.009468411,0.048563786,0.0033597588
34,1436547648657,0.016493361,0.052839845,0.01038471
35,1436547648677,0.026572637,0.06383542,0.013439035
36,1436547648700,0.03390302,0.05131268,0.018936822
37,1436547648720,0.0290161,0.034208454,0.029626964
38,1436547648746,0.038789943,0.03359759,0.023518313
39,1436547648775,0.03604105,0.050701816,0.028405234
40,1436547648777,0.031154128,0.057421334,0.0290161
41,1436547648799,0.028099801,0.028710667,0.028099801
42,1436547648818,0.029321533,0.01863139,0.028405234
43,1436547648837,0.021380283,0.029932396,0.018020526
44,1436547648858,0.016187929,0.055283304,0.013744468
45,1436547648879,0.015271631,0.05955936,0.013133603
46,1436547648897,0.024740042,0.05467244,0.019547688
47,1436547648918,0.024740042,0.03848451,0.011911872
48,1436547648937,0.01863139,0.0421497,0.013133603
49,1436547648957,0.019547688,0.06352998,0.012217305
50,1436547648978,0.014966198,0.05589417,0.011301007
51,1436547648997,0.007941248,0.05467244,0.0106901415
52,1436547649017,0.014660766,0.056199603,0.015577064
53,1436547649038,0.026267206,0.011911872,0.020158553
54,1436547649057,0.004276057,-0.015577064,0.01038471
55,1436547649078,-0.018020526,0.04550946,-0.01160644
56,1436547649097,0.010079277,0.12736541,-0.002443461
57,1436547649117,0.030543262,0.071776666,0.02076942
58,1436547649137,0.003970624,-0.01985312,0.013744468
59,1436547649157,-0.0061086523,-0.006414085,0.00580322
60,1436547649178,0.0,0.04734206,0.009468411
61,1436547649199,0.015882496,0.07513642,0.0125227375
62,1436547649218,0.017715093,0.048563786,0.007330383
63,1436547649238,0.013744468,0.038789943,0.0030543262
64,1436547649258,0.022296581,0.049785517,0.0070249503
65,1436547649278,0.018020526,0.060170226,0.008857546
66,1436547649298,0.005192355,0.048563786,0.01038471
67,1436547649317,0.008246681,0.060170226,0.0070249503
68,1436547649339,0.010995574,0.07696902,0.00030543262
69,1436547649359,0.007941248,0.05681047,-0.0021380284
70,1436547649378,0.004276057,0.058948494,-0.008857546
71,1436547649398,0.0067195175,0.09040806,-0.005192355
72,1436547649417,0.0143553335,0.08979719,0.005192355
73,1436547649437,0.018020526,0.084910266,0.0061086523
74,1436547649457,0.011301007,0.076358154,0.003970624
75,1436547649477,0.008552114,0.06811147,0.0061086523
76,1436547649497,0.02321288,0.07696902,0.002443461
77,1436547649518,0.022907447,0.0870483,0.01160644
78,1436547649539,0.016798794,0.07727446,0.014049901
79,1436547649558,0.0143553335,0.053145275,0.008246681
80,1436547649578,0.01282817,0.044593163,0.013744468
81,1436547649599,0.016493361,0.054367006,0.0143553335
82,1436547649618,0.015577064,0.0720821,0.008552114
83,1436547649639,0.012217305,0.07391469,0.009468411
84,1436547649660,0.02321288,0.0693332,0.012217305
85,1436547649681,0.03481932,0.064751714,0.014966198
86,1436547649700,0.02687807,0.07880162,0.018325957
87,1436547649719,0.014966198,0.079107046,0.015577064
88,1436547649738,0.00580322,0.06505715,0.009773844
89,1436547649759,0.009162978,0.043676864,0.004886922
90,1436547649784,0.019547688,0.06169739,0.01038471
91,1436547649798,0.025961773,0.07086037,0.013439035
92,1436547649819,0.008246681,0.04734206,0.01282817
93,1436547649839,-0.002443461,0.047036625,0.006414085
94,1436547649860,0.008246681,0.06963864,0.00580322
95,1436547649880,0.03145956,0.050701816,0.0143553335
96,1436547649898,0.03756821,0.022296581,0.006414085
97,1436547649920,0.0027488936,0.06688975,-0.008552114
98,1436547649941,0.0030543262,0.12675454,-0.012217305
99,1436547649971,0.021685716,0.087964594,-0.0061086523
100,1436547649989,0.01282817,0.029932396,-0.004581489
101,1436547649998,-0.008552114,0.025961773,-0.018936822
102,1436547650019,-0.024129177,0.07513642,-0.020158553
103,1436547650056,-0.02107485,0.0888809,-0.01740966
104,1436547650139,-0.004886922,0.064446285,-0.015882496
105,1436547650140,-0.0067195175,0.058948494,-0.024740042
106,1436547650141,-0.006414085,0.06719518,-0.019242255
107,1436547650142,-0.017104227,0.083383106,-0.028710667
108,1436547650143,-0.020463986,0.076358154,-0.021685716
109,1436547650161,-0.029321533,0.06963864,-0.01740966
110,1436547650183,-0.02443461,0.06414085,-0.01985312
111,1436547650199,-0.02321288,0.0580322,-0.021380283
112,1436547650218,-0.035124753,0.070554934,-0.029932396
113,1436547650239,-0.03145956,0.07574729,-0.033292156
114,1436547650259,-0.023518313,0.0729984,-0.027488936
115,1436547650280,-0.012217305,0.06078109,-0.015577064
116,1436547650299,-0.018020526,0.05497787,-0.019242255
117,1436547650319,-0.030543262,0.080634214,-0.029626964
118,1436547650341,-0.03390302,0.09621128,-0.031154128
119,1436547650359,-0.029321533,0.089186326,-0.025350908
120,1436547650379,-0.012217305,0.0720821,-0.019547688
121,1436547650399,-0.0021380284,0.07574729,-0.0106901415
122,1436547650421,-0.009773844,0.08552113,-0.009162978
123,1436547650442,-0.0125227375,0.07544186,-0.0076358155
124,1436547650462,-0.0015271631,0.062308256,-0.0036651916
125,1436547650481,0.008857546,0.06383542,0.0009162979
126,1436547650499,0.008246681,0.064751714,0.005497787
127,1436547650519,0.012217305,0.07238753,0.004581489
128,1436547650540,0.006414085,0.073303826,0.003970624
129,1436547650559,0.011911872,0.06658431,0.002443461
130,1436547650581,0.01985312,0.07819075,0.0021380284
131,1436547650600,0.021685716,0.09407325,0.0061086523
132,1436547650619,0.03390302,0.08674286,0.010079277
133,1436547650640,0.016798794,0.058337633,0.004886922
134,1436547650666,0.00580322,0.06841691,0.002443461
135,1436547650684,0.01740966,0.08124508,0.004886922
136,1436547650701,0.045814894,0.058948494,0.02076942
137,1436547650719,0.03390302,0.026572637,0.022602014
138,1436547650739,-0.008552114,0.040011674,0.011911872
139,1436547650760,0.0012217305,0.058337633,0.0076358155
140,1436547650780,0.03634648,0.039095376,0.01038471
141,1436547650801,0.04062254,0.02321288,0.017104227
142,1436547650868,0.0070249503,0.03726278,0.008552114
143,1436547650869,0.0027488936,0.041233405,0.009468411
144,1436547650870,0.021380283,0.027488936,0.0125227375
145,1436547650879,0.03848451,0.020463986,0.01863139
146,1436547650905,0.025961773,0.0290161,0.014049901
147,1436547650921,0.02076942,0.04550946,0.014660766
148,1436547650941,0.028710667,0.042760566,0.02107485
149,1436547650963,0.023518313,0.004581489,0.02321288
150,1436547650981,0.014049901,-0.0027488936,0.014660766
151,1436547651000,0.023518313,0.022602014,0.018936822
152,1436547651021,0.034208454,0.025350908,0.023823744
153,1436547651039,0.030543262,0.026267206,0.021991149
154,1436547651063,0.029321533,0.02076942,0.019547688
155,1436547651081,0.03176499,0.0076358155,0.025350908
156,1436547651099,0.035124753,0.0036651916,0.025350908
157,1436547651120,0.03390302,0.020463986,0.021685716
158,1436547651142,0.030848695,0.032375857,0.019242255
159,1436547651163,0.03145956,0.021991149,0.018020526
160,1436547651182,0.032070424,-0.0009162979,0.019242255
161,1436547651202,0.03023783,-0.0012217305,0.018936822
162,1436547651222,0.029626964,0.01282817,0.019242255
163,1436547651243,0.035124753,0.028099801,0.022602014
164,1436547651262,0.03848451,0.028099801,0.025045475
165,1436547651285,0.03573562,0.008246681,0.023823744
166,1436547651303,0.034208454,-0.002443461,0.01985312
167,1436547651324,0.03726278,0.014660766,0.023518313
168,1436547651340,0.04184427,0.032986723,0.022907447
169,1436547651360,0.038789943,0.037873644,0.02076942
170,1436547651383,0.03756821,0.02107485,0.020158553
171,1436547651400,0.04734206,-0.008857546,0.023823744
172,1436547651419,0.045814894,-0.004581489,0.026572637
173,1436547651440,0.021685716,0.04428773,0.02076942
174,1436547651460,0.01985312,0.07360926,0.008246681
175,1436547651485,0.040317107,0.025350908,0.023823744
176,1436547651506,0.049480084,-0.021685716,0.028710667
177,1436547651523,0.026572637,-0.0106901415,0.022602014
178,1436547651543,0.02076942,0.051618114,0.014660766
179,1436547651654,0.03726278,0.06169739,0.01863139
180,1436547651655,0.03970624,0.016798794,0.013744468
181,1436547651656,0.035124753,-0.004276057,0.010995574
182,1436547651657,0.023518313,0.0,0.014049901
183,1436547651658,0.016493361,0.038179077,0.0143553335
184,1436547651687,0.023823744,0.05497787,0.011911872
185,1436547651688,0.03390302,0.05375614,0.010079277
186,1436547651700,0.034513887,0.032070424,0.017715093
187,1436547651720,0.041233405,0.013439035,0.020463986
188,1436547651740,0.034513887,0.004886922,0.015882496
189,1436547651760,0.021380283,0.032375857,0.010995574
190,1436547651795,0.02076942,0.048258353,0.021380283
191,1436547651800,0.026572637,0.016187929,0.015271631
192,1436547651823,0.022296581,-0.0027488936,0.0125227375
193,1436547651843,0.018936822,0.02443461,0.006414085
194,1436547651861,0.0125227375,0.062002823,0.009468411
195,1436547651880,0.017715093,0.08460484,0.013439035
196,1436547651902,0.028405234,0.058948494,0.017715093
197,1436547651923,0.024740042,0.022296581,0.024129177
198,1436547651943,0.031154128,-0.0009162979,0.020463986
199,1436547651964,0.03756821,0.015882496,0.019242255
200,1436547651983,0.028710667,0.0571159,0.017104227
201,1436547652004,0.017104227,0.049480084,0.021380283
202,1436547652023,0.02565634,0.018936822,0.02107485
203,1436547652042,0.03726278,0.01985312,0.026572637
204,1436547652079,0.029626964,0.026572637,0.033292156
205,1436547652080,0.028099801,0.03634648,0.030543262
206,1436547652101,0.03023783,0.054061573,0.02076942
207,1436547652122,0.035124753,0.051618114,0.02321288
208,1436547652141,0.042760566,0.025961773,0.029932396
209,1436547652160,0.04337143,0.0070249503,0.027794369
210,1436547652184,0.020463986,0.048563786,0.014966198
211,1436547652203,0.0036651916,0.09040806,0.006414085
212,1436547652222,0.017715093,0.061391957,0.015577064
213,1436547652240,0.058337633,-0.021991149,0.030543262
214,1436547652260,0.05955936,-0.027183503,0.034513887
215,1436547652281,0.05100725,0.042760566,0.04550946
216,1436547652300,0.07391469,0.034208454,0.06169739
217,1436547652320,0.10934488,-0.025961773,0.0870483
218,1436547652340,0.110872045,-0.074830994,0.108123146
219,1436547652377,0.10476339,-0.08155051,0.119729586
220,1436547652388,0.10781772,-0.09560041,0.13164146
221,1436547652401,0.1020145,-0.09468412,0.1282817
222,1436547652422,0.09712757,-0.06688975,0.109650314
223,1436547652441,0.116675265,-0.047036625,0.10354166
224,1436547652464,0.13897185,-0.06352998,0.119729586
225,1436547652481,0.14569137,-0.11148291,0.12156218
226,1436547652514,0.15974127,-0.124311075,0.12675454
227,1436547652521,0.16982053,-0.092240654,0.11453723
228,1436547652541,0.19914207,-0.082161374,0.12797627
229,1436547652572,0.23732115,-0.1469131,0.16157386
230,1436547652583,0.29932398,-0.21991149,0.20708331
231,1436547652601,0.33261612,-0.31856623,0.22815818
232,1436547652623,0.33536503,-0.38545597,0.22296582
233,1436547652641,0.3359759,-0.3894266,0.2049453
234,1436547652663,0.35185838,-0.40133846,0.19700404
235,1436547652682,0.35979962,-0.47036624,0.18081611
236,1436547652702,0.3213151,-0.569021,0.14446963
237,1436547652721,0.27214047,-0.5589417,0.06994407
238,1436547652744,0.25167647,-0.52412236,0.02076942
239,1436547652764,0.2773328,-0.54458636,0.047036625
240,1436547652785,0.3567453,-0.57757306,0.119729586
241,1436547652802,0.37751472,-0.5360342,0.15943582
242,1436547652824,0.18173242,-0.3747658,0.08032878
243,1436547652844,-0.049480084,-0.20647246,-0.0125227375
244,1436547652866,-0.26511553,-0.12736541,-0.07452556
245,1436547652883,-0.26816985,-0.07727446,-0.09407325
246,1436547652902,-0.1328632,-0.11178834,-0.055283304
247,1436547652921,-0.05681047,-0.15882497,-0.026572637
248,1436547652943,-0.018020526,-0.18967366,0.0030543262
249,1436547652964,-0.05100725,-0.22296582,-0.007941248
250,1436547652983,-0.2144137,-0.16798794,-0.06872234
251,1436547653003,-0.419359,-0.008246681,-0.13500121
252,1436547653023,-0.5018258,0.20555615,-0.15271631
253,1436547653045,-0.45265114,0.3100141,-0.10934488
254,1436547653064,-0.31031954,0.37110063,0.016798794
255,1436547653134,-0.19883664,0.45662177,0.106595986
256,1436547653135,-0.17195857,0.48716503,0.07819075
257,1436547653136,-0.16249016,0.39095375,0.03268129
258,1436547653145,-0.16920967,0.19792034,-0.0012217305
259,1436547653164,-0.22815818,-0.03481932,-0.027488936
260,1436547653186,-0.19150625,-0.28619036,0.040927973
261,1436547653201,-0.07147124,-0.45631635,0.08093964
262,1436547653221,0.087964594,-0.47494772,0.12614368
263,1436547653243,0.06261369,-0.19333886,0.069027774
264,1436547653263,-0.1826487,0.20097467,-0.06872234
265,1436547653283,-0.34208453,0.35308012,-0.090713486
266,1436547653303,-0.20830505,0.410196,-0.04062254
267,1436547653321,0.11911872,0.40622538,0.038789943
268,1436547653342,0.17623462,0.21624629,0.12492194
269,1436547653365,0.07147124,-0.21655174,0.18020524
270,1436547653384,0.028099801,-0.5708536,0.183565
271,1436547653405,0.053145275,-0.5543602,0.10598512
272,1436547653425,0.06078109,-0.22143865,-0.009773844
273,1436547653445,-0.01985312,0.27947086,-0.08552113
274,1436547653465,-0.09101892,0.6545421,-0.1151481
275,1436547653483,-0.0067195175,0.73548174,-0.11881329
276,1436547653503,0.13255776,0.72173727,-0.10934488
277,1436547653521,0.12522738,0.58459806,-0.10262536
278,1436547653543,0.08124508,0.3811799,-0.083383106
279,1436547653567,0.08735373,0.32925636,-0.08552113
280,1436547653586,0.11911872,0.37995818,-0.06078109
281,1436547653608,0.10567969,0.37110063,0.005497787
282,1436547653626,0.065973446,0.19853121,0.0720821
283,1436547653654,0.050701816,0.080634214,0.06047566
284,1436547653665,0.039095376,0.1133155,0.014660766
285,1436547653689,0.05955936,0.18448131,0.0143553335
286,1436547653746,0.07696902,0.13591751,0.038789943
287,1436547653747,0.07086037,0.07849618,0.06627888
288,1436547653748,0.062002823,0.062002823,0.0888809
289,1436547653766,0.054367006,0.024129177,0.12064589
290,1436547653782,0.03268129,-0.098043874,0.16187929
291,1436547653802,0.0033597588,-0.22388211,0.18875736
292,1436547653854,-0.036651913,-0.28955013,0.204029
293,1436547653855,-0.11881329,-0.3109304,0.20158553
294,1436547653868,-0.1740966,-0.28313604,0.17073683
295,1436547653882,-0.16126843,-0.24587326,0.15668693
296,1436547653902,-0.14080444,-0.26053402,0.16340645
297,1436547654073,-0.14385876,-0.32711834,0.15699236
298,1436547654074,-0.17348573,-0.37690386,0.14508049
299,1436547654075,-0.2012801,-0.38056904,0.12644911
300,1436547654076,-0.183565,-0.27122417,0.11362094
301,1436547654077,-0.17073683,-0.102319926,0.11484267
302,1436547654078,-0.15271631,-0.032986723,0.12217305
303,1436547654079,-0.15393804,-0.113926366,0.1414153
304,1436547654080,-0.14966199,-0.27122417,0.14355333
305,1436547654091,-0.08674286,-0.29779682,0.13713925
306,1436547654109,-0.0027488936,-0.15974127,0.13347405
307,1436547654123,0.10995574,-0.07788532,0.1282817
308,1436547654142,0.13103059,-0.09285152,0.13622294
309,1436547654163,0.09193522,-0.036651913,0.09040806
310,1436547654186,0.058643065,0.14905111,0.05222898
311,1436547654206,0.013133603,0.1863139,0.09132435
312,1436547654227,-0.03359759,-0.03268129,0.2098322
313,1436547654243,-0.04428773,-0.30665436,0.2751948
314,1436547654265,0.002443461,-0.3640757,0.17715092
315,1436547654283,0.059253927,-0.17379116,0.03268129
316,1436547654302,0.11911872,0.054367006,-0.083383106
317,1436547654323,0.12339478,0.29779682,-0.087659165
318,1436547654346,0.040011674,0.34330627,-0.06688975
319,1436547654364,-0.032070424,0.2144137,-0.096516706
320,1436547654383,-0.057726767,0.10445796,-0.17287487
321,1436547654403,-0.02443461,0.12492194,-0.21227567
322,1436547654425,-0.014049901,0.26053402,-0.23426682
323,1436547654444,-0.03359759,0.30024028,-0.2180789
324,1436547654462,-0.04886922,0.21135938,-0.18692477
325,1436547654483,-0.058337633,0.10445796,-0.16462818
326,1436547654505,-0.036651913,0.028710667,-0.17623462
327,1436547654526,-0.020463986,0.084910266,-0.1908954
328,1436547654541,0.0009162979,0.2180789,-0.19822577
329,1436547654563,0.036957346,0.28130344,-0.20005837
330,1436547654582,0.056505036,0.25778514,-0.15790866
331,1436547654605,0.0729984,0.1957823,-0.1133155
332,1436547654623,0.07971791,0.10567969,-0.093462385
333,1436547654644,0.0888809,0.07452556,-0.08032878
334,1436547654664,0.109650314,0.10751228,-0.07391469
335,1436547654685,0.11636983,0.14049901,-0.06078109
336,1436547654704,0.105068825,0.122478485,-0.053145275
337,1436547654723,0.093462385,0.05131268,-0.047036625
338,1436547654743,0.073303826,0.014049901,-0.034513887
339,1436547654765,0.054061573,0.004276057,-0.026267206
340,1436547654786,0.050701816,0.013744468,-0.014966198
341,1436547654806,0.07513642,0.0033597588,0.007941248
342,1436547654826,0.093767814,-0.019547688,0.021991149
343,1436547654845,0.099571034,-0.045814894,0.03726278
344,1436547654865,0.084910266,-0.060170226,0.046120327
345,1436547654886,0.074830994,-0.057421334,0.04795292
346,1436547654904,0.07788532,-0.034513887,0.049480084
347,1436547654923,0.087659165,-0.017104227,0.056505036
348,1436547654945,0.0983493,-0.03268129,0.0580322
349,1436547654965,0.09010262,-0.080634214,0.052534413
350,1436547654986,0.07788532,-0.049785517,0.04062254
351,1436547655007,0.07513642,0.0571159,0.033292156
352,1436547655028,0.073303826,0.056199603,0.030543262
353,1436547655047,0.08032878,-0.081855945,0.043676864
354,1436547655066,0.092240654,-0.1386664,0.027794369
355,1436547655085,0.10354166,-0.022602014,0.013133603
356,1436547655105,0.115453534,0.064751714,0.03481932
357,1436547655123,0.10293079,0.022907447,0.04642576
358,1436547655188,0.0711658,-0.07849618,0.03359759
359,1436547655191,0.056505036,-0.047036625,0.02321288
360,1436547655192,0.050701816,0.028099801,0.02107485
361,1436547655208,0.02687807,0.057726767,0.02321288
362,1436547655224,0.016493361,0.059864793,0.02107485
363,1436547655249,0.027488936,0.048258353,0.03848451
364,1436547655265,0.04153884,0.03481932,0.04428773
365,1436547655284,0.04337143,0.022602014,0.03848451
366,1436547655306,0.020158553,0.022602014,0.020158553
367,1436547655327,0.008552114,0.04917465,0.0061086523
368,1436547655348,0.021991149,0.07086037,0.0015271631
369,1436547655370,0.024129177,0.06688975,0.00580322
370,1436547655385,0.009162978,0.050701816,0.012217305
371,1436547655404,0.0033597588,0.015882496,0.015271631
372,1436547655424,-0.0125227375,0.006414085,0.004886922
373,1436547655443,-0.022602014,0.01863139,-0.0018325958
374,1436547655465,-0.0290161,0.018325957,-0.016493361
375,1436547655486,-0.03023783,-0.004581489,-0.02107485
376,1436547655507,-0.044898596,-0.004581489,-0.024129177
