id,attr_time,attr_x,attr_y,attr_z
1,1436281856004,-1.2629414,10.020332,1.2563573
2,1436281856011,-1.3311762,10.013748,1.1779473
3,1436281856033,-1.3976152,10.06283,1.1450269
4,1436281856059,-1.388637,10.09994,1.127669
5,1436281856071,-1.3359646,10.101735,1.1671734
6,1436281856095,-1.3623008,10.107122,1.1552023
7,1436281856113,-1.453879,10.104729,1.0594343
8,1436281856133,-1.477821,10.02572,1.1468226
9,1436281856149,-1.3634979,9.99639,1.1659763
10,1436281856173,-1.3377602,9.983821,1.1833342
11,1436281856194,-1.2850877,10.003573,1.22224
12,1436281856233,-1.2611457,10.052654,1.2066777
13,1436281856234,-1.2318168,10.053851,1.2318168
14,1436281856249,-1.2354081,10.071808,1.216853
15,1436281856269,-1.1917139,10.056246,1.216853
16,1436281856292,-1.174356,10.095152,1.2282255
17,1436281856309,-1.2204443,10.132261,1.198298
18,1436281856333,-1.4155718,10.117298,1.1528081
19,1436281856354,-1.5370775,10.067019,1.2174516
20,1436281856372,-1.4580688,9.980229,1.192911
21,1436281856393,-1.2749124,9.964667,1.1480197
22,1436281856418,-1.198298,10.018537,1.0833763
23,1436281856435,-1.2575544,10.089166,1.0815806
24,1436281856454,-1.2761095,10.0987425,1.1563994
25,1436281856476,-1.2934675,10.107122,1.2312182
26,1436281856494,-1.3084313,10.11251,1.2024878
27,1436281856514,-1.2599486,10.129269,1.1941081
28,1436281856534,-1.2425907,10.101137,1.1719618
29,1436281856554,-1.3036429,10.092757,1.2455834
30,1436281856577,-1.3066356,10.029311,1.299453
31,1436281856601,-1.3150153,10.031107,1.2372037
32,1436281856612,-1.335366,10.064626,1.1522095
33,1436281856631,-1.3090298,10.064027,1.163582
34,1436281856655,-1.3227965,10.073005,1.1665748
35,1436281856678,-1.3138182,10.073604,1.1947067
36,1436281856691,-1.2970588,10.029909,1.234211
37,1436281856716,-1.2964603,10.028113,1.1839328
38,1436281856754,-1.3257892,10.061633,1.1432313
39,1436281856755,-1.2880806,10.1143055,1.1707647
40,1436281856773,-1.2366052,10.090961,1.2264298
41,1436281856796,-1.2976574,10.027515,1.2354081
42,1436281856854,-1.3605051,10.038888,1.192911
43,1436281856855,-1.3670892,10.053253,1.192911
44,1436281856856,-1.3275849,10.092757,1.1917139
45,1436281856873,-1.2898762,10.088568,1.2078748
46,1436281856893,-1.2599486,10.092158,1.1947067
47,1436281856913,-1.2419921,10.103531,1.1797429
48,1436281856932,-1.3515269,10.072407,1.1683705
49,1436281856952,-1.3742718,10.063428,1.2150574
50,1436281856973,-1.2515689,9.998186,1.2395979
51,1436281856992,-1.1264719,9.998186,1.234211
52,1436281857017,-1.1599907,10.101137,1.1546037
53,1436281857032,-1.2413936,10.135254,1.115698
54,1436281857054,-1.2802993,10.108319,1.1845313
55,1436281857078,-1.3162124,10.051457,1.2611457
56,1436281857094,-1.2976574,10.061034,1.192911
57,1436281857111,-1.2264298,10.086772,1.1240777
58,1436281857134,-1.1755531,10.114903,1.1468226
59,1436281857154,-1.0839748,10.114903,1.335366
60,1436281857175,-1.0061632,10.070012,1.3102269
61,1436281857195,-1.1815386,10.060435,1.1390414
62,1436281857214,-1.4568717,10.014946,1.1121067
63,1436281857236,-1.5095441,10.023924,1.1540052
64,1436281857254,-1.3790601,10.039486,1.2294226
65,1436281857273,-1.3072342,10.06283,1.1713632
66,1436281857291,-1.3066356,10.068815,1.1563994
67,1436281857313,-1.287482,10.088568,1.1575965
68,1436281857332,-1.2611457,10.089765,1.1665748
69,1436281857354,-1.3000516,10.056246,1.1725603
70,1436281857375,-1.3198037,10.055647,1.174356
71,1436281857394,-1.3084313,10.061633,1.158195
72,1436281857415,-1.316811,10.052654,1.1737574
73,1436281857436,-1.2880806,10.045472,1.1893197
74,1436281857453,-1.2473791,10.068216,1.1695676
75,1436281857508,-1.2826935,10.088568,1.186327
76,1436281857518,-1.2282255,10.074203,1.2234371
77,1436281857519,-1.1965023,10.102933,1.1994951
78,1436281857539,-1.3509283,10.073604,1.1312603
79,1436281857553,-1.4502877,10.075998,1.2114661
80,1436281857573,-1.3563153,10.047866,1.2060791
81,1436281857597,-1.1336545,10.014347,1.1923125
82,1436281857613,-1.1456255,10.072407,1.1025299
83,1436281857632,-1.2922704,10.081984,1.0708067
84,1436281857652,-1.3623008,10.06283,1.1534066
85,1436281857675,-1.365892,10.050261,1.2132617
86,1436281857693,-1.3245921,10.087969,1.1719618
87,1436281857716,-1.2437878,10.136452,1.1324574
88,1436281857742,-1.1994951,10.105327,1.1540052
89,1436281857752,-1.2246342,10.074203,1.2276269
90,1436281857772,-1.2629414,10.053253,1.2599486
91,1436281857794,-1.2785037,10.039486,1.1988965
92,1436281857812,-1.3060371,10.077793,1.1444284
93,1436281857833,-1.3096284,10.090961,1.134253
94,1436281857856,-1.3006501,10.084976,1.1779473
95,1436281857873,-1.3138182,10.038888,1.1833342
96,1436281857894,-1.3461399,10.020931,1.1324574
97,1436281857916,-1.3383588,10.058042,1.0875661
98,1436281857933,-1.3006501,10.080787,1.1258733
99,1436281857962,-1.283292,10.0664215,1.1647792
100,1436281857974,-1.2545617,10.079589,1.2401965
101,1436281857992,-1.2826935,10.0748005,1.2360066
102,1436281858026,-1.283292,10.07121,1.1569979
103,1436281858061,-1.283292,10.0748005,1.1456255
104,1436281858062,-1.2838906,10.045472,1.1791444
105,1436281858072,-1.2521675,10.077195,1.216853
106,1436281858093,-1.2473791,10.093954,1.1857284
107,1436281858111,-1.2862848,10.113108,1.1623849
108,1436281858141,-1.3784616,10.086173,1.1252748
109,1436281858153,-1.4221559,10.061034,1.1833342
110,1436281858171,-1.2886791,10.009559,1.1881226
111,1436281858192,-1.1270704,10.015544,1.1749545
112,1436281858215,-1.1330559,10.079589,1.1366472
113,1436281858233,-1.2348095,10.144831,1.1360487
114,1436281858252,-1.3215994,10.107721,1.1959038
115,1436281858274,-1.3401544,10.067618,1.22224
116,1436281858292,-1.2868834,10.073005,1.2108675
117,1436281858312,-1.2425907,10.0825815,1.134253
118,1436281858337,-1.2378023,10.081385,1.1492168
119,1436281858354,-1.234211,10.102334,1.2330139
120,1436281858375,-1.2204443,10.085575,1.2838906
121,1436281858395,-1.228824,10.073005,1.2276269
122,1436281858413,-1.323395,10.068216,1.1252748
123,1436281858433,-1.323395,10.035895,1.1288661
124,1436281858459,-1.2934675,10.040085,1.1240777
125,1436281858473,-1.3215994,10.032304,1.1731589
126,1436281858496,-1.3862427,10.029909,1.1552023
127,1436281858517,-1.365892,10.047267,1.1228806
128,1436281858535,-1.3084313,10.062231,1.1300632
129,1436281858556,-1.264737,10.080188,1.1599907
130,1436281858578,-1.2455834,10.080188,1.1959038
131,1436281858596,-1.2551602,10.086772,1.1971009
132,1436281858626,-1.2988545,10.093954,1.1959038
133,1436281858646,-1.3186066,10.08318,1.1683705
134,1436281858660,-1.3563153,10.0508585,1.1839328
135,1436281858676,-1.3072342,10.069414,1.2144588
136,1436281858695,-1.276708,10.092158,1.1881226
137,1436281858714,-1.3359646,10.086173,1.1246762
138,1436281858781,-1.4323312,10.0664215,1.1528081
139,1436281858782,-1.3724761,10.036493,1.2192472
140,1436281858783,-1.1953052,10.01734,1.1779473
141,1436281858794,-1.1504139,10.043077,1.1348516
142,1436281858814,-1.2348095,10.055647,1.0971429
143,1436281858832,-1.2587515,10.084377,1.1354501
144,1436281858852,-1.3060371,10.104729,1.1803415
145,1436281858878,-1.3257892,10.076596,1.1953052
146,1436281858895,-1.3443443,10.078991,1.1755531
147,1436281858916,-1.3281834,10.084976,1.1204864
148,1436281858937,-1.2952632,10.088568,1.1522095
149,1436281858956,-1.2904748,10.067019,1.1875241
150,1436281858977,-1.2629414,10.044274,1.2018893
151,1436281858997,-1.2934675,10.037092,1.1408371
152,1436281859014,-1.3389573,10.069414,1.1264719
153,1436281859035,-1.3359646,10.058042,1.1486182
154,1436281859057,-1.3461399,10.042479,1.1504139
155,1436281859074,-1.3227965,10.036493,1.1791444
156,1436281859095,-1.3329718,10.053851,1.1324574
157,1436281859118,-1.3401544,10.048465,1.09834
158,1436281859138,-1.3281834,10.019734,1.1228806
159,1436281859153,-1.3072342,10.020332,1.1725603
160,1436281859176,-1.3144168,10.0987425,1.1438298
161,1436281859198,-1.2264298,10.095152,1.1456255
162,1436281859219,-1.0929531,10.062231,1.198298
163,1436281859245,-1.0708067,10.01734,1.1827357
164,1436281859256,-1.0247183,10.031705,1.2132617
165,1436281859273,-1.0307038,10.073604,1.1468226
166,1436281859310,-1.2186487,10.0664215,1.0947487
167,1436281859316,-1.3509283,10.132261,1.1504139
168,1436281859336,-1.4478935,10.209475,1.1773487
169,1436281859355,-1.4688427,10.149021,1.0995371
170,1436281859373,-1.4550761,10.01315,1.0480618
171,1436281859392,-1.3551182,10.014347,1.0720038
172,1436281859414,-1.3036429,10.117298,1.0881647
173,1436281859433,-1.4083891,10.15381,1.0259154
174,1436281859452,-1.4700398,10.102933,1.0995371
175,1436281859476,-1.2880806,10.05445,1.1378443
176,1436281859493,-1.2521675,10.030508,1.186327
177,1436281859517,-1.3215994,10.064027,1.2755109
178,1436281859539,-1.4323312,10.105926,1.3335704
179,1436281859556,-1.3814543,10.174759,1.2114661
180,1436281859576,-1.2030864,9.975441,1.0911574
181,1436281859599,-0.8331822,9.997588,1.4550761
182,1436281859617,-0.4890157,9.93474,1.7950528
183,1436281859649,-0.7206547,9.903017,1.9237411
184,1436281859660,-1.2940661,9.835979,1.5658079
185,1436281859684,-1.7058687,9.837176,1.395221
186,1436281859696,-1.9099745,9.715072,1.5490485
187,1436281859720,-1.8046296,9.660604,2.2056582
188,1436281859741,-1.7316064,9.596559,2.19249
189,1436281859753,-1.8495208,9.603143,1.857302
190,1436281859776,-1.7950528,9.5385,1.821389
191,1436281859794,-1.661576,9.595961,1.7926586
192,1436281859814,-1.6681601,9.612122,1.7471687
193,1436281859836,-1.7770962,9.674969,1.8082209
194,1436281859855,-1.7932571,9.795278,1.7351977
195,1436281859874,-1.6208745,9.822811,1.6346412
196,1436281859902,-1.4000094,9.5732155,1.8219875
197,1436281859917,-1.2354081,9.718663,1.7495629
198,1436281859936,-1.1665748,9.894637,1.4820108
199,1436281859961,-1.3293805,10.068815,1.1288661
200,1436281859981,-1.8656816,10.149619,0.8774749
201,1436281860071,-2.348712,10.1065235,0.878672
202,1436281860072,-2.4007857,10.131064,0.9504981
203,1436281860073,-2.1984756,10.530896,0.78769237
204,1436281860074,-2.0811598,10.965444,0.45968673
205,1436281860081,-1.9674352,11.170747,-0.040102877
206,1436281860093,-1.590947,10.652402,-0.23223756
207,1436281860114,-0.83258367,9.886257,0.17657238
208,1436281860138,-0.30406362,9.557653,0.19871874
209,1436281860160,-0.41060558,9.925761,-0.35793316
210,1436281860173,-0.87687635,10.586561,-0.88166475
211,1436281860195,-0.86370826,10.87207,-0.56682724
212,1436281860213,-0.5177461,10.67814,0.04309563
213,1436281860233,-0.36152446,10.110115,0.43754035
214,1436281860255,-0.6452374,9.663596,0.36272156
215,1436281860273,-1.115698,9.375095,-0.13946225
216,1436281860293,-1.2814964,9.307459,-0.39923313
217,1436281860315,-1.3838485,9.298481,-0.6967127
218,1436281860333,-1.252766,9.498397,-0.7882909
219,1436281860353,-1.0540473,9.589975,-0.75596917
220,1436281860375,-0.7284359,9.560646,-0.5033809
221,1436281860393,-0.5021838,9.546879,-0.22625206
222,1436281860414,-0.1412579,9.3182335,-0.007182605
223,1436281860436,0.14664486,8.851962,0.22445641
224,1436281860457,0.16460137,8.402451,0.44651863
225,1436281860476,-0.21068975,8.030751,0.64942724
226,1436281860498,-0.6811504,7.905654,0.82899237
227,1436281860518,-1.3970166,8.459313,0.39205053
228,1436281860536,-2.111686,9.244612,-0.39983168
229,1436281860557,-2.3660698,9.916783,-0.90620536
230,1436281860577,-2.0416555,9.931747,-0.5093664
231,1436281860598,-1.6986861,9.739014,0.16400282
232,1436281860618,-1.7980455,9.69532,0.50637364
233,1436281860638,-2.1458032,9.77792,0.37828386
234,1436281860740,-2.6276364,9.697714,0.14844051
235,1436281860741,-2.891597,9.078215,0.39324763
236,1436281860742,-2.939481,9.105149,0.65900403
237,1436281860743,-2.7922378,9.862315,0.35673606
238,1436281860744,-2.1218612,10.227431,0.45609543
239,1436281860754,-1.4975731,10.617686,1.5640123
240,1436281860773,-1.4514848,10.781689,2.3948002
241,1436281860794,-1.4359225,11.444284,2.814384
242,1436281860814,-1.54845,12.197261,2.2601264
243,1436281860834,-1.3024458,12.271481,2.0039468
244,1436281860855,-1.0672154,12.710816,2.7395654
245,1436281860878,-1.7723078,14.066533,2.5839422
246,1436281860898,-3.0388405,15.743073,2.211644
247,1436281860918,-3.9558198,15.50904,2.2709002
248,1436281860936,-3.139397,12.748526,3.1902738
249,1436281860957,-2.2625206,9.204509,3.2992098
250,1436281860978,-1.435324,6.619369,2.2972364
251,1436281860997,-1.2336124,4.947019,1.8722657
252,1436281861018,-1.1575965,4.470573,1.8058267
253,1436281861038,-1.2797008,4.250905,1.678934
254,1436281861057,-1.5269021,4.313753,1.8746599
255,1436281861078,-2.0147207,4.4179006,2.100912
256,1436281861099,-2.5019407,4.5938745,1.8800468
257,1436281861116,-2.8341362,4.6261964,1.5562311
258,1436281861136,-2.9550436,4.948815,1.2006922
259,1436281861159,-2.6647465,5.3833623,1.0133458
260,1436281861223,-2.2499511,5.8382607,0.75596917
261,1436281861224,-1.834557,6.657078,0.83018947
262,1436281861225,-1.009156,7.1861963,1.1653777
263,1436281861241,0.05925649,8.00621,2.0248961
264,1436281861254,0.7380127,11.122264,1.6118963
265,1436281861275,0.16579847,15.043367,-0.39264908
266,1436281861296,-0.7009025,17.70991,-1.685518
267,1436281861318,-0.9792285,18.672379,-1.2677298
268,1436281861334,-1.2940661,17.508198,0.23762453
269,1436281861354,-1.8375498,17.122133,1.3455414
270,1436281861374,-3.0735564,17.652449,1.0995371
271,1436281861395,-3.8953662,17.196354,-0.0035913025
272,1436281861415,-2.8568811,15.081077,-0.062249243
273,1436281861437,-1.6490064,12.222999,0.7260417
274,1436281861457,-1.5209166,9.8683,0.85054016
275,1436281861476,-1.804031,8.517971,-0.35194764
276,1436281861499,-1.9608512,7.2286935,-1.1653777
277,1436281861519,-1.5328877,6.271013,-1.0791864
278,1436281861537,-0.81642276,5.8639984,-0.91099375
279,1436281861557,-0.01616086,5.9597664,-0.7978677
280,1436281861579,0.8834604,6.429629,-0.85652566
281,1436281861597,1.3844471,6.7067575,-0.82719666
282,1436281861618,1.5801731,6.865972,-0.31124622
283,1436281861638,1.417966,6.7630215,0.11252748
284,1436281861663,0.8026561,6.9886746,0.037110128
285,1436281861678,0.006584055,7.1867948,0.05207389
286,1436281861724,-1.0013748,7.3106947,-0.059855044
287,1436281861725,-2.1027076,7.8248496,-0.1945289
288,1436281861736,-3.3321302,8.859743,-0.86370826
289,1436281861762,-3.8391025,9.354745,-0.94211835
290,1436281861774,-4.0282445,9.336189,-0.5494693
291,1436281861796,-3.229778,9.467272,0.6242881
292,1436281861816,-2.8083985,10.992378,0.3788824
293,1436281861836,-3.4195185,14.075512,0.047884032
294,1436281861856,-2.6791117,14.841657,2.60968
295,1436281861882,-1.9548657,14.452,3.8792052
296,1436281861899,-2.6024973,13.994109,2.779668
297,1436281861923,-3.4380736,14.988301,2.202067
298,1436281861984,-3.7116113,15.195998,2.6246436
299,1436281861985,-3.0496144,14.314333,3.1112652
300,1436281861986,-1.6849195,13.03583,2.5504234
301,1436281862002,-0.9415198,11.653178,2.167351
302,1436281862017,-1.2132617,10.700286,1.7902644
303,1436281862035,-1.7208325,9.524135,1.4167689
304,1436281862063,-1.8207904,8.672397,1.0594343
305,1436281862075,-1.846528,8.0606785,0.9475053
306,1436281862096,-1.8375498,7.8212585,1.0486604
307,1436281862118,-1.9979613,7.386112,0.9959879
308,1436281862137,-2.1380222,6.654085,1.1707647
309,1436281862159,-2.2140381,5.90889,0.93254155
310,1436281862177,-2.4019828,5.5419784,0.6841431
311,1436281862203,-2.5809495,5.418677,0.95947635
312,1436281862217,-2.7778726,5.446809,1.5951369
313,1436281862238,-2.9017725,6.4128695,1.5286977
314,1436281862256,-2.7257986,7.792528,1.1815386
315,1436281862281,-2.3995886,9.071032,1.0887632
316,1436281862297,-2.3959973,9.123106,1.7310078
317,1436281862316,-2.3523033,8.486847,2.4666264
318,1436281862336,-2.1625626,9.880871,1.9458874
319,1436281862358,-0.9427169,11.101315,1.09834
320,1436281862379,1.3563153,13.153146,1.4730326
321,1436281862403,3.0107086,15.736489,0.45070848
322,1436281862418,3.252523,15.8861265,-0.338181
323,1436281862442,2.8000188,15.531785,0.9355343
324,1436281862457,1.4454993,15.8556,1.4293385
325,1436281862480,-0.36511576,16.485275,0.9947908
326,1436281862499,-1.3904326,16.12854,0.6793547
327,1436281862520,-2.834735,13.611635,0.60094464
328,1436281862541,-2.558803,10.344747,1.3395559
329,1436281862560,-1.6490064,8.168418,1.4915876
330,1436281862581,-0.7433996,7.2568254,0.98461545
331,1436281862632,-0.2861071,6.797737,0.5602432
332,1436281862633,0.008379706,6.22672,0.504578
333,1436281862645,0.47285482,5.907693,0.33518824
334,1436281862664,0.8487445,5.9483943,0.049081136
335,1436281862675,0.9876082,6.427833,-0.12629414
336,1436281862699,0.66858083,6.719327,-0.08439561
337,1436281862720,0.31364042,7.5453267,0.0712275
338,1436281862739,-0.10654198,8.127716,0.3345897
339,1436281862761,-0.43873745,8.732252,0.40462008
340,1436281862778,-1.2054806,9.211691,0.34237084
341,1436281862796,-2.285864,9.791686,0.15502456
342,1436281862816,-2.9514523,9.935339,0.82121116
343,1436281862839,-3.3255463,10.319608,1.8590976
344,1436281862857,-3.4003649,11.795633,2.445677
345,1436281862880,-3.151368,13.341689,2.7030537
346,1436281862900,-3.1597476,14.569915,2.9682117
347,1436281862919,-3.2561142,14.036008,3.927688
348,1436281862939,-2.2583308,13.464392,4.313154
349,1436281862961,-1.1486182,14.021643,3.2962172
350,1436281862979,-1.2234371,15.335461,2.8293478
351,1436281862997,-2.7647045,15.850214,2.7461493
352,1436281863021,-3.945046,13.781025,2.2631192
353,1436281863039,-3.9103298,11.090541,2.3840263
354,1436281863059,-2.9999347,9.446322,2.1440077
355,1436281863079,-1.7190368,8.48146,1.3694834
356,1436281863101,-0.8499416,7.410054,0.82001406
357,1436281863118,-0.55365914,6.6522894,0.52852005
358,1436281863141,-1.4137762,5.4845176,0.6087258
359,1436281863161,-2.4139538,4.7722425,0.9648633
360,1436281863179,-3.1094694,4.736928,1.073201
361,1436281863201,-3.2674868,5.8005524,0.7026982
362,1436281863221,-2.9747956,7.2047515,0.30226797
363,1436281863238,-2.8449101,7.728483,0.2112883
364,1436281863269,-2.5731683,8.239645,0.5363012
365,1436281863308,-2.3127987,8.6095495,0.997185
366,1436281863309,-1.6777369,8.823831,1.3126211
367,1436281863324,-0.45489833,8.845977,1.8106151
368,1436281863336,0.99060094,9.194333,2.3517046
369,1436281863356,2.0805612,10.311827,2.610877
370,1436281863376,2.8149827,11.742961,2.369661
371,1436281863399,3.4368765,13.280038,1.8686744
372,1436281863419,3.6942532,14.595054,1.0552444
373,1436281863446,3.2956185,14.346057,1.6657659
374,1436281863460,2.1452048,13.719375,3.2531216
375,1436281863480,-0.39624038,13.1477585,3.1022868
376,1436281863498,-2.846706,12.682086,2.307412
377,1436281863517,-4.5178585,14.806342,1.1174936
378,1436281863542,-5.647323,17.019182,-0.83258367
379,1436281863561,-4.3047748,13.852253,-0.023343466
380,1436281863580,-2.2002714,9.039309,1.9327193
381,1436281863600,-0.47465047,6.25964,2.0649989
382,1436281863619,0.30585927,5.928642,1.1109096
383,1436281863643,0.3633201,6.6175733,0.25558102
384,1436281863660,0.5189432,7.467515,-0.219668
385,1436281863679,0.7529764,7.650073,-0.0724246
386,1436281863700,0.8499416,7.1287355,0.29807812
387,1436281863720,0.9487024,6.7402763,0.7374141
388,1436281863753,0.70509243,6.96593,0.7679402
389,1436281863768,-0.060453594,7.8068933,0.4225766
390,1436281863780,-0.94211835,8.767567,0.40761283
391,1436281863799,-1.8614918,9.792285,1.0283096
392,1436281863817,-3.1304188,10.168773,1.5574282
393,1436281863837,-3.9923313,9.883863,1.9123687
394,1436281863866,-3.952827,10.079589,1.8956091
395,1436281863931,-3.1346085,9.804854,2.0572178
396,1436281863932,-2.0913353,10.200497,2.7485435
397,1436281863933,-1.6190789,11.22282,2.9029696
398,1436281863940,-1.6280571,11.69388,3.5733461
399,1436281863957,-1.3389573,12.038645,4.221576
400,1436281863978,-1.1791444,12.352285,4.168904
401,1436281863998,-1.0833763,12.946047,3.840898
402,1436281864018,-1.049259,13.381193,4.183269
403,1436281864038,-1.1025299,14.635157,4.457405
404,1436281864058,-1.922544,14.897322,3.8031895
405,1436281864081,-2.6749218,13.502101,3.366846
406,1436281864102,-2.791639,11.256938,2.7778726
407,1436281864118,-2.36188,9.522339,2.1529858
408,1436281864138,-1.9273324,8.511387,1.650802
409,1436281864163,-1.4706384,7.65965,1.3515269
410,1436281864182,-1.1965023,7.052121,1.1492168
411,1436281864215,-1.4185646,6.671443,1.2324153
412,1436281864219,-2.0207062,6.4008985,1.4311341
