id,attr_time,attr_x,attr_y,attr_z
1,1436164600933,0.03023783,0.034513887,0.007330383
2,1436164600952,0.025961773,0.03023783,0.0036651916
3,1436164600972,0.018936822,0.022602014,0.004581489
4,1436164600994,0.01740966,0.021991149,0.005192355
5,1436164601016,0.03573562,0.027794369,0.01282817
6,1436164601033,0.021991149,0.028405234,0.011911872
7,1436164601052,0.022602014,0.01282817,0.01740966
8,1436164601076,0.034513887,0.023518313,0.014660766
9,1436164601097,0.029932396,0.03023783,0.01282817
10,1436164601119,0.016798794,0.016187929,0.01282817
11,1436164601136,0.01038471,0.022296581,0.010995574
12,1436164601157,0.004581489,0.03604105,0.009773844
13,1436164601176,0.004276057,0.03359759,0.008552114
14,1436164601197,0.0009162979,0.035124753,0.0070249503
15,1436164601219,0.0030543262,0.03604105,0.00580322
16,1436164601236,0.002443461,0.032070424,0.009468411
17,1436164601255,0.0030543262,0.035430185,0.009162978
18,1436164601276,0.0009162979,0.03756821,0.005497787
19,1436164601299,-0.006414085,0.03756821,0.005497787
20,1436164601313,-0.003970624,0.03359759,0.005497787
21,1436164601333,-0.0061086523,0.03756821,-0.006414085
22,1436164601353,-0.008552114,0.034208454,-0.003970624
23,1436164601373,-0.0125227375,0.03176499,-0.006414085
24,1436164601393,-0.012217305,0.030543262,-0.004886922
25,1436164601413,-0.007330383,0.03268129,-0.008857546
26,1436164601433,-0.0033597588,0.03573562,-0.0027488936
27,1436164601453,-0.0027488936,0.032986723,-0.0027488936
28,1436164601473,-0.004886922,0.027183503,-0.005497787
29,1436164601493,-0.006414085,0.027488936,-0.004886922
30,1436164601516,-0.0067195175,0.026267206,-0.003970624
31,1436164601571,0.0030543262,0.035124753,-0.008552114
32,1436164601581,-0.038179077,0.048258353,-0.01282817
33,1436164601582,-0.03848451,0.03481932,-0.008552114
34,1436164601602,-0.031154128,0.024129177,-0.0021380284
35,1436164601614,0.03573562,0.013133603,-0.00030543262
36,1436164601639,0.0693332,0.018936822,0.0036651916
37,1436164601653,0.053145275,0.018936822,-0.005192355
38,1436164601673,0.047036625,0.014966198,-0.0070249503
39,1436164601695,0.043676864,0.015882496,-0.008857546
40,1436164601714,0.040317107,0.010079277,-0.007330383
41,1436164601733,0.04795292,0.0067195175,-0.010079277
42,1436164601758,0.041233405,-0.00030543262,-0.004581489
43,1436164601775,0.04428773,0.0012217305,0.004276057
44,1436164601794,0.064446285,0.0015271631,0.0125227375
45,1436164601813,0.051618114,0.004581489,0.0061086523
46,1436164601837,0.04184427,-0.017715093,0.010079277
47,1436164601857,0.06688975,-0.015882496,0.016187929
48,1436164601877,0.061086524,-0.0021380284,0.016493361
49,1436164601897,0.04520403,-0.011911872,0.014660766
50,1436164601917,0.0421497,-0.007941248,0.013439035
51,1436164601938,0.038179077,0.0012217305,0.013439035
52,1436164601957,0.035430185,0.00030543262,0.015577064
53,1436164601977,0.03268129,0.0036651916,0.017104227
54,1436164601994,0.032070424,0.0021380284,0.016493361
55,1436164602017,0.046120327,0.0027488936,0.01863139
56,1436164602038,0.05375614,0.0076358155,0.02565634
57,1436164602056,0.04520403,0.0030543262,0.026267206
58,1436164602076,0.039095376,0.0021380284,0.029626964
59,1436164602094,0.030543262,0.005192355,0.026572637
60,1436164602118,0.02565634,-0.0027488936,0.022296581
61,1436164602139,0.0290161,-0.0012217305,0.026267206
62,1436164602159,0.028099801,0.0070249503,0.024740042
63,1436164602175,0.022907447,0.009468411,0.01863139
64,1436164602195,0.025045475,0.012217305,0.021991149
65,1436164602214,0.02321288,0.011301007,0.03145956
66,1436164602234,0.018325957,-0.0015271631,0.03359759
67,1436164602260,0.027794369,0.00030543262,0.032986723
68,1436164602275,0.025045475,0.0070249503,0.03268129
69,1436164602327,0.01863139,0.0021380284,0.024129177
70,1436164602328,0.01863139,0.016798794,0.02565634
71,1436164602342,-0.016493361,0.027183503,0.016798794
72,1436164602354,-0.02687807,0.018936822,0.019242255
73,1436164602376,-0.0125227375,0.014966198,0.0290161
74,1436164602395,0.064446285,0.008552114,0.032375857
75,1436164602414,0.07819075,0.018325957,0.02687807
76,1436164602438,0.057421334,0.0290161,0.014660766
77,1436164602455,0.052839845,0.030543262,0.0125227375
78,1436164602476,0.03145956,0.033292156,-0.002443461
79,1436164602502,0.02076942,0.020463986,-0.0076358155
80,1436164602514,0.024129177,0.020463986,-0.002443461
81,1436164602534,0.011911872,0.022907447,-0.006414085
82,1436164602555,0.01038471,0.021991149,-0.00061086525
83,1436164602574,0.024129177,0.027183503,0.0012217305
84,1436164602594,0.013133603,0.034208454,0.002443461
85,1436164602614,0.009773844,0.018936822,0.0061086523
86,1436164602637,0.026267206,0.024740042,0.005192355
87,1436164602658,0.022602014,0.03573562,-0.0036651916
88,1436164602677,0.017715093,0.036651913,-0.00580322
89,1436164602698,0.009773844,0.048563786,-0.002443461
90,1436164602718,-0.0009162979,0.04917465,-0.005192355
91,1436164602736,-0.0027488936,0.053145275,-0.0018325958
92,1436164602757,-0.007330383,0.04917465,-0.004276057
93,1436164602776,-0.010079277,0.048258353,-0.0070249503
94,1436164602796,-0.008857546,0.048258353,-0.004581489
95,1436164602816,-0.01282817,0.05589417,-0.005192355
96,1436164602839,-0.010995574,0.061086524,-0.004581489
97,1436164602860,-0.017715093,0.060170226,-0.008552114
98,1436164602879,-0.022907447,0.050396383,-0.0125227375
99,1436164602898,-0.026267206,0.03604105,-0.015577064
100,1436164602915,-0.029626964,0.0290161,-0.009773844
101,1436164602935,-0.024740042,0.026267206,-0.003970624
102,1436164602956,-0.019547688,0.028405234,-0.003970624
103,1436164602978,-0.019242255,0.027183503,0.0009162979
104,1436164602995,-0.014660766,0.031154128,-0.0012217305
105,1436164603060,-0.0106901415,0.025961773,0.0012217305
106,1436164603061,-0.02076942,0.022296581,0.0018325958
107,1436164603062,-0.0290161,0.013439035,0.0009162979
108,1436164603097,-0.008857546,0.022296581,0.0021380284
109,1436164603098,-0.05497787,0.045814894,-0.008857546
110,1436164603115,-0.05955936,0.040317107,-0.003970624
111,1436164603135,-0.043066,0.034208454,0.0030543262
112,1436164603155,0.032986723,0.022907447,0.018020526
113,1436164603186,0.057726767,0.03359759,0.017104227
114,1436164603195,0.040011674,0.04153884,0.014966198
115,1436164603215,0.03970624,0.03970624,0.01038471
116,1436164603235,0.033292156,0.04795292,0.0076358155
117,1436164603255,0.021685716,0.04734206,-0.0009162979
118,1436164603275,0.015882496,0.049480084,-0.002443461
119,1436164603298,0.009162978,0.04337143,-0.005192355
120,1436164603318,0.008246681,0.049480084,-0.0009162979
121,1436164603338,0.02321288,0.046731193,0.004886922
122,1436164603358,0.0027488936,0.046120327,0.005192355
123,1436164603378,0.0030543262,0.026572637,0.005192355
124,1436164603398,0.017715093,0.043982297,0.0030543262
125,1436164603418,0.007330383,0.057421334,-0.0033597588
126,1436164603438,-0.0143553335,0.05589417,-0.012217305
127,1436164603457,-0.022296581,0.04184427,-0.005497787
128,1436164603477,-0.01160644,0.04153884,-0.0027488936
129,1436164603498,-0.004581489,0.03970624,-0.0033597588
130,1436164603515,-0.0033597588,0.036651913,0.0021380284
131,1436164603538,-0.0009162979,0.027183503,0.005192355
132,1436164603557,0.008552114,0.028405234,0.0033597588
133,1436164603581,0.017104227,0.019547688,0.0012217305
134,1436164603606,0.022907447,0.014966198,-0.0021380284
135,1436164603623,0.01863139,0.0067195175,-0.006414085
136,1436164603637,0.01038471,-0.0015271631,-0.006414085
137,1436164603655,0.004581489,-0.017104227,-0.005192355
138,1436164603676,-0.008857546,-0.03023783,0.0021380284
139,1436164603695,-0.012217305,-0.04428773,0.01160644
140,1436164603716,0.0018325958,-0.06994407,0.028405234
141,1436164603736,0.019242255,-0.099265605,0.046120327
142,1436164603788,0.033292156,-0.12217305,0.05497787
143,1436164603789,0.05009095,-0.15027285,0.05955936
144,1436164603803,0.055283304,-0.16768251,0.049785517
145,1436164603816,0.095294975,-0.18020524,0.04642576
146,1436164603838,0.076052725,-0.17470746,0.046731193
147,1436164603857,0.07666359,-0.20066923,0.046120327
148,1436164603877,0.1020145,-0.17623462,0.06078109
149,1436164603899,0.15607607,-0.19547687,0.08674286
150,1436164603916,0.2134974,-0.18600847,0.093767814
151,1436164603937,0.20219639,-0.17348573,0.08827003
152,1436164603956,0.20525073,-0.1704314,0.106595986
153,1436164603976,0.23335053,-0.16737708,0.11575896
154,1436164603996,0.27275133,-0.14660765,0.118202426
155,1436164604019,0.31856623,-0.12583824,0.13500121
156,1436164604038,0.3304781,-0.077579886,0.14385876
157,1436164604058,0.35796702,-0.0290161,0.17837265
158,1436164604079,0.43982297,-0.003970624,0.22693644
159,1436164604099,0.47952923,0.024740042,0.2489276
160,1436164604119,0.45540005,0.028099801,0.24404067
161,1436164604139,0.45845437,0.015882496,0.25167647
162,1436164604158,0.36193767,0.028405234,0.24831672
163,1436164604179,0.24923302,0.008857546,0.2910773
164,1436164604199,0.20555615,-0.07086037,0.30940324
165,1436164604219,0.24251351,-0.062002823,0.3109304
166,1436164604238,0.33414328,-0.048258353,0.29901853
167,1436164604258,0.35521814,0.007941248,0.2706133
168,1436164604278,0.36132678,0.05681047,0.21777347
169,1436164604299,0.38820487,0.09896017,0.18692477
170,1436164604319,0.44226643,0.09896017,0.17501289
171,1436164604340,0.43035457,0.074830994,0.17348573
172,1436164604359,0.40561453,0.05589417,0.16462818
173,1436164604377,0.4098906,0.040927973,0.17562376
174,1436164604398,0.4111123,0.022296581,0.16829337
175,1436164604419,0.40622538,0.009162978,0.1518
176,1436164604438,0.4092797,-0.0030543262,0.13316862
177,1436164604457,0.41630468,-0.0290161,0.13255776
178,1436164604521,0.4083634,-0.0888809,0.1337795
179,1436164604522,0.36774087,-0.11575896,0.12492194
180,1436164604523,0.32284227,-0.15699236,0.12003502
181,1436164604539,0.3463606,-0.19211712,0.09712757
182,1436164604571,0.4859433,-0.14477506,0.05467244
183,1436164604579,0.46609017,-0.086132,0.010995574
184,1436164604596,0.27488935,-0.10048734,-0.08277224
185,1436164604617,0.15790866,-0.090713486,-0.18753563
186,1436164604637,0.27916542,-0.054367006,-0.28008172
187,1436164604659,0.39492437,-0.0852157,-0.30940324
188,1436164604679,0.29229903,-0.014966198,-0.3643811
189,1436164604698,0.038789943,-0.011911872,-0.23273966
190,1436164604717,-0.1853976,-0.4071417,-0.0021380284
191,1436164604740,-0.16584991,-0.6768387,0.028099801
192,1436164604759,-0.092240654,-0.67256266,-0.06078109
193,1436164604779,-0.05375614,-0.73731434,-0.17256944
194,1436164604801,0.036651913,-0.9416488,-0.19761491
195,1436164604819,-0.048258353,-0.9602802,-0.15027285
196,1436164604840,-0.20066923,-0.9486737,-0.10567969
197,1436164604859,-0.36987892,-0.9673051,-0.059864793
198,1436164604879,-0.40469822,-0.9059132,-0.010079277
199,1436164604900,-0.4166101,-0.84635377,0.022296581
200,1436164604920,-0.31337386,-0.8216137,0.08368854
201,1436164604940,-0.22510384,-0.76083267,0.13713925
202,1436164604957,-0.11148291,-0.68325275,0.1881465
203,1436164604980,-0.01038471,-0.5757405,0.19822577
204,1436164604999,0.07544186,-0.44593164,0.18997909
205,1436164605018,0.13103059,-0.27030787,0.17684549
206,1436164605038,0.1966986,-0.12705997,0.18478674
207,1436164605060,0.23243423,0.04062254,0.18295415
208,1436164605081,0.25625798,0.129198,0.17989981
209,1436164605100,0.22632557,0.21105394,0.2125811
210,1436164605120,0.16401732,0.26236662,0.21197024
211,1436164605139,0.07727446,0.26389378,0.13561209
212,1436164605160,0.032986723,0.30634892,0.046731193
213,1436164605179,-0.0009162979,0.30818152,0.053450707
214,1436164605200,-0.070249505,0.3662137,0.05222898
215,1436164605223,-0.14813483,0.41447207,0.053145275
216,1436164605289,-0.14538592,0.552833,0.004886922
217,1436164605290,0.002443461,0.634689,-0.093767814
218,1436164605291,0.043982297,0.74067414,-0.040317107
219,1436164605300,0.05589417,0.78801614,0.014966198
220,1436164605326,-0.22082779,0.89766645,-0.040927973
221,1436164605341,-0.49174652,0.8054258,-0.09896017
222,1436164605357,-0.5589417,0.7067711,-0.14935656
223,1436164605377,-0.50488013,0.643852,-0.15943582
224,1436164605398,-0.42424592,0.6337727,-0.19150625
225,1436164605420,-0.43249258,0.6261369,-0.21563543
226,1436164605441,-0.36957347,0.6032294,-0.20738874
227,1436164605458,-0.16737708,0.67103547,-0.1872302
228,1436164605479,-0.026267206,0.7623598,-0.16432275
229,1436164605500,0.086132,0.80878556,-0.112704635
230,1436164605520,0.20372356,0.80756384,-0.03970624
231,1436164605539,0.25595254,0.7144069,0.004581489
232,1436164605557,0.2929099,0.5992588,0.009162978
233,1436164605579,0.34330627,0.5363397,-0.0125227375
234,1436164605605,0.31031954,0.4370741,-0.051618114
235,1436164605620,0.28955013,0.3912592,-0.057726767
236,1436164605638,0.29229903,0.39370266,-0.046731193
237,1436164605659,0.33353242,0.42638394,-0.019242255
238,1436164605677,0.26542094,0.4364632,-0.053145275
239,1436164605700,-0.09896017,0.2751948,-0.12034045
240,1436164605720,-0.28160888,-0.043676864,-0.15851954
241,1436164605740,-0.30879238,-0.20066923,-0.3182608
242,1436164605760,-0.2657264,-0.25534168,-0.462425
243,1436164605780,-0.21105394,-0.5235115,-0.4156938
244,1436164605801,-0.29443705,-0.75319684,-0.28955013
245,1436164605821,-0.21502456,-0.981355,-0.18906279
246,1436164605841,0.11056661,-0.9233228,-0.2012801
247,1436164605861,0.23487769,-0.8142834,-0.124311075
248,1436164605881,0.112704635,-0.8680395,0.03390302
249,1436164605901,-0.096516706,-0.93951076,0.012217305
250,1436164605921,-0.17959438,-0.8436049,0.019547688
251,1436164605944,-0.28985557,-0.70280045,0.11056661
252,1436164606010,-0.2648101,-0.5290093,0.24617869
253,1436164606011,-0.083383106,-0.43799037,0.32834008
254,1436164606012,0.010995574,-0.34972036,0.32253686
255,1436164606020,0.067500606,-0.28069258,0.30451632
256,1436164606047,0.13133603,-0.22204952,0.27091873
257,1436164606058,0.17562376,-0.1966986,0.23793201
258,1436164606080,0.23182335,-0.15821409,0.19456059
259,1436164606099,0.28344148,-0.14721853,0.15271631
260,1436164606119,0.3555236,-0.11759156,0.09712757
261,1436164606139,0.37995818,-0.07941248,0.10995574
262,1436164606159,0.34300083,-0.020463986,0.13469578
263,1436164606179,0.31306845,0.023518313,0.15210545
264,1436164606199,0.19242255,0.009468411,0.109650314
265,1436164606221,-0.010079277,0.05009095,0.09437868
266,1436164606241,-0.09010262,0.1020145,0.20738874
267,1436164606261,-0.13347405,0.1160644,0.32162055
268,1436164606281,-0.2302962,0.1591304,0.30451632
269,1436164606301,-0.22357668,0.2724459,0.12339478
270,1436164606321,0.038789943,0.35460728,0.19272798
271,1436164606341,0.29046643,0.57696223,0.32467487
272,1436164606361,0.26939157,0.895223,0.27305678
273,1436164606382,-0.0290161,0.97097033,0.13683382
274,1436164606401,-0.27458394,0.79198676,0.09040806
275,1436164606421,-0.35613444,0.6093381,0.10293079
276,1436164606440,-0.46670106,0.5112942,0.08002335
277,1436164606460,-0.48288897,0.3820962,-0.020158553
278,1436164606480,-0.3295618,0.29260445,-0.15118915
279,1436164606502,-0.116675265,0.28069258,-0.17287487
280,1436164606522,0.05222898,0.31337386,-0.1255328
281,1436164606543,0.18295415,0.36774087,-0.073303826
282,1436164606558,0.2929099,0.42638394,-0.00061086525
283,1436164606579,0.31673363,0.42760566,0.061391957
284,1436164606599,0.43096542,0.31123585,0.1337795
285,1436164606622,0.5299256,0.095294975,0.18295415
286,1436164606651,0.5412266,-0.0030543262,0.17195857
287,1436164606658,0.52656585,-0.044593163,0.12186762
288,1436164606711,0.57635134,-0.06352998,0.069027774
289,1436164606712,0.59315014,0.03176499,0.03176499
290,1436164606718,0.49480084,0.09101892,-0.018936822
291,1436164606739,0.15851954,0.03481932,-0.13744467
292,1436164606758,-0.14477506,-0.041233405,-0.24465153
293,1436164606779,-0.18692477,-0.06658431,-0.4098906
294,1436164606798,-0.21105394,-0.087964594,-0.54428095
295,1436164606818,-0.355829,-0.2556471,-0.5335908
296,1436164606839,-0.47555858,-0.46883908,-0.46609017
297,1436164606858,-0.20647246,-0.68600166,-0.4202753
298,1436164606879,0.2180789,-0.5858198,-0.3857614
299,1436164606899,0.3286455,-0.50488013,-0.28802297
300,1436164606918,0.1966986,-0.59895337,-0.15332718
301,1436164606939,-0.0018325958,-0.7305948,-0.060170226
302,1436164606959,-0.14355333,-0.8368854,0.004276057
303,1436164606979,-0.28924468,-0.75991637,0.07269296
304,1436164606999,-0.37201694,-0.7058548,0.15668693
305,1436164607019,-0.33414328,-0.6389651,0.2602286
306,1436164607039,-0.25259277,-0.5140431,0.3182608
307,1436164607059,-0.24037547,-0.43157628,0.30665436
308,1436164607079,-0.17989981,-0.38056904,0.28893927
309,1436164607099,-0.03634648,-0.34330627,0.22937989
310,1436164607119,0.13652839,-0.25289822,0.18600847
311,1436164607138,0.2947425,-0.13133603,0.14385876
312,1436164607159,0.37751472,-0.021685716,0.08552113
313,1436164607179,0.28130344,0.04886922,0.08307768
314,1436164607199,0.17287487,0.022907447,0.2275473
315,1436164607219,0.02076942,-0.06505715,0.3200934
316,1436164607239,0.102319926,-0.27580565,0.30024028
317,1436164607259,0.14172074,-0.34972036,0.24129178
318,1436164607279,-0.022907447,-0.14263703,0.24281894
319,1436164607300,-0.22388211,0.07422013,0.26267207
320,1436164607322,-0.32895094,0.27305678,0.16737708
321,1436164607339,-0.33108896,0.52473325,-0.06383542
322,1436164607359,-0.17440203,0.7333437,-0.09040806
323,1436164607379,0.02687807,0.8753699,-0.06872234
324,1436164607399,-0.025961773,1.0906999,-0.13500121
325,1436164607419,-0.19211712,1.0103711,-0.19792034
326,1436164607447,-0.37048978,0.8063421,-0.24740042
327,1436164607462,-0.5510005,0.713796,-0.2742785
328,1436164607480,-0.627664,0.6133087,-0.2415972
329,1436164607499,-0.63194007,0.45112398,-0.27916542
330,1436164607523,-0.50335294,0.41447207,-0.37018433
331,1436164607539,-0.43279803,0.47311515,-0.40011674
332,1436164607594,-0.30726522,0.4633413,-0.3811799
333,1436164607595,-0.15821409,0.4560109,-0.30482176
334,1436164607673,-0.049785517,0.45814893,-0.20372356
335,1436164607674,0.092240654,0.4279111,-0.11484267
336,1436164607675,0.26816985,0.41447207,-0.0067195175
337,1436164607676,0.36560285,0.40317106,0.043982297
338,1436164607681,0.37720928,0.35918877,0.07238753
339,1436164607698,0.35735616,0.26542094,0.090713486
340,1436164607719,0.3463606,0.27550024,0.100792766
341,1436164607738,0.410196,0.28893927,0.14905111
342,1436164607758,0.48380527,0.2501493,0.14508049
343,1436164607778,0.32467487,0.16646078,-0.01985312
344,1436164607798,0.19456059,0.035124753,-0.1133155
345,1436164607818,0.21105394,-0.0720821,-0.22174409
346,1436164607838,0.1853976,-0.25442538,-0.32620203
347,1436164607858,0.08399397,-0.40042216,-0.29749137
348,1436164607879,0.0033597588,-0.7501425,-0.26908615
349,1436164607898,0.10751228,-0.7812967,-0.28771752
350,1436164607918,0.32925636,-0.7144069,-0.22357668
351,1436164607938,0.32436943,-0.96883225,-0.05100725
352,1436164607958,0.063224554,-1.2525792,0.09621128
353,1436164607978,-0.0983493,-1.2244794,0.083383106
354,1436164607999,-0.24587326,-1.1417072,0.1133155
355,1436164608019,-0.24251351,-0.9877691,0.1966986
356,1436164608039,-0.21533,-0.786489,0.29077184
357,1436164608059,-0.16646078,-0.6582073,0.31978795
358,1436164608079,-0.09865474,-0.50762904,0.31337386
359,1436164608099,0.043676864,-0.4364632,0.30390546
360,1436164608119,0.16493362,-0.3417791,0.28527406
361,1436164608139,0.22266038,-0.23518312,0.23365596
362,1436164608159,0.2660318,-0.112399206,0.19639318
363,1436164608179,0.3726278,-0.028099801,0.19028452
364,1436164608200,0.45875978,0.044593163,0.22174409
365,1436164608219,0.47708577,0.14049901,0.22968534
366,1436164608240,0.4792238,0.24190263,0.21594086
367,1436164608259,0.3549127,0.25809056,0.112704635
368,1436164608278,0.26083946,0.21624629,0.052839845
369,1436164608299,0.06811147,0.09407325,0.12064589
370,1436164608319,-0.1881465,0.09101892,0.16554448
371,1436164608339,-0.3381139,0.22479841,0.09773844
372,1436164608359,-0.35827246,0.410196,-0.082161374
373,1436164608379,-0.25686884,0.3885103,-0.036957346
374,1436164608399,-0.01160644,0.64812803,0.0021380284
375,1436164608420,0.1695151,1.0094548,-0.020463986
376,1436164608441,0.07849618,1.1175779,-0.05375614
377,1436164608460,-0.1600467,0.88789266,-0.06841691
378,1436164608481,-0.31856623,0.77091193,-0.079107046
