id,attr_time,attr_x,attr_y,attr_z
1,1438346160160,-0.017104227,0.044593163,-0.014660766
2,1438346160161,-0.01863139,0.048563786,-0.0125227375
3,1438346160162,-0.011911872,0.03573562,-0.016493361
4,1438346160163,-0.005497787,0.02321288,-0.0290161
5,1438346160164,-0.004581489,0.02687807,-0.028405234
6,1438346160165,-0.015882496,0.029932396,-0.018020526
7,1438346160166,-0.015577064,0.041233405,-0.010995574
8,1438346160189,-0.01863139,0.03756821,-0.0125227375
9,1438346160194,-0.016798794,0.03756821,-0.016798794
10,1438346160214,-0.020158553,0.02687807,-0.013744468
11,1438346160236,-0.018936822,0.0290161,-0.011301007
12,1438346160294,-0.022602014,0.042760566,-0.0009162979
13,1438346160295,-0.019242255,0.057726767,0.005192355
14,1438346160296,-0.015882496,0.028099801,-0.00580322
15,1438346160315,0.002443461,0.0067195175,-0.02443461
16,1438346160336,-0.0015271631,0.018936822,-0.03481932
17,1438346160354,-0.0027488936,0.040317107,-0.025961773
18,1438346160375,-0.0067195175,0.030543262,-0.01740966
19,1438346160396,-0.005192355,0.01740966,-0.022296581
20,1438346160416,0.0027488936,0.016187929,-0.03268129
21,1438346160435,0.002443461,0.014966198,-0.037873644
22,1438346160457,-0.0033597588,0.026267206,-0.027794369
23,1438346160475,-0.0125227375,0.04520403,-0.015577064
24,1438346160493,-0.008246681,0.051618114,-0.020463986
25,1438346160517,-0.005497787,0.0421497,-0.024740042
26,1438346160537,0.004581489,0.032375857,-0.03573562
27,1438346160557,0.009773844,0.03481932,-0.04520403
28,1438346160576,0.0036651916,0.026267206,-0.047647487
29,1438346160596,0.0076358155,0.046120327,-0.04337143
30,1438346160617,0.009162978,0.040927973,-0.03726278
31,1438346160634,0.008552114,0.034208454,-0.03268129
32,1438346160657,0.011301007,0.008246681,-0.036957346
33,1438346160678,0.0070249503,0.014660766,-0.036651913
34,1438346160704,0.0027488936,0.042760566,-0.03145956
35,1438346160714,-0.002443461,0.04734206,-0.015271631
36,1438346160734,-0.0012217305,0.04642576,-0.011911872
37,1438346160754,0.009468411,0.014660766,-0.02076942
38,1438346160774,0.009773844,0.0106901415,-0.028099801
39,1438346160794,0.009468411,0.018020526,-0.019242255
40,1438346160816,0.00061086525,0.028099801,-0.010995574
41,1438346160837,-0.0012217305,0.032986723,-0.0070249503
42,1438346160857,0.002443461,0.02565634,-0.00580322
43,1438346160877,0.00580322,0.007941248,-0.014966198
44,1438346160896,0.004886922,0.0067195175,-0.015577064
45,1438346160916,0.0009162979,0.0125227375,-0.016798794
46,1438346160936,-0.005192355,0.03268129,-0.016798794
47,1438346160963,-0.00030543262,0.038179077,0.0018325958
48,1438346161067,0.0009162979,0.024129177,-0.002443461
49,1438346161068,0.004276057,-0.005192355,-0.014049901
50,1438346161069,0.0070249503,-0.0027488936,-0.025350908
51,1438346161070,-0.0027488936,0.02443461,-0.019242255
52,1438346161071,-0.005497787,0.03145956,-0.005192355
53,1438346161089,-0.00580322,0.025350908,-0.0009162979
54,1438346161100,-0.007330383,0.017104227,-0.011301007
55,1438346161119,-0.0030543262,0.01740966,-0.014049901
56,1438346161134,-0.0030543262,0.016798794,-0.015577064
57,1438346161154,-0.01282817,0.023823744,-0.015271631
58,1438346161186,-0.01863139,0.029932396,-0.0030543262
59,1438346161195,-0.026267206,0.03726278,0.009773844
60,1438346161221,-0.018325957,0.04062254,0.024740042
61,1438346161239,-0.020463986,0.02443461,0.03359759
62,1438346161255,-0.03390302,0.03604105,0.049785517
63,1438346161277,-0.06047566,0.044898596,0.092240654
64,1438346161297,-0.103847094,0.021380283,0.15363261
65,1438346161318,-0.12980886,0.047036625,0.21227567
66,1438346161337,-0.16615535,0.076052725,0.31764993
67,1438346161357,-0.20891592,0.01160644,0.39370266
68,1438346161377,-0.22968534,-0.14752395,0.41141775
69,1438346161397,-0.22235495,-0.22357668,0.3381139
70,1438346161420,-0.16737708,-0.15027285,0.23090707
71,1438346161437,-0.13958271,-0.08307768,0.11789699
72,1438346161455,-0.12736541,-0.04428773,0.06658431
73,1438346161477,-0.092240654,-0.020463986,0.038179077
74,1438346161497,-0.08124508,-0.023518313,0.036651913
75,1438346161516,-0.08827003,-0.016493361,0.07727446
76,1438346161537,-0.12370021,0.023518313,0.18051068
77,1438346161557,-0.1853976,0.0852157,0.3417791
78,1438346161577,-0.26328292,0.13408493,0.5271767
79,1438346161597,-0.35979962,0.25442538,0.7492262
80,1438346161618,-0.37598756,0.3200934,1.0027353
81,1438346161638,-0.38515055,0.25870144,1.0861185
82,1438346161658,-0.39003745,0.35216382,1.1395692
83,1438346161677,-0.39064834,0.4859433,1.2275337
84,1438346161696,-0.34391713,0.45631635,1.2760975
85,1438346161715,-0.2770274,0.37415496,1.3762794
86,1438346161781,-0.25503623,0.25350907,1.3704761
87,1438346161782,-0.23243423,0.17165314,1.4278975
88,1438346161783,-0.21624629,-0.05589417,1.2052372
89,1438346161808,-0.15302174,0.29810223,0.9828822
90,1438346161815,-0.058337633,0.23335053,0.6398814
91,1438346161835,0.049785517,-0.03848451,0.31215215
92,1438346161855,0.19975294,-0.35216382,-0.32559118
93,1438346161878,0.35521814,-0.50762904,-1.2260065
94,1438346161897,0.39187005,-0.07819075,-1.674687
95,1438346161915,0.32620203,0.094989546,-1.9058995
96,1438346161936,0.26847526,0.2968805,-2.0244074
97,1438346161955,0.15454891,0.75900006,-2.129171
98,1438346161978,0.015882496,1.1743884,-2.1801782
99,1438346161997,0.14966199,1.5696182,-2.096184
100,1438346162017,0.1826487,1.2024882,-1.505172
101,1438346162037,0.06719518,0.16218472,-0.60231316
102,1438346162059,0.13439035,-0.93492925,0.11759156
103,1438346162076,-0.12522738,-1.0384709,0.16035213
104,1438346162096,-0.25289822,-0.59498274,0.029321533
105,1438346162118,0.124311075,-0.43157628,0.2415972
106,1438346162138,0.14263703,-1.5118915,1.1606439
107,1438346162158,-0.13225232,-2.4007003,1.368949
108,1438346162180,-0.27488935,-2.9999592,2.01219
109,1438346162196,-0.069027774,-1.496009,3.8832703
110,1438346162218,-0.004581489,-0.8958339,1.0567969
111,1438346162235,-0.1572978,3.2947018,2.7229319
112,1438346162255,0.05467244,1.851838,2.925739
113,1438346162276,-0.3036,-1.611768,2.033876
114,1438346162301,-0.27672195,0.8185594,1.2504412
115,1438346162321,-0.16554448,0.58459806,0.58459806
116,1438346162341,0.15088372,-0.63041294,-0.18142697
117,1438346162372,0.49113566,-0.48533243,-1.2660183
118,1438346162376,0.51068336,-0.062308256,-2.1310034
119,1438346162395,0.38912117,0.1881465,-2.4251351
120,1438346162417,0.17165314,0.22937989,-2.7192667
121,1438346162435,0.10903945,0.713796,-3.0876184
122,1438346162455,0.29871312,1.6881261,-3.119078
123,1438346162489,0.43035457,1.8329011,-3.0143147
124,1438346162497,0.37018433,1.3628404,-1.577254
125,1438346162515,0.50518554,0.16646078,-0.49480084
126,1438346162535,0.3100141,-1.1468995,-0.105068825
127,1438346162556,0.1740966,-0.7901542,0.18936823
128,1438346162576,-0.39461896,0.52290064,0.8503244
129,1438346162596,-0.57787853,0.79320854,1.2006557
130,1438346162615,-0.5149594,-0.08857546,1.1065824
131,1438346162635,-0.33261612,-1.0170907,1.2235631
132,1438346162658,-0.35827246,-1.6691893,1.2837334
133,1438346162680,-0.11759156,-0.79320854,4.160603
134,1438346162699,-0.33628133,-2.525317,1.382999
135,1438346162717,0.18509217,1.6001616,1.844813
136,1438346162739,0.13133603,1.2189816,3.1563408
137,1438346162759,-0.24220806,-2.2925773,1.9511036
138,1438346162779,0.09010262,-0.17928895,1.010982
139,1438346162802,-0.084910266,1.3631458,0.2452624
140,1438346162819,-0.007941248,0.03359759,-0.5112942
141,1438346162839,0.15424347,-0.65668017,-1.1224649
142,1438346162859,0.30726522,-0.49296826,-1.9144517
143,1438346162878,0.22021692,0.06078109,-2.3203716
144,1438346162899,-0.057726767,0.5842926,-2.7030787
145,1438346162921,-0.109650314,1.2385293,-2.7919595
146,1438346162935,0.20555615,1.5476271,-2.802039
147,1438346162959,0.2312125,1.4862351,-2.4724772
148,1438346162979,0.20555615,1.4779885,-1.2131784
149,1438346163002,0.4437936,0.57543504,-0.33750305
150,1438346163020,0.014966198,-0.3387248,-0.50976706
151,1438346163036,0.011911872,0.7501425,-0.18112154
152,1438346163058,0.34238997,0.3717115,0.03481932
153,1438346163076,0.14874569,-0.0720821,0.8695667
154,1438346163097,-0.087659165,-0.73639804,1.0173961
155,1438346163119,-0.20799962,-1.217149,0.98349303
156,1438346163139,-0.21502456,-1.0800097,3.3487632
157,1438346163160,-0.4831944,-0.5900958,3.8906007
158,1438346163176,0.26145032,-2.1627684,1.5720617
159,1438346163198,0.16982053,1.8964312,3.5753944
160,1438346163248,-0.08124508,-1.325883,2.6251934
161,1438346163249,0.044898596,0.6994407,1.7437148
162,1438346163268,0.19028452,2.057394,1.258077
163,1438346163276,0.21899518,0.6377433,0.13988814
164,1438346163299,0.23151793,-0.2312125,-0.61544675
165,1438346163316,0.22388211,-0.28160888,-1.4520267
166,1438346163338,0.2657264,-0.21868975,-2.01555
167,1438346163358,0.24678956,-0.28252518,-2.262034
168,1438346163377,0.17837265,-0.21685717,-2.6230555
169,1438346163398,0.03634648,0.50915617,-2.9794953
170,1438346163418,0.11789699,1.4544702,-3.0445523
171,1438346163436,0.30909783,1.8704693,-3.245527
172,1438346163459,0.15271631,1.8988746,-2.3991733
173,1438346163479,0.25442538,1.3637567,-0.79443026
174,1438346163499,0.16401732,-1.0290025,-0.20097467
175,1438346163519,-0.13530666,-1.8701639,0.2171626
176,1438346163540,-0.21960606,-0.829555,0.09101892
177,1438346163559,-0.6041457,0.31887165,0.9764681
178,1438346163579,-0.7257079,0.2919936,1.4517213
179,1438346163599,-0.54519725,-1.2363913,1.1838568
180,1438346163619,-0.6600399,-1.5806139,1.8060231
181,1438346163642,-0.07788532,-0.79779,3.8157697
182,1438346163659,-0.0711658,-2.8038714,1.3240504
183,1438346163680,0.23151793,1.981036,2.5616634
184,1438346163697,0.17348573,0.8216137,2.8194485
185,1438346163717,0.23273966,-0.57543504,1.5500705
186,1438346163738,0.29810223,1.6111571,0.9416488
187,1438346163760,0.09040806,1.2305881,0.10048734
188,1438346163781,0.17165314,-0.67073005,-0.8323039
189,1438346163801,0.30451632,-0.48716503,-1.3756685
190,1438346163818,0.2910773,-0.009773844,-1.709201
191,1438346163837,0.119729586,0.3933972,-2.037541
192,1438346163857,-0.08155051,0.79168135,-2.2996023
193,1438346163878,-0.16157386,1.135904,-2.6673431
194,1438346163897,0.13316862,1.6142114,-2.6777277
195,1438346163965,0.23762658,1.4630222,-2.2418754
196,1438346163968,0.18661933,0.79809546,-1.1792754
197,1438346163969,0.37018433,-0.6267477,-0.58368176
198,1438346163984,0.18142697,-0.91629785,-0.45448375
199,1438346163997,0.16279559,-0.14263703,-0.6053675
200,1438346164029,0.3023783,0.51893,-0.31948254
201,1438346164037,0.32589662,0.28771752,0.4886922
202,1438346164057,0.124005646,-1.221425,0.40622538
203,1438346164077,-0.026572637,-1.6762142,0.8686504
204,1438346164101,-0.31703907,-2.0555615,2.77455
205,1438346164119,-0.44135013,-0.54305923,4.9797735
206,1438346164139,-0.36835176,-3.3625078,0.6417139
207,1438346164158,0.3210097,3.7024543,3.6517525
208,1438346164178,0.070554934,-1.8209893,3.057075
209,1438346164200,0.15515977,-0.63499445,1.6032158
210,1438346164219,0.27488935,1.6609426,0.79198676
211,1438346164240,0.10720685,1.1221595,0.25045475
212,1438346164260,0.0021380284,-0.029626964,-0.6337727
213,1438346164279,0.24190263,-0.79412484,-1.4141531
214,1438346164300,0.2764165,-0.5131268,-1.851838
215,1438346164320,0.19853121,-0.1282817,-2.2198844
216,1438346164340,0.09315695,0.19058995,-2.6285532
217,1438346164360,0.00580322,0.8142834,-2.910162
218,1438346164380,0.21624629,1.4865406,-2.97583
219,1438346164401,0.33261612,1.6371188,-2.7382035
220,1438346164419,0.19883664,1.3423764,-1.8170186
221,1438346164437,0.30634892,0.39400807,-1.1630874
222,1438346164457,0.36865717,-0.20189096,-0.34422258
223,1438346164477,0.13561209,-0.6600399,-0.061391957
224,1438346164497,0.11056661,0.18325958,-0.1826487
225,1438346164522,-0.19975294,0.94225967,0.17348573
226,1438346164543,-0.66950834,1.3142766,1.14018
227,1438346164562,-0.71837753,-0.7086037,1.2507466
228,1438346164580,-0.83260936,-1.9080375,2.1157317
229,1438346164597,-0.35277468,-1.6105462,4.240932
230,1438346164618,-0.48899764,-4.071111,1.8307631
231,1438346164637,0.24373524,0.8194757,3.2033772
232,1438346164659,-0.0021380284,-1.2018774,3.0204232
233,1438346164678,0.10751228,-0.42210788,1.7571539
234,1438346164747,0.3894266,1.7986927,0.7290677
235,1438346164748,0.14782938,1.4352279,-0.30543262
236,1438346164749,0.040011674,0.25442538,-0.7367035
237,1438346164757,0.16432275,-0.77488256,-1.1337659
238,1438346164781,0.1740966,-0.48533243,-1.6520851
239,1438346164798,0.0015271631,0.25778514,-2.0555615
240,1438346164818,-0.21899518,0.636827,-2.3344216
241,1438346164839,-0.17959438,0.97524637,-2.549446
242,1438346164857,0.16920967,1.2748758,-2.552195
243,1438346164880,0.2284636,1.2727377,-2.2785273
244,1438346164900,0.2501493,1.3503176,-1.072374
245,1438346164919,0.015271631,0.49602258,-0.42302418
246,1438346164940,-0.119729586,0.48197266,-0.1695151
247,1438346164961,-0.10934488,0.5213735,0.18295415
248,1438346164981,-0.07147124,-0.14813483,1.4278975
249,1438346165004,-0.059253927,-2.4489589,1.7996091
250,1438346165019,-0.28405234,-3.4886515,1.4370605
251,1438346165040,-0.46578476,-3.313333,1.7354681
252,1438346165059,-0.2782491,-2.2522602,4.1548
253,1438346165080,-0.016493361,-1.4504995,3.1291573
254,1438346165099,0.023518313,0.5213735,1.4043792
255,1438346165122,0.08582657,3.3756413,3.2281175
256,1438346165140,-0.27855456,-0.9129381,2.3915374
257,1438346165161,-0.12950343,0.29840767,1.4453071
258,1438346165179,-0.12095132,1.3142766,0.7486154
259,1438346165198,-0.00061086525,-0.070249505,-0.029321533
260,1438346165219,0.312763,-0.7825184,-1.1417072
261,1438346165242,0.49541172,-0.82833326,-2.1111503
262,1438346165263,0.40317106,-0.21930063,-2.477975
263,1438346165282,0.26633725,-0.0015271631,-2.7430904
264,1438346165301,0.12980886,0.312763,-3.100141
265,1438346165318,0.1414153,1.2770138,-3.2629366
266,1438346165338,0.3484986,1.8863518,-3.1325169
267,1438346165358,0.1563815,1.7189748,-2.3142629
268,1438346165379,0.06291912,0.7079928,-1.4266758
269,1438346165450,0.13897185,-0.50579643,-0.5513059
270,1438346165452,0.016798794,-1.1212431,-0.09437868
271,1438346165453,-0.09621128,-0.36010507,-0.1957823
272,1438346165468,-0.020158553,0.7507534,-0.42546764
273,1438346165478,0.19425514,1.2388347,-0.47861293
274,1438346165501,0.10476339,1.1187997,0.38026363
275,1438346165518,-0.0720821,0.042760566,0.6407976
276,1438346165539,-0.32528573,-1.0317514,0.9007208
277,1438346165560,-0.49480084,-0.48533243,5.721364
278,1438346165580,-0.6814202,-3.981925,0.9837985
279,1438346165599,0.12186762,0.91965765,3.2458324
280,1438346165622,0.12767084,0.7101309,3.0405817
281,1438346165639,0.13347405,-1.7308867,2.058616
282,1438346165659,0.46273044,1.0839803,1.0855075
283,1438346165681,0.41263947,1.3426818,0.20799962
284,1438346165701,0.09682214,0.7305948,-0.23762658
285,1438346165721,0.06383542,-0.09285152,-0.5131268
286,1438346165739,0.29840767,-0.65148777,-1.1508701
287,1438346165762,0.21533,-0.28924468,-1.6691893
288,1438346165782,0.06536258,-0.109650314,-2.0894647
289,1438346165798,-0.12003502,0.121256754,-2.4831672
290,1438346165818,0.13988814,0.7333437,-2.737898
291,1438346165838,0.32895094,1.317331,-2.7693577
292,1438346165859,0.35033122,1.4602734,-2.477975
293,1438346165878,0.35613444,1.3500122,-1.4107933
294,1438346165900,0.37323865,0.7171558,-0.7470882
295,1438346165920,0.03268129,0.539394,0.059864793
296,1438346165939,-0.07727446,0.2843578,0.4615087
297,1438346165960,0.039095376,-0.103847094,0.5140431
298,1438346165982,-0.2938262,-0.41691554,1.2327261
299,1438346166009,-0.43951756,-1.6279559,1.5592335
300,1438346166019,-0.5439755,-2.8863382,1.6514742
301,1438346166042,-0.3231477,-2.1493294,4.01369
302,1438346166068,-0.26389378,-2.896723,1.4504995
303,1438346166082,0.0018325958,1.6609426,2.240043
304,1438346166101,-0.02107485,1.4501941,3.2159002
305,1438346166167,0.13408493,-2.11451,1.7318029
306,1438346166168,0.2919936,1.1829406,1.2253957
307,1438346166169,0.19547687,1.5995506,0.6246097
308,1438346166187,0.02107485,0.30634892,-0.4908302
309,1438346166199,0.106595986,-0.30818152,-1.2705997
310,1438346166219,0.1600467,-0.30115658,-1.7415768
311,1438346166239,0.18234327,-0.118507855,-2.1288655
312,1438346166259,0.052839845,0.08735373,-2.5537221
313,1438346166290,-0.074830994,0.67073005,-2.849381
314,1438346166299,0.0012217305,1.2654073,-2.966056
315,1438346166320,0.30390546,1.7101172,-2.8166997
316,1438346166340,0.312763,1.7354681,-2.221106
317,1438346166362,0.23426682,1.2165382,-1.1890492
318,1438346166380,0.094989546,0.39858958,-0.30451632
319,1438346166400,-0.16310102,-0.16982053,-0.03970624
320,1438346166422,-0.14752395,-0.15515977,0.21868975
321,1438346166440,0.053450707,-0.42546764,0.42363504
322,1438346166460,0.016187929,-1.0201449,0.9816604
323,1438346166482,-0.18417588,-1.7427986,1.2144
324,1438346166502,-0.20586158,-2.2397375,1.061073
325,1438346166522,-0.3933972,-1.8255708,2.2852468
326,1438346166540,-0.13652839,-0.086437434,4.6126432
327,1438346166565,-0.0842994,-1.7889189,1.0607675
328,1438346166582,0.2706133,3.583641,3.4953709
329,1438346166605,0.24373524,-1.5674802,2.8365529
330,1438346166620,0.05222898,0.06414085,1.5839735
331,1438346166641,0.036957346,1.3457361,0.88606006
332,1438346166660,0.0027488936,0.40744713,0.4166101
333,1438346166679,0.15821409,-0.41416663,-0.36713
334,1438346166699,0.28802297,-0.3155119,-1.1814134
335,1438346166719,0.37507126,-0.046120327,-1.6920967
336,1438346166740,0.23793201,-0.053450707,-2.158187
337,1438346166766,0.14355333,-0.007941248,-2.4981334
338,1438346166779,0.0693332,0.4700608,-2.790127
339,1438346166800,0.15821409,1.1905763,-2.9642236
340,1438346166882,0.269697,1.8344283,-2.7693577
341,1438346166883,0.16432275,1.4278975,-2.2275202
342,1438346166894,0.19517145,0.5152648,-1.4462235
343,1438346166895,0.30176744,-0.838718,-0.7284568
344,1438346166899,0.13591751,-1.3726143,-0.5662721
345,1438346166922,0.23182335,-0.1001819,-0.57787853
346,1438346166940,0.3417791,0.9242391,-0.50885075
347,1438346166959,0.14049901,1.4407257,0.16401732
348,1438346166980,-0.11056661,0.42730024,0.45723262
349,1438346167003,-0.39950588,-0.49357912,1.0189233
350,1438346167020,-0.42730024,-0.947452,4.716185
351,1438346167059,-0.9993755,-3.6322048,2.2311852
352,1438346167060,-0.08979719,-0.7666359,2.950479
353,1438346167083,-0.042455133,0.32498032,3.5121698
354,1438346167100,0.059253927,-1.065349,2.445599
355,1438346167121,0.32406402,1.5735888,1.366811
356,1438346167144,0.52595496,1.4080443,0.3848451
357,1438346167162,0.27885997,0.6976081,-0.13439035
358,1438346167181,0.04886922,-0.073303826,-0.63407815
359,1438346167201,0.36102137,-0.77182823,-1.4001031
360,1438346167221,0.30848694,-0.2565634,-1.9052887
361,1438346167244,0.19608775,-0.01282817,-2.341141
362,1438346167262,0.004276057,-0.058337633,-2.7433958
363,1438346167287,0.12308934,0.6423248,-3.044247
364,1438346167304,0.3915646,1.3881912,-3.150843
365,1438346167320,0.5476407,1.6588045,-2.8780916
366,1438346167343,0.27458394,1.7525724,-1.2525792
367,1438346167364,0.18142697,0.50915617,-0.30451632
368,1438346167384,-0.15057829,-0.9392053,0.22021692
369,1438346167402,-0.3213151,-0.7800749,0.6068946
370,1438346167422,-0.39553526,-0.35643986,0.88606006
371,1438346167442,-0.65576386,-0.47586402,1.6985108
372,1438346167462,-0.7290677,-1.5152513,1.7146988
373,1438346167483,-0.6032294,-2.363743,1.7614299
374,1438346167503,-0.61086524,-2.1169536,2.32984
375,1438346167521,0.12797627,-0.6243043,3.7265835
376,1438346167550,0.10323623,-2.1563544,2.1755965
377,1438346167604,0.5348125,1.8768835,3.1358767
378,1438346167605,0.03023783,0.12064589,2.604424
379,1438346167606,0.016798794,1.3921618,1.9098701
380,1438346167654,0.039095376,1.1362094,0.77549344
381,1438346167655,0.10567969,0.72234815,0.21319197
382,1438346167662,0.32559118,-0.6062838,-0.6542367
383,1438346167680,0.31215215,0.04337143,-1.1746938
384,1438346167700,0.2657264,0.34300083,-1.7116444
385,1438346167720,0.11453723,0.020158553,-2.1676552
386,1438346167740,-0.005192355,-0.32406402,-2.4743097
387,1438346167773,-0.16707164,-0.10415252,-2.8154778
388,1438346167780,-0.095294975,0.66950834,-3.0476067
389,1438346167800,0.15882497,1.4401149,-2.962391
