id,attr_time,attr_x,attr_y,attr_z
1,1438346160043,-0.011322,-0.0174255,0.00276184
2,1438346160056,0.0185852,-0.0078125,0.0113068
3,1438346160085,0.0196533,0.00714111,0.0209198
4,1438346160096,-0.00811768,0.0178223,0.0294647
5,1438346160114,-0.00491333,0.0199585,0.0337372
6,1438346160134,0.0143127,0.015686,0.031601
7,1438346160154,0.00790405,0.006073,0.0251923
8,1438346160175,-0.0241394,-0.00140381,0.0155792
9,1438346160200,-0.0348206,-0.00888061,0.00062561
10,1438346160215,-0.0252075,-0.00460815,-0.00791931
11,1438346160235,-0.0177307,0.00500488,-0.00578308
12,1438346160255,-0.0145264,0.015686,0.00596619
13,1438346160274,-0.0273438,0.0220947,0.0166473
14,1438346160294,-0.0465698,0.0188904,0.023056
15,1438346160315,-0.0380249,0.0178223,0.0155792
16,1438346160334,-0.0209351,0.0124817,0.00169373
17,1438346160353,0.00576782,0.00180054,-0.0121918
18,1438346160375,0.0153809,-0.00460815,-0.0121918
19,1438346160393,0.00576782,-0.0131531,-0.00151062
20,1438346160413,-0.0102539,-0.0174255,0.0102386
21,1438346160433,-0.00384521,-0.0131531,0.0187836
22,1438346160454,0.0175171,-0.0152893,0.0166473
23,1438346160474,0.0303345,-0.0142212,0.00917053
24,1438346160493,0.0271301,-0.0142212,0.00596619
25,1438346160512,0.0303345,-0.0174255,0.0070343
26,1438346160533,0.04422,-0.0174255,0.0123749
27,1438346160551,0.0516968,-0.0142212,0.0177155
28,1438346160573,0.0367432,-0.0142212,0.0102386
29,1438346160592,0.0303345,-0.0174255,0.00062561
30,1438346160611,0.0346069,-0.0184937,-0.00364685
31,1438346160632,0.0431519,-0.0195618,-0.00257874
32,1438346160651,0.0410156,-0.0174255,0.00169373
33,1438346160671,0.026062,-0.012085,0.00062561
34,1438346160691,0.00897217,-0.0174255,-0.00257874
35,1438346160709,0.00469971,-0.0195618,-0.0132599
36,1438346160730,0.000427246,-0.0195618,-0.0196686
37,1438346160752,-0.0155945,-0.0259705,-0.023941
38,1438346160770,-0.0337524,-0.0302429,-0.0196686
39,1438346160790,-0.0700684,-0.0302429,-0.0153961
40,1438346160809,-0.10318,-0.0206299,-0.0100555
41,1438346160829,-0.109589,-0.0249023,-0.00151062
42,1438346160849,-0.130951,-0.0291748,0.00382996
43,1438346160869,-0.132019,-0.0366516,0.00382996
44,1438346160888,-0.105316,-0.0366516,0.00596619
45,1438346160908,-0.0561829,-0.0142212,0.0166473
46,1438346160927,-0.0839539,-0.00567627,0.0433502
47,1438346160950,-0.179016,-0.00354004,0.0550995
48,1438346160967,-0.186493,0.000732422,0.0743256
49,1438346160988,-0.184357,-0.012085,0.0924835
50,1438346161007,-0.25058,-0.00888061,0.0924835
51,1438346161025,-0.280487,0.0135498,0.0818024
52,1438346161049,-0.230286,0.0306396,0.078598
53,1438346161066,-0.19397,0.0455933,0.0892792
54,1438346161086,-0.209991,0.0466614,0.114914
55,1438346161106,-0.246307,0.0370483,0.128799
56,1438346161126,-0.258057,0.0167541,0.126663
57,1438346161146,-0.278351,0.00393677,0.0882111
58,1438346161165,-0.316803,-0.0387878,0.0219879
59,1438346161185,-0.348846,-0.0516052,-0.0741425
60,1438346161203,-0.278351,-0.0451965,-0.159592
61,1438346161225,-0.293304,-0.0377197,-0.227951
62,1438346161246,-0.262329,0.0263672,-0.276016
63,1438346161264,0.053833,0.158813,-0.254654
64,1438346161284,0.530212,0.321167,-0.180954
65,1438346161303,0.985229,0.294464,-0.136093
66,1438346161323,1.24478,0.159882,-0.189499
67,1438346161344,1.43063,0.0306396,-0.250381
68,1438346161363,1.65814,0.00714111,-0.329422
69,1438346161382,1.3847,-0.227844,-0.434097
70,1438346161402,0.686157,-0.393402,-0.492844
71,1438346161422,-0.085022,-0.352814,-0.384964
72,1438346161445,-0.635101,-0.342133,-0.246109
73,1438346161462,-0.691711,-0.325043,-0.142502
74,1438346161482,-0.458862,-0.460693,-0.097641
75,1438346161500,-0.227081,-0.769379,-0.0933685
76,1438346161519,-0.472748,-0.844147,-0.10939
77,1438346161543,-0.956604,-0.421173,0.0892792
78,1438346161560,-0.922424,0.0391846,0.268723
79,1438346161580,-0.32962,0.301941,0.390488
80,1438346161600,0.306976,0.357483,0.42894
81,1438346161620,0.766266,0.235718,0.431076
82,1438346161642,1.05466,0.024231,0.391556
83,1438346161660,1.00446,-0.209686,0.327469
84,1438346161679,0.696838,-0.393402,0.261246
85,1438346161700,0.269592,-0.471374,0.172592
86,1438346161719,-0.291168,-0.443604,0.141617
87,1438346161738,-0.966217,-0.0633545,0.300766
88,1438346161758,-1.46823,0.532654,0.620132
89,1438346161781,-1.13284,0.636261,1.00999
90,1438346161798,-0.465271,0.344666,0.908524
91,1438346161818,0.035675,-0.221436,0.531479
92,1438346161836,0.802582,0.430115,0.16832
93,1438346161857,1.78204,1.02933,-0.289902
94,1438346161878,2.11209,1.33588,-0.581497
95,1438346161897,1.97003,1.51212,-0.391373
96,1438346161916,2.12384,1.21732,-0.229019
97,1438346161936,1.71689,0.837067,-0.202316
98,1438346161956,0.800446,0.132111,-0.117935
99,1438346161975,-0.19397,-0.503418,-0.20018
100,1438346161996,-1.22791,-0.678589,-0.264267
101,1438346162015,-1.62845,-0.22998,-0.128616
102,1438346162035,-0.669281,0.489929,0.0465546
103,1438346162054,0.52594,0.464294,0.0550995
104,1438346162077,0.909393,-0.13385,0.078598
105,1438346162094,0.691498,-0.486328,0.332809
106,1438346162114,0.165985,-0.633728,0.661789
107,1438346162134,-0.642578,-0.878326,0.757919
108,1438346162151,-1.43619,-1.12933,0.621201
109,1438346162173,-2.0119,-1.19235,0.378738
110,1438346162192,-2.31418,-1.03534,0.180069
111,1438346162213,-2.38254,-0.579254,0.122391
112,1438346162232,-2.27679,0.195129,0.204636
113,1438346162252,-1.61456,1.3989,0.568863
114,1438346162275,-0.266602,1.24936,0.822006
115,1438346162292,0.416992,-0.514099,0.362717
116,1438346162311,1.19992,0.277374,0.289017
117,1438346162331,2.05228,0.849884,-0.191635
118,1438346162351,2.19861,0.609558,-0.634903
119,1438346162373,1.311,0.473907,-0.715012
120,1438346162391,0.772675,0.154541,-0.645584
121,1438346162410,0.00576782,-0.0644226,-0.776962
122,1438346162430,-0.866882,-0.388062,-0.712875
123,1438346162450,-1.36996,-0.7117,-0.710739
124,1438346162471,-1.19479,-0.704224,-0.665878
125,1438346162490,-0.608398,-0.41156,-0.492844
126,1438346162508,0.1521,0.105408,-0.309128
127,1438346162529,0.745972,0.430115,-0.100845
128,1438346162549,0.724609,0.312622,0.050827
129,1438346162571,0.278137,-0.0259705,0.221725
130,1438346162588,-0.281555,-0.330383,0.329605
131,1438346162608,-0.822021,-0.556824,0.408646
132,1438346162628,-1.37317,-0.739471,0.363785
133,1438346162646,-1.78333,-0.830261,0.234543
134,1438346162670,-1.85062,-0.66684,0.123459
135,1438346162686,-1.7374,-0.145599,0.16832
136,1438346162707,-1.49921,0.713165,0.402237
137,1438346162727,-0.689575,1.67554,0.914932
138,1438346162746,0.534485,0.76123,0.928818
139,1438346162766,0.807922,-0.525848,0.585953
140,1438346162785,1.13477,0.262421,0.423599
141,1438346162806,1.78311,0.769775,-0.0773468
142,1438346162825,2.13666,0.902222,-0.442642
143,1438346162844,1.27042,0.849884,-0.471481
144,1438346162865,0.619934,0.639465,-0.108322
145,1438346162885,0.330475,0.397003,-0.164932
146,1438346162905,-0.00598145,0.164154,0.0283966
147,1438346162924,-0.0978394,-0.353882,0.0102386
148,1438346162944,-0.094635,-0.595276,-0.151047
149,1438346162962,0.215118,-0.444672,-0.220474
150,1438346162984,0.845306,-0.0804443,-0.241837
151,1438346163005,1.23517,0.17804,-0.241837
152,1438346163023,1.03436,0.165222,-0.100845
153,1438346163043,0.297363,0.0381165,0.119186
154,1438346163063,-0.599854,-0.306885,0.41185
155,1438346163082,-1.34006,-0.808899,0.517593
156,1438346163104,-1.72885,-1.21371,0.588089
157,1438346163122,-1.79187,-1.21371,0.565659
158,1438346163141,-1.51309,-0.958435,0.403305
159,1438346163161,-0.959808,-0.58139,0.28154
160,1438346163181,-0.392639,0.107544,0.399033
161,1438346163204,-0.00811768,1.24081,0.846573
162,1438346163221,0.227936,1.31879,1.32936
163,1438346163241,-0.148041,-0.431854,0.683151
164,1438346163260,-0.248444,-0.12851,0.693832
165,1438346163279,0.165985,0.767639,0.458847
166,1438346163300,0.872009,0.943878,0.0711212
167,1438346163319,0.822876,0.896881,-0.172409
168,1438346163339,0.358246,0.668304,-0.192703
169,1438346163359,0.553711,0.47818,-0.189499
170,1438346163379,0.635956,0.169495,-0.555862
171,1438346163401,0.40097,-0.268433,-0.843185
172,1438346163419,-0.094635,-0.570709,-1.01302
173,1438346163438,-0.736572,-0.517303,-0.809006
174,1438346163457,-0.800659,0.0391846,-0.345444
175,1438346163478,-0.0412292,0.366028,-0.00364685
176,1438346163499,0.638092,0.18338,0.0882111
177,1438346163517,0.855988,-0.12851,0.265518
178,1438346163537,0.591095,-0.343201,0.458847
179,1438346163557,-0.102112,-0.611298,0.488754
180,1438346163577,-0.997192,-0.879395,0.440689
181,1438346163597,-1.64447,-0.98941,0.278336
182,1438346163616,-1.80255,-0.883667,0.041214
183,1438346163635,-1.56436,-0.42865,-0.113663
184,1438346163656,-1.1275,0.286987,-0.0538483
185,1438346163676,-0.450317,1.16498,0.236679
186,1438346163696,0.541962,1.29422,0.651108
187,1438346163715,0.687225,-0.256683,0.237747
188,1438346163735,0.641296,-0.237457,0.181137
189,1438346163754,0.940369,0.40448,0.00489807
190,1438346163774,1.53745,0.540131,-0.503525
191,1438346163797,1.30139,0.499542,-0.613541
192,1438346163813,0.407379,0.385254,-0.424484
193,1438346163834,0.129669,0.286987,-0.171341
194,1438346163853,0.121124,0.0968628,-0.305923
195,1438346163873,-0.0145264,-0.302612,-0.373215
196,1438346163893,-0.204651,-0.698883,-0.417007
197,1438346163911,-0.469543,-0.775787,-0.485367
198,1438346163933,-0.475952,-0.59314,-0.33049
199,1438346163951,0.188416,-0.0366516,-0.164932
200,1438346163971,0.850647,0.188721,-0.0218048
201,1438346163992,0.763061,-0.121033,0.0262604
202,1438346164011,0.19696,-0.366699,0.282608
203,1438346164032,-0.384094,-0.564301,0.527206
204,1438346164051,-0.856201,-0.887939,0.554977
205,1438346164071,-1.44366,-1.18808,0.512253
206,1438346164090,-1.87732,-1.18274,0.424667
207,1438346164110,-1.87732,-0.921051,0.301834
208,1438346164130,-1.61456,-0.416901,0.263382
209,1438346164150,-1.26636,0.362824,0.415054
210,1438346164169,-0.566742,1.33267,0.902115
211,1438346164189,0.447968,0.720642,0.911728
212,1438346164209,0.61673,-0.860168,0.570999
213,1438346164228,0.88269,0.0252991,0.283676
214,1438346164249,1.58231,0.77832,-0.39885
215,1438346164268,2.37485,0.987671,-0.857071
216,1438346164286,1.61755,0.872314,-1.01622
217,1438346164307,0.827148,0.566833,-0.618881
218,1438346164330,0.93396,0.395935,-0.90834
219,1438346164348,0.939301,0.170563,-0.865616
220,1438346164367,0.763061,-0.263092,-0.831436
221,1438346164387,0.261047,-0.367767,-0.991653
222,1438346164405,-0.278351,-0.187256,-0.64772
223,1438346164425,-0.419342,0.227173,-0.415939
224,1438346164445,-0.167267,0.361755,-0.18309
225,1438346164466,0.116852,0.293396,-0.00898743
226,1438346164486,0.301636,0.061615,0.215317
227,1438346164505,0.0976257,-0.283386,0.345627
228,1438346164595,-0.402252,-0.74054,0.359512
229,1438346164596,-1.0303,-1.05777,0.344559
230,1438346164597,-1.49387,-1.03107,0.313583
231,1438346164598,-1.74915,-0.715973,0.180069
232,1438346164603,-1.69147,-0.142395,0.146957
233,1438346164627,-1.29413,0.575378,0.310379
234,1438346164644,-0.421478,1.19809,0.617996
235,1438346164664,0.608185,0.84668,0.659653
236,1438346164683,0.711792,-0.276978,0.393692
237,1438346164703,0.455444,0.0199585,0.336014
238,1438346164724,0.702179,0.575378,0.0486908
239,1438346164743,1.26721,0.873383,-0.218338
240,1438346164762,1.25867,0.884064,-0.303787
241,1438346164782,1.07709,0.691803,-0.158524
242,1438346164802,1.17535,0.366028,-0.311264
243,1438346164825,1.17856,-0.101807,-0.507797
244,1438346164841,0.827148,-0.554688,-0.532364
245,1438346164862,0.0420837,-0.748016,-0.570816
246,1438346164881,-0.519745,-0.736267,-0.417007
247,1438346164901,-0.0561829,-0.469238,-0.301651
248,1438346164921,0.736359,-0.161621,-0.185226
249,1438346164941,0.742767,-0.067627,0.0796661
250,1438346164960,-0.0145264,-0.348541,0.310379
251,1438346164980,-0.848724,-0.85376,0.509048
252,1438346165000,-1.33258,-1.25858,0.518661
253,1438346165016,-1.65515,-1.40384,0.522934
254,1438346165037,-1.78333,-1.28528,0.418259
255,1438346165060,-1.55688,-1.13147,0.158707
256,1438346165078,-1.04099,-0.754425,0.00489807
257,1438346165099,-0.635101,0.0285034,0.136276
258,1438346165118,-0.499451,1.14789,0.522934
259,1438346165138,-0.239899,1.01224,0.840164
260,1438346165159,-0.269806,-0.414764,0.412918
261,1438346165177,-0.434296,-0.322906,0.344559
262,1438346165197,-0.192902,0.502747,0.204636
263,1438346165217,0.530212,0.905426,-0.0111237
264,1438346165237,0.848511,0.842407,-0.2397
265,1438346165258,0.509918,0.483521,-0.107254
266,1438346165277,0.376404,0.388458,0.00489807
267,1438346165296,0.301636,0.329712,-0.0111237
268,1438346165316,0.222595,0.14386,-0.136093
269,1438346165336,0.281342,-0.0366516,-0.379623
270,1438346165354,0.480011,-0.0334473,-0.629562
271,1438346165375,0.819672,0.0968628,-0.713943
272,1438346165394,1.23944,0.31369,-0.665878
273,1438346165415,1.452,0.540131,-0.484299
274,1438346165435,1.1134,0.470703,-0.214066
275,1438346165457,0.402039,0.0562744,0.023056
276,1438346165474,-0.298645,-0.467102,0.255905
277,1438346165494,-0.765411,-0.816376,0.292221
278,1438346165513,-1.09653,-0.988342,0.235611
279,1438346165533,-1.25461,-0.9328,0.103165
280,1438346165554,-1.09653,-0.74054,-0.0955048
281,1438346165572,-0.819885,-0.33252,-0.201248
282,1438346165593,-0.551788,0.575378,0.0123749
283,1438346165612,-0.322144,1.38821,0.417191
284,1438346165632,-0.00598145,0.595673,0.378738
285,1438346165653,-0.261261,-0.440399,0.0946198
286,1438346165670,-0.215332,0.0722961,0.115982
287,1438346165692,0.349701,0.69928,0.0935516
288,1438346165712,0.995911,0.62558,-0.135025
289,1438346165731,0.789764,0.163086,-0.179886
290,1438346165752,0.268524,-0.049469,-0.128616
291,1438346165771,-0.23349,-0.196869,-0.203384
292,1438346165790,-0.627625,-0.322906,-0.391373
293,1438346165810,-0.620148,-0.459625,-0.62529
294,1438346165830,-0.274078,-0.425446,-0.753464
295,1438346165848,0.346497,-0.265228,-0.764145
296,1438346165870,1.00339,-0.0665588,-0.679764
297,1438346165888,1.37189,0.131042,-0.519547
298,1438346165909,1.22449,0.175903,-0.268539
299,1438346165929,0.675476,0.0114136,-0.0218048
300,1438346165948,-0.0337524,-0.397675,0.0903473
301,1438346165968,-0.708801,-0.727722,0.133072
302,1438346165987,-1.26102,-0.839874,0.130936
303,1438346166008,-1.36676,-0.724518,0.0668488
304,1438346166030,-0.930969,-0.516235,-0.0431671
305,1438346166048,-0.358459,-0.16803,-0.10405
306,1438346166067,-0.00918579,0.47818,0.0305328
307,1438346166087,0.28241,1.31879,0.268723
308,1438346166107,0.760925,1.2814,0.479141
309,1438346166129,1.00018,0.0872498,-0.0581207
310,1438346166146,0.552643,-0.231049,-0.303787
311,1438346166164,-0.0989075,0.456818,-0.429825
312,1438346166185,-0.466339,0.350006,-0.485367
313,1438346166205,-0.60199,-0.0932617,-0.292038
314,1438346166226,-0.697052,-0.170166,-0.0186005
315,1438346166245,-0.920288,-0.325043,0.0764618
316,1438346166265,-0.928833,-0.367767,-0.110458
317,1438346166285,-0.478088,-0.348541,-0.40419
318,1438346166304,0.345428,-0.379517,-0.701126
319,1438346166327,1.28537,-0.391266,-1.01942
320,1438346166344,1.91022,-0.294067,-1.14333
321,1438346166364,1.81195,0.531586,-0.765213
322,1438346166383,1.49686,0.902222,-0.0527801
323,1438346166403,0.890167,0.450409,0.246292
324,1438346166426,0.0751953,-0.124237,0.447098
325,1438346166443,-0.537903,-0.313293,0.669266
326,1438346166463,-0.872223,-0.46283,0.673538
327,1438346166481,-0.97583,-0.639069,0.521866
328,1438346166502,-0.965149,-0.688202,0.365921
329,1438346166521,-0.778229,-0.544006,0.250565
330,1438346166542,-0.583832,-0.195801,0.211044
331,1438346166561,-0.661804,0.520905,0.371262
332,1438346166581,-1.00253,1.38608,0.623337
333,1438346166601,-0.73764,1.20984,0.83696
334,1438346166623,-0.59024,-0.114624,0.198227
335,1438346166641,-0.373413,-0.219299,0.0711212
336,1438346166660,-0.104248,0.483521,-0.208725
337,1438346166680,0.0249939,0.405548,-0.389236
338,1438346166699,0.178802,0.0498657,-0.145706
339,1438346166722,0.657318,0.0936585,0.16832
340,1438346166739,0.741699,0.0178223,0.307175
341,1438346166759,0.39563,-0.121033,0.0657806
342,1438346166779,0.185211,-0.26416,-0.272812
343,1438346166798,0.466126,-0.459625,-0.560135
344,1438346166821,1.11661,-0.640137,-0.836777
345,1438346166837,1.51395,-0.757629,-0.944656
346,1438346166857,1.26187,-0.291931,-0.813278
347,1438346166878,0.651978,0.0413208,-0.135025
348,1438346166897,-0.148041,-0.156281,0.277267
349,1438346166920,-0.876495,-0.698883,0.457779
350,1438346166937,-1.37103,-1.077,0.520798
351,1438346166956,-1.48639,-1.01932,0.561386
352,1438346166976,-1.11575,-0.79715,0.42894
353,1438346166996,-0.446045,-0.595276,0.218521
354,1438346167015,0.0944214,-0.416901,0.0775299
355,1438346167036,0.200165,0.00180054,0.0486908
356,1438346167056,-0.135223,0.832794,0.184341
357,1438346167075,-0.74939,1.53989,0.363785
358,1438346167095,-0.517609,1.33374,0.418259
359,1438346167113,0.0783997,0.492065,-0.060257
360,1438346167135,0.493896,0.0840454,-0.293106
361,1438346167156,0.353973,0.371368,-0.50032
362,1438346167174,-0.214264,0.305145,-0.379623
363,1438346167193,-0.66394,0.0861816,-0.137161
364,1438346167214,-0.89679,-0.0751038,0.0668488
365,1438346167234,-1.13071,-0.222504,0.0561676
366,1438346167256,-1.0538,-0.157349,-0.146774
367,1438346167273,-0.344574,-0.0334473,-0.402054
368,1438346167292,0.713928,-0.012085,-0.638107
369,1438346167312,1.68271,-0.0729675,-0.889114
370,1438346167331,2.08325,-0.0847168,-1.04506
371,1438346167355,1.95721,0.573242,-0.822891
372,1438346167372,1.7468,0.932129,-0.131821
373,1438346167392,1.05252,0.640533,0.183273
374,1438346167411,0.158508,0.252808,0.384079
375,1438346167430,-0.41507,0.0327759,0.688492
376,1438346167453,-0.97583,-0.249207,0.791031
377,1438346167470,-1.41696,-0.48526,0.776077
378,1438346167490,-1.55688,-0.592072,0.639359
379,1438346167510,-1.47784,-0.567505,0.420395
380,1438346167529,-1.18411,-0.393402,0.263382
381,1438346167552,-0.870087,0.0370483,0.292221
382,1438346167570,-0.769684,0.628784,0.437485
383,1438346167589,-0.548584,1.27606,0.720535
384,1438346167607,0.28241,1.07312,0.985428
385,1438346167629,0.750244,0.120361,0.578476
386,1438346167650,0.701111,0.00393677,0.408646
387,1438346167668,0.410583,0.195129,0.18541
388,1438346167688,0.125397,0.12677,0.0892792
389,1438346167708,0.173462,0.253876,0.214249
390,1438346167728,0.444763,0.1492,0.275131
391,1438346167749,0.684021,-0.0174255,0.144821
392,1438346167767,0.932892,-0.30368,-0.14357
393,1438346167787,1.16254,-0.690338,-0.596451
394,1438346167807,1.13263,-1.02893,-0.956406
395,1438346167827,0.749176,-0.751221,-1.09206
396,1438346167846,0.594299,-0.0270386,-0.440506
397,1438346167866,0.619934,0.231445,0.279404
398,1438346167886,0.372131,-0.127441,0.625473
399,1438346167906,-0.251648,-0.517303,0.758987
400,1438346167924,-0.905335,-0.61557,0.799576
401,1438346167946,-1.14352,-0.596344,0.709854
402,1438346167963,-0.78891,-0.539734,0.459915
403,1438346167985,-0.129883,-0.368835,0.180069
404,1438346168004,0.413788,-0.158417,-0.0730743
405,1438346168024,0.555847,0.0755005,-0.22261
406,1438346168047,0.306976,0.623444,-0.0762787
407,1438346168064,-0.297577,1.42133,0.284744
408,1438346168083,-0.606262,1.44162,0.591293
409,1438346168103,-1.15421,0.142792,0.11705
410,1438346168123,-1.23859,-0.225708,0.0380096
411,1438346168143,-0.985443,0.376709,-0.254654
412,1438346168163,-0.652191,0.394867,-0.513138
413,1438346168182,0.00576782,0.293396,-0.457596
414,1438346168202,0.578278,0.270966,-0.336899
415,1438346168222,0.768402,0.206879,-0.326218
416,1438346168240,0.770538,0.0498657,-0.499252
417,1438346168261,0.847443,-0.193665,-0.740646
418,1438346168281,0.875214,-0.525848,-0.998062
419,1438346168300,0.861328,-0.472443,-1.00874
420,1438346168321,0.874146,0.0252991,-0.564407
421,1438346168340,0.743835,0.225037,0.174728
422,1438346168360,0.316589,-0.0163574,0.482346
423,1438346168381,-0.181152,-0.30368,0.681015
424,1438346168400,-0.757935,-0.511963,0.732285
425,1438346168419,-1.23004,-0.749085,0.685288
426,1438346168439,-1.41055,-0.937073,0.531479
427,1438346168458,-1.21936,-0.822784,0.368057
428,1438346168479,-0.778229,-0.58139,0.162979
429,1438346168499,-0.308258,-0.363495,-0.00898743
430,1438346168518,-0.115997,0.117157,0.078598
