id,attr_time,attr_x,attr_y,attr_z
1,1436286769054,1.6597804,9.949105,-0.88166475
2,1436286769055,1.5717934,10.007763,-0.8702923
3,1436286769056,1.5610195,10.010756,-0.8511387
4,1436286769057,1.6723499,9.988609,-0.8858546
5,1436286769058,1.7304093,9.940725,-0.89782566
6,1436286769059,1.6561891,9.970055,-0.86729956
7,1436286769079,1.5753847,10.00477,-0.8583213
8,1436286769093,1.5682021,10.00896,-0.8702923
9,1436286769113,1.6915035,9.9790325,-0.8888474
10,1436286769133,1.6825253,9.953894,-0.8559271
11,1436286769156,1.673547,9.973646,-0.8810662
12,1436286769173,1.5999253,9.979631,-0.85173726
13,1436286769193,1.5185224,10.029909,-0.85054016
14,1436286769219,1.6346412,9.985018,-0.86969376
15,1436286769233,1.7274165,9.958682,-0.89184016
16,1436286769255,1.6968905,9.965864,-0.9044097
17,1436286769277,1.5747862,9.991004,-0.842759
18,1436286769296,1.5837644,9.989806,-0.8499416
19,1436286769316,1.6555905,9.977237,-0.88765025
20,1436286769336,1.7435774,9.949704,-0.9091981
21,1436286769357,1.6968905,9.937134,-0.84934306
22,1436286769377,1.5316905,9.986216,-0.85891986
23,1436286769396,1.5634137,10.017939,-0.8475474
24,1436286769416,1.6938977,9.992201,-0.9020155
25,1436286769436,1.6663644,9.980828,-0.88645315
26,1436286769454,1.638831,9.958083,-0.85413146
27,1436286769477,1.6454151,9.965266,-0.85173726
28,1436286769497,1.6376339,9.988011,-0.88046765
29,1436286769514,1.6472107,10.000581,-0.8798691
30,1436286769534,1.6208745,9.977836,-0.8822633
31,1436286769556,1.690905,9.96766,-0.8774749
32,1436286769578,1.6585833,9.973646,-0.8463503
33,1436286769598,1.6519991,9.968858,-0.85532856
34,1436286769618,1.5939398,9.98442,-0.90500826
35,1436286769637,1.6861166,9.961076,-0.8834604
36,1436286769655,1.6250644,9.999383,-0.86969376
37,1436286769675,1.5861586,9.991602,-0.85473
38,1436286769696,1.5915456,9.977836,-0.84934306
39,1436286769716,1.6687586,9.991004,-0.87089086
40,1436286769737,1.6364368,9.982025,-0.8690952
41,1436286769805,1.6424223,9.983821,-0.8355764
42,1436286769806,1.6376339,9.967062,-0.8391677
43,1436286769807,1.6633717,9.997588,-0.8714894
44,1436286769815,1.6891093,9.975441,-0.8834604
45,1436286769834,1.6496049,9.980828,-0.8702923
46,1436286769854,1.6292542,9.996989,-0.85054016
47,1436286769874,1.6873137,9.969456,-0.85891986
48,1436286769896,1.644218,9.977836,-0.8523358
49,1436286769914,1.6334441,9.977836,-0.89064306
50,1436286769936,1.6292542,9.975441,-0.8738836
51,1436286769962,1.5765818,9.980828,-0.8571242
52,1436286769975,1.6992847,9.987412,-0.8762778
53,1436286769994,1.7124528,9.943718,-0.87687635
54,1436286770015,1.572392,9.9928,-0.86490536
55,1436286770034,1.6190789,10.010756,-0.8559271
56,1436286770057,1.7310078,9.986216,-0.9068039
57,1436286770077,1.6759412,9.961675,-0.8774749
58,1436286770097,1.5897499,9.983223,-0.86370826
59,1436286770117,1.6035166,9.9712515,-0.87089086
60,1436286770137,1.6609775,9.993997,-0.8810662
61,1436286770157,1.7004818,9.965864,-0.8631097
62,1436286770177,1.6466122,9.975441,-0.84216046
63,1436286770197,1.6238673,9.968858,-0.87567925
64,1436286770217,1.6220716,9.993997,-0.8511387
65,1436286770235,1.6430209,10.00896,-0.8702923
66,1436286770256,1.6717514,9.966463,-0.8571242
67,1436286770274,1.6831238,9.96766,-0.85293436
68,1436286770294,1.6448165,9.985617,-0.86849666
69,1436286770314,1.6077064,9.976639,-0.8523358
70,1436286770337,1.6196774,9.999982,-0.88286185
71,1436286770356,1.7046716,9.964069,-0.8607155
72,1436286770376,1.7381904,9.954493,-0.9032126
73,1436286770396,1.6741456,9.973047,-0.8750807
74,1436286770416,1.5705963,10.00477,-0.8319851
75,1436286770437,1.6142905,9.996989,-0.8451532
76,1436286770462,1.6867151,9.965864,-0.85772276
77,1436286770539,1.7226281,9.967062,-0.88645315
78,1436286770540,1.702876,9.953894,-0.8870517
79,1436286770541,1.5921441,10.002377,-0.8415619
80,1436286770542,1.5915456,10.011953,-0.85173726
81,1436286770557,1.6903064,9.985018,-0.8924387
82,1436286770593,1.7190368,9.959879,-0.90859956
83,1436286770596,1.6932992,9.968259,-0.86969376
84,1436286770616,1.5747862,10.002377,-0.83497787
85,1436286770647,1.6364368,9.999383,-0.8343793
86,1436286770656,1.6777369,9.988609,-0.9091981
87,1436286770689,1.7142484,9.965266,-0.90261406
88,1436286770695,1.6274586,9.974843,-0.8607155
89,1436286770715,1.6537948,9.970653,-0.85532856
90,1436286770739,1.6603789,9.9712515,-0.8738836
91,1436286770755,1.6490064,9.970653,-0.8912416
92,1436286770775,1.6843209,9.961076,-0.8583213
93,1436286770795,1.5951369,9.98442,-0.8379706
94,1436286770814,1.6316484,9.9928,-0.8810662
95,1436286770835,1.6861166,9.990405,-0.8738836
96,1436286770856,1.6801311,9.99639,-0.8936358
97,1436286770877,1.6915035,9.970055,-0.87567925
98,1436286770897,1.6514006,9.973047,-0.8678981
99,1436286770918,1.6304513,9.9790325,-0.8415619
100,1436286770935,1.5921441,9.995792,-0.8523358
101,1436286770958,1.6723499,9.980229,-0.9103952
102,1436286770975,1.6956934,9.959281,-0.8900445
103,1436286770994,1.6597804,10.000581,-0.8595184
104,1436286771015,1.62686,9.990405,-0.83378077
105,1436286771034,1.6436194,9.983821,-0.87089086
106,1436286771072,1.6651673,10.001179,-0.89184016
107,1436286771074,1.6891093,9.967062,-0.87687635
108,1436286771094,1.6705543,9.9550905,-0.85652566
109,1436286771114,1.6376339,9.977237,-0.8643068
110,1436286771137,1.6543933,9.987412,-0.83138657
111,1436286771157,1.6430209,9.991004,-0.8936358
112,1436286771177,1.6645688,9.976639,-0.8936358
113,1436286771196,1.6106992,9.983821,-0.8379706
114,1436286771218,1.5831659,9.991004,-0.8331822
115,1436286771258,1.6609775,9.995792,-0.86251116
116,1436286771259,1.6867151,9.961076,-0.9008184
117,1436286771274,1.6980876,9.9712515,-0.90859956
118,1436286771295,1.6537948,9.980229,-0.88286185
119,1436286771316,1.6334441,10.008362,-0.8583213
120,1436286771338,1.6693572,9.980229,-0.86610246
121,1436286771378,1.6765398,9.983821,-0.92775315
122,1436286771379,1.7076644,9.97604,-0.88166475
123,1436286771397,1.5801731,9.991602,-0.85772276
124,1436286771419,1.5783775,10.004171,-0.80205756
125,1436286771439,1.7429788,9.995792,-0.931943
126,1436286771456,1.5179238,9.931149,-0.95947635
127,1436286771479,1.7770962,9.9233675,-0.78649527
128,1436286771499,1.6136919,10.001778,-0.87807345
129,1436286771516,1.638831,9.997588,-0.8655039
130,1436286771537,1.6867151,9.9790325,-0.9247604
131,1436286771559,1.685518,9.949105,-0.91338795
132,1436286771575,1.6358383,9.964069,-0.8283938
133,1436286771597,1.6280571,9.96347,-0.83737206
134,1436286771615,1.6567876,9.976639,-0.8858546
135,1436286771639,1.6819267,9.985617,-0.9091981
136,1436286771656,1.6256629,9.983821,-0.87448215
137,1436286771675,1.6765398,9.965864,-0.8511387
138,1436286771695,1.6525977,9.9790325,-0.8702923
139,1436286771717,1.6136919,10.014347,-0.8678981
140,1436286771741,1.6555905,9.983821,-0.8924387
141,1436286771757,1.6807296,9.96766,-0.89423436
142,1436286771778,1.6591818,9.974843,-0.86370826
143,1436286771796,1.6172832,9.9790325,-0.87927055
144,1436286771816,1.6597804,9.970055,-0.89303726
145,1436286771836,1.6903064,9.991004,-0.89184016
146,1436286771857,1.666963,9.9712515,-0.8738836
147,1436286771880,1.6938977,9.964667,-0.87927055
148,1436286771943,1.644218,9.977836,-0.8607155
149,1436286771944,1.6496049,10.001179,-0.8762778
150,1436286771945,1.6849195,9.980229,-0.88765025
151,1436286771971,1.690905,9.966463,-0.89902276
152,1436286771982,1.6609775,9.961675,-0.8714894
153,1436286771998,1.6011224,10.001778,-0.88405895
154,1436286772017,1.6460136,10.005369,-0.8678981
155,1436286772036,1.6717514,9.980828,-0.89662856
156,1436286772056,1.7016789,9.947908,-0.8822633
157,1436286772076,1.6543933,9.970653,-0.87208796
158,1436286772097,1.6364368,9.998186,-0.88046765
159,1436286772116,1.6214731,10.004171,-0.8714894
160,1436286772137,1.6915035,9.961076,-0.87927055
161,1436286772156,1.697489,9.967062,-0.88765025
162,1436286772177,1.6466122,9.974843,-0.88765025
163,1436286772197,1.6292542,9.999383,-0.88046765
164,1436286772217,1.6561891,9.965864,-0.87687635
165,1436286772237,1.721431,9.967062,-0.88944596
166,1436286772257,1.650802,9.965266,-0.8822633
167,1436286772279,1.6885108,9.966463,-0.8912416
168,1436286772299,1.6424223,9.989806,-0.8762778
169,1436286772319,1.6627731,9.982025,-0.88405895
170,1436286772337,1.702876,9.956287,-0.88944596
171,1436286772357,1.6579847,9.97185,-0.87687635
172,1436286772377,1.6196774,9.987412,-0.8655039
173,1436286772399,1.6867151,9.97185,-0.87448215
174,1436286772419,1.6597804,9.970653,-0.8972271
175,1436286772436,1.6753427,9.983821,-0.8822633
176,1436286772457,1.6741456,9.974244,-0.8936358
177,1436286772477,1.7076644,9.9550905,-0.88765025
178,1436286772501,1.666963,9.988011,-0.88166475
179,1436286772516,1.6849195,9.988609,-0.86729956
180,1436286772540,1.6310499,9.981427,-0.90381116
181,1436286772559,1.6633717,9.980828,-0.89603
182,1436286772576,1.7429788,9.958682,-0.9247604
183,1436286772597,1.6514006,9.981427,-0.8595184
184,1436286772616,1.6490064,10.011953,-0.89303726
185,1436286772636,1.6801311,9.964667,-0.8499416
186,1436286772659,1.6023195,9.970055,-0.81283146
187,1436286772724,1.7788919,10.0029745,-0.9504981
188,1436286772725,1.6262615,9.983821,-0.86011696
189,1436286772726,1.738789,9.961076,-0.78050977
190,1436286772736,1.7621324,9.985018,-0.89662856
191,1436286772761,1.757344,10.011354,-0.93014735
192,1436286772776,1.7423803,9.926959,-0.86370826
193,1436286772798,1.6891093,9.935937,-0.830788
194,1436286772819,1.567005,9.946711,-0.85652566
195,1436286772837,1.7717092,9.957485,-0.8912416
196,1436286772859,1.721431,9.9473095,-0.8559271
197,1436286772877,1.644218,9.935937,-0.80325466
198,1436286772897,1.7657237,9.954493,-0.88405895
199,1436286772919,1.620276,9.988011,-0.86610246
200,1436286772938,1.541866,10.029909,-0.89064306
201,1436286772959,1.5699978,10.003573,-0.9056068
202,1436286772977,1.7615339,9.934141,-0.89064306
203,1436286772997,1.5101427,9.977836,-0.8559271
204,1436286773017,1.5221137,9.989806,-0.81283146
205,1436286773038,1.5263035,9.944317,-0.87328506
206,1436286773058,1.6454151,9.996989,-0.931943
207,1436286773080,1.5741876,10.031705,-0.9744401
208,1436286773098,1.4784195,10.051457,-0.93972415
209,1436286773119,1.5185224,10.034698,-0.9900024
210,1436286773138,1.5382746,9.935937,-0.99060094
211,1436286773159,1.6597804,9.980828,-1.0007763
212,1436286773180,1.4496891,9.989806,-0.93493575
213,1436286773199,1.5436616,10.0341,-0.99060094
214,1436286773220,1.4215573,10.165182,-1.0055647
215,1436286773240,1.323395,10.122087,-0.92775315
216,1436286773261,1.3449428,9.996989,-1.01574
217,1436286773278,1.2545617,9.9951935,-0.9696517
218,1436286773300,1.6519991,9.728839,-0.60453594
219,1436286773319,2.2828712,9.536105,-0.49559975
220,1436286773340,2.1015105,9.545084,-0.7799112
221,1436286773359,1.6699557,9.913791,-1.1402385
222,1436286773379,1.1821371,10.120889,-0.94930094
223,1436286773445,0.51235914,10.032304,-0.60693014
224,1436286773446,0.8086416,10.053253,-0.6757634
225,1436286773447,1.0420763,9.916783,-0.6901286
226,1436286773457,0.6931214,9.744401,-1.1444284
227,1436286773481,0.7009025,9.903615,-1.3545196
228,1436286773499,0.741604,10.044274,-1.5759833
229,1436286773519,0.0017956513,10.367492,-1.448492
230,1436286773539,-0.29987377,10.66976,-1.8471266
231,1436286773558,1.6747441,9.803658,-2.0003555
232,1436286773579,1.7280151,9.914988,-1.7729063
233,1436286773598,1.0971429,10.072407,-1.5478514
234,1436286773620,1.1599907,10.177153,-0.97025025
235,1436286773639,1.459266,9.958682,-0.6314707
236,1436286773661,1.4460979,9.878476,-1.1282675
237,1436286773681,1.7980455,9.929353,-1.8219875
238,1436286773700,0.6847417,9.997588,-1.6280571
239,1436286773721,1.0893618,10.267534,-1.7381904
240,1436286773737,0.4357447,9.983223,-1.2264298
241,1436286773760,1.258153,10.170568,-1.8680758
242,1436286773777,1.417966,10.0664215,-1.7393875
243,1436286773798,1.1115081,10.053851,-1.9027919
244,1436286773822,0.30945057,9.894038,-1.8124107
245,1436286775332,0.7733272,9.904813,-1.7232267
246,1436286775333,1.5035586,9.998785,-1.4407109
247,1436286775334,1.0510546,10.0269165,-0.8367735
248,1436286775335,0.7882909,10.014946,-0.8798691
249,1436286775336,0.7398083,9.72824,-0.46267948
250,1436286775337,2.12246,10.0987425,-0.85293436
251,1436286775338,1.988983,10.013748,-0.7134721
252,1436286775339,1.4024036,10.104729,-1.1097125
253,1436286775340,0.5781997,9.768942,-0.9768343
254,1436286775341,0.95588505,10.181941,-2.0081367
255,1436286775342,0.80205756,9.894637,-2.0219033
256,1436286775343,0.55964464,10.263943,-2.1481974
257,1436286775344,-0.06404489,9.874287,-1.6130934
258,1436286775345,0.95349085,10.061034,-1.5029601
259,1436286775346,1.0007763,10.140641,-1.7154455
260,1436286775347,0.83497787,10.104729,-1.7160441
261,1436286775348,2.3852234,10.389638,-1.8770541
262,1436286775349,1.1665748,9.988609,-1.9339164
263,1436286775350,2.2230163,10.345944,-1.0390835
264,1436286775351,0.23822308,10.247782,-0.86969376
265,1436286775352,-0.5177461,10.573393,-0.83378077
266,1436286775353,2.3995886,10.593145,0.08080431
267,1436286775354,1.7675194,10.774507,-0.8810662
268,1436286775355,0.48362875,12.588114,-0.7290344
269,1436286775356,-2.1098902,14.614207,0.10055647
270,1436286775357,-2.248754,13.968371,0.29209262
271,1436286775358,-0.4878186,13.864822,1.0971429
272,1436286775359,-0.11971009,11.243171,1.1174936
273,1436286775360,1.1270704,11.18152,2.834735
274,1436286775361,2.005144,13.424289,2.6102784
275,1436286775362,1.0073603,12.03625,3.4141316
276,1436286775363,-0.84455466,10.765528,2.2385786
277,1436286775364,-0.90021986,11.455657,0.45908818
278,1436286775365,3.6499605,9.93893,-0.41479546
279,1436286775366,4.472967,7.715315,0.7930793
280,1436286775367,2.9777884,2.9694088,-9.165603
281,1436286775368,6.1129956,5.1930237,-5.8885393
282,1436286775369,8.775947,8.465299,-1.8189948
283,1436286775370,6.429629,7.581838,-1.1402385
284,1436286775371,1.7741034,5.6964045,-0.521936
285,1436286775372,0.011372458,5.2379146,-0.85173726
286,1436286775373,1.1378443,5.943007,0.25139117
287,1436286775374,3.040636,6.2991447,0.46567222
288,1436286775375,3.9067385,7.337031,0.9828198
289,1436286775376,1.6460136,6.8785415,1.87047
290,1436286775377,0.08499416,6.9485717,1.8369513
291,1436286775378,0.5566519,7.905654,3.3794158
292,1436286775379,1.5197195,8.12233,4.144962
293,1436286775380,2.505532,8.637083,3.5314474
294,1436286775381,1.7597382,9.222465,4.3305125
295,1436286775382,1.7597382,9.34397,3.9270895
296,1436286775383,1.9189527,10.01734,3.774459
297,1436286775384,1.1498153,10.17835,3.6176388
298,1436286775385,1.0253168,10.181941,2.8592753
299,1436286775386,1.9907787,10.471041,3.2028434
300,1436286775387,3.1262288,10.958859,4.2263646
301,1436286775388,1.3970166,10.73979,4.0976763
302,1436286775389,0.17118542,10.2495775,2.3852234
303,1436286775390,0.6159084,10.262746,1.6944963
304,1436286775391,0.9672575,9.755175,1.5340848
305,1436286775392,-0.6039374,8.608951,1.2814964
306,1436286775393,-1.2599486,8.148665,0.061052144
307,1436286775394,2.9921536,8.983644,7.869741
308,1436286775395,19.06443,15.272014,2.067393
309,1436286775396,-4.959589,16.895283,8.422203
310,1436286775397,-19.11351,12.289437,0.5117606
311,1436286775398,0.6811504,12.392986,-2.6473885
312,1436286775399,10.140641,10.478823,-0.82360536
313,1436286775400,3.7666779,9.74859,1.5131354
314,1436286775401,-0.34237084,8.537724,2.2457612
315,1436286775402,0.96067345,8.585608,3.726575
316,1436286775403,1.1390414,9.655815,2.2505496
317,1436286775404,0.08439561,10.480618,0.42916065
318,1436286775405,1.0468647,11.200075,-0.059855044
319,1436286775406,1.4454993,10.963648,0.5895722
320,1436286775407,1.6777369,10.238205,1.3192052
321,1436286775408,1.7160441,9.913192,1.9045875
322,1436286775409,0.5291186,10.008362,2.112883
323,1436286775410,-0.52852005,9.718663,1.9333179
324,1436286775418,0.20111294,9.657013,1.7926586
325,1436286775438,-0.029927522,9.269751,2.0069396
326,1436286775458,-0.2100912,9.419388,1.8842367
327,1436286775478,-0.23343466,9.751583,1.186327
328,1436286775498,-1.086369,10.143634,0.8367735
329,1436286775518,-1.110311,10.561422,-0.16340427
330,1436286775538,-0.7918822,11.265318,-1.1246762
331,1436286775562,-0.7116765,11.118074,-0.6183026
332,1436286775583,-0.6206968,10.839149,-0.18076223
333,1436286775602,-1.4323312,10.2495775,0.39264908
334,1436286775623,-1.2036849,9.962274,0.38367084
335,1436286775642,-0.3561375,9.805453,0.22505496
336,1436286775663,-0.11671733,8.536526,-1.3664906
337,1436286775683,-1.2042835,9.551667,-1.6310499
338,1436286775706,-2.510919,10.028113,0.878672
339,1436286775723,-2.3810337,10.181941,0.050876785
340,1436286775740,-2.947861,9.577405,-1.2916719
341,1436286775760,-2.7970262,9.864111,-0.5117606
342,1436286775779,-2.0296845,10.028113,0.1604115
343,1436286775802,-2.2882583,9.883265,0.15801731
344,1436286775826,-2.6749218,9.675568,0.65182143
345,1436286775846,-3.2124202,8.724471,-0.31603462
346,1436286775862,-3.4506433,8.548497,-0.6799533
347,1436286775882,-3.4488475,9.891046,0.7763199
348,1436286775974,-2.3540988,10.407595,0.58119243
349,1436286775975,-1.2108675,11.246164,0.29747957
350,1436286775976,-0.5057751,11.14441,0.3238158
351,1436286775977,-0.59256494,10.70687,0.19931729
352,1436286775983,-1.4820108,9.8276,0.85173726
353,1436286776010,-2.8119898,9.730635,0.9780314
354,1436286776030,-4.6178164,9.779716,0.7625532
355,1436286776042,-5.4767365,9.164406,0.040102877
356,1436286776074,-4.4819455,8.16722,-0.7493851
357,1436286776080,-2.9496565,8.148665,-0.39683893
358,1436286776101,-2.473809,8.967483,-0.6003461
359,1436286776121,-2.393603,9.521142,-1.0061632
360,1436286776142,-1.3802572,9.167398,-0.9900024
361,1436286776162,-0.9211691,8.218696,-1.2659341
362,1436286776180,-0.6314707,7.392098,-1.714847
363,1436286776200,-1.1408371,10.229825,-1.2162545
364,1436286776220,-5.827487,11.689092,0.9708488
365,1436286776257,-7.0982094,9.657611,-3.679888
366,1436286776272,-5.5204306,8.388684,-4.3754034
367,1436286776280,-3.8486793,9.269751,-2.5594015
368,1436286776300,-5.4527946,9.539697,-0.6691794
369,1436286776320,-7.289746,7.8595657,-1.9985598
370,1436286776340,-6.659472,7.8128786,-2.1667526
371,1436286776362,-4.638766,9.36492,-0.51355624
372,1436286776381,-3.2704794,10.375273,1.4754268
373,1436286776403,-3.3931823,10.036493,1.5711949
374,1436286776424,-2.5677812,9.617508,1.6214731
375,1436286776443,-2.1386206,9.19972,-1.9357121
376,1436286776463,-5.379771,9.208698,-2.9987376
377,1436286776483,-6.14412,8.422802,-3.2692823
378,1436286776503,-5.3594203,8.599973,-1.9327193
379,1436286776520,-3.4584243,9.126099,-2.7790697
380,1436286776543,-2.0578163,9.88925,-2.183512
381,1436286776574,-3.1399956,9.432556,-1.3916297
382,1436286776590,-4.624999,8.97646,-2.3187842
383,1436286776601,-4.1796775,8.937555,-2.3361423
384,1436286776726,-3.5781345,9.164406,-1.3700819
385,1436286776727,-3.4380736,9.3182335,-1.5562311
386,1436286776728,-3.268684,9.264363,-1.6777369
387,1436286776729,-2.7802668,9.217078,-1.4191631
388,1436286776730,-2.0847511,9.44752,-1.234211
389,1436286776731,-2.6886885,9.519944,-1.3820529
390,1436286776750,-3.1435869,9.302073,-1.6394296
391,1436286776775,-2.3666685,9.250597,-1.204882
392,1436286776780,-1.9458874,9.392453,-1.1701661
393,1436286776801,-2.5354595,9.424775,-1.3982137
394,1436286776820,-3.2585084,9.48882,-1.2910733
395,1436286776856,-3.1573534,9.5492735,-1.6801311
396,1436286776860,-2.818574,9.412804,-1.8830396
397,1436286776881,-2.6635494,9.3733,-1.5891514
398,1436286776902,-2.7964275,9.361927,-1.5233108
399,1436286776921,-3.2255883,9.345766,-1.4814123
400,1436286776944,-3.6822822,9.385271,-1.496376
401,1436286776962,-3.8744168,9.256582,-1.8435353
402,1436286776983,-3.9719806,9.077017,-2.1152773
403,1436286777001,-3.7942111,9.115923,-1.9991584
404,1436286777022,-3.5673606,9.264962,-1.7872716
405,1436286777043,-3.6463692,9.209895,-1.7531542
406,1436286777065,-3.7726634,9.159617,-1.7016789
407,1436286777084,-3.7726634,9.233239,-1.7950528
408,1436286777102,-3.9594111,9.1255,-2.1817162
409,1436286777121,-3.9983168,9.051878,-2.1865046
410,1436286777142,-3.6613328,9.156625,-1.9488802
411,1436286777164,-3.5236664,9.208099,-1.9081788
412,1436286777184,-3.3291376,9.244013,-1.7166426
413,1436286777204,-3.1573534,9.288904,-1.6274586
