id,attr_time,attr_x,attr_y,attr_z
1,1436286769021,0.12988544,9.537901,0.9391256
2,1436286769043,0.15382746,9.543288,0.8343793
3,1436286769060,0.130484,9.5013895,0.65780693
4,1436286769081,0.17058687,9.560646,0.59495914
5,1436286769101,0.2088941,9.546281,0.6781576
6,1436286769122,0.20111294,9.482236,0.79487497
7,1436286769143,0.12509704,9.557653,0.9367314
8,1436286769162,0.039504327,9.560047,0.86969376
9,1436286769186,0.1400608,9.567828,0.66858083
10,1436286769227,0.25139117,9.55047,0.5141548
11,1436286769228,0.25079262,9.48882,0.641646
12,1436286769244,0.17956513,9.509769,0.95468795
13,1436286769264,0.06823475,9.529521,0.8870517
14,1436286769284,0.12509704,9.591172,0.7224504
15,1436286769301,0.26994625,9.6288805,0.58418524
16,1436286769321,0.24779987,9.521142,0.6087258
17,1436286769341,0.19093758,9.491813,0.83378077
18,1436286769363,0.077811554,9.507974,0.9115923
19,1436286769382,0.1340753,9.615114,0.6997054
20,1436286769402,0.24720132,9.601347,0.54408234
21,1436286769454,0.26156655,9.516354,0.66379243
22,1436286769455,0.17238252,9.487623,0.8912416
23,1436286769467,0.01436521,9.516952,0.93852705
24,1436286769480,0.10175357,9.58818,0.7278373
25,1436286769506,0.24001873,9.5971575,0.51235914
26,1436286769520,0.25258827,9.5385,0.62608373
27,1436286769541,0.16340427,9.449914,0.92176765
28,1436286769566,0.02813187,9.467272,0.9648633
29,1436286769582,0.021547815,9.607931,0.7284359
30,1436286769603,0.1436521,9.633071,0.46507367
31,1436286769621,0.30705637,9.547478,0.5291186
32,1436286769641,0.27234045,9.540894,0.87687635
33,1436286769664,0.12210429,9.516952,1.0995371
34,1436286769681,0.12210429,9.4696665,0.8822633
35,1436286769703,0.10594343,9.561843,0.5650316
36,1436286769722,0.15562311,9.6049385,0.41060558
37,1436286769742,0.18555063,9.544485,0.52253455
38,1436286769764,0.093972415,9.507375,0.9008184
39,1436286769783,0.0724246,9.551069,0.97384155
40,1436286769804,0.14664486,9.5809965,0.7194576
41,1436286769822,0.16519992,9.52174,0.50996494
42,1436286769843,0.20530279,9.533113,0.717662
43,1436286769864,0.12389994,9.541492,0.83138657
44,1436286769883,0.08259996,9.533711,0.8391677
45,1436286769904,0.15263036,9.585187,0.76315176
46,1436286769923,0.2112883,9.565434,0.6919243
47,1436286769944,0.16460137,9.534309,0.670975
48,1436286769964,0.17776948,9.51755,0.7763199
49,1436286769984,0.16759412,9.557653,0.84216046
50,1436286770005,0.11432313,9.569026,0.724246
51,1436286770022,0.1316811,9.555259,0.6691794
52,1436286770044,0.16101007,9.541492,0.6733692
53,1436286770065,0.18674773,9.535507,0.7918822
54,1436286770084,0.2100912,9.527127,0.80804306
55,1436286770103,0.12449849,9.526528,0.75357497
56,1436286770213,0.10175357,9.587581,0.6931214
57,1436286770214,0.15622166,9.5492735,0.7870938
58,1436286770215,0.110133275,9.507375,0.79966336
59,1436286770216,0.11192893,9.497798,0.78769237
60,1436286770217,0.090979666,9.522339,0.6877344
61,1436286770278,0.14604631,9.621099,0.6135142
62,1436286770345,0.20051439,9.582193,0.676362
63,1436286770346,0.18195933,9.494206,0.78050977
64,1436286770347,0.1340753,9.492412,0.8690952
65,1436286770348,0.06703765,9.539098,0.81163436
66,1436286770349,0.092775315,9.545084,0.61291564
67,1436286770350,0.13946225,9.560047,0.51355624
68,1436286770392,0.16938977,9.533711,0.7565677
69,1436286770393,0.15263036,9.540894,0.91578215
70,1436286770401,0.08499416,9.511565,0.85891986
71,1436286770421,0.08559271,9.5492735,0.6757634
72,1436286770441,0.142455,9.629479,0.6099229
73,1436286770461,0.16879122,9.55047,0.6452374
74,1436286770481,0.18674773,9.476251,0.74639237
75,1436286770501,0.1328782,9.546879,0.85293436
76,1436286770524,0.095768064,9.586982,0.7386112
77,1436286770544,0.20649989,9.5809965,0.60812724
78,1436286770566,0.20231004,9.491813,0.6997054
79,1436286770581,0.12270284,9.478644,0.78410107
80,1436286770605,0.05207389,9.567828,0.79846627
81,1436286770626,0.017956512,9.638457,0.6979098
82,1436286770643,0.14065935,9.589376,0.6344634
83,1436286770663,0.24181437,9.478644,0.61291564
84,1436286770682,0.22804771,9.449316,0.8355764
85,1436286770704,0.108337626,9.507375,0.9008184
86,1436286770724,-0.018555064,9.633669,0.7368156
87,1436286770741,0.11492168,9.659407,0.62249243
88,1436286770761,0.22266077,9.501988,0.6051345
89,1436286770786,0.22565351,9.479841,0.7164649
90,1436286770804,0.06823475,9.516354,0.8762778
91,1436286770825,0.0011971008,9.5809965,0.87208796
92,1436286770845,0.14664486,9.615114,0.6596026
93,1436286770861,0.22146365,9.515156,0.60573304
94,1436286770884,0.08559271,9.484032,0.75477207
95,1436286770901,0.010773907,9.527725,0.8535329
96,1436286770924,0.055066638,9.535507,0.75956047
97,1436286770943,0.17298107,9.547478,0.5835867
98,1436286770968,0.19093758,9.51336,0.61890113
99,1436286770984,0.12868834,9.533113,0.78529817
100,1436286771002,0.01436521,9.561843,0.84216046
101,1436286771021,0.095768064,9.585187,0.842759
102,1436286771042,0.2172738,9.575011,0.7188591
103,1436286771064,0.22146365,9.532514,0.521936
104,1436286771082,0.15143326,9.463681,0.6422446
105,1436286771103,0.074818805,9.498995,0.8343793
106,1436286771123,0.047884032,9.561843,0.8206126
107,1436286771143,0.15143326,9.644443,0.7517793
108,1436286771162,0.17956513,9.558251,0.6500258
109,1436286771216,0.207697,9.503185,0.6931214
110,1436286771217,0.11791443,9.436746,0.8182184
111,1436286771237,0.10175357,9.572019,0.8678981
112,1436286771243,0.16819267,9.585187,0.65242
113,1436286771266,0.2100912,9.565434,0.65780693
114,1436286771285,0.16220717,9.489418,0.705691
115,1436286771306,0.12150574,9.479243,0.8074445
116,1436286771324,0.16460137,9.5385,0.8283938
117,1436286771343,0.10354923,9.612122,0.7422025
118,1436286771366,0.089184016,9.564836,0.6667852
119,1436286771385,0.15682021,9.537901,0.7134721
120,1436286771406,0.14185645,9.545084,0.78769237
121,1436286771424,0.16400282,9.532514,0.8194155
122,1436286771445,0.14664486,9.518148,0.7344214
123,1436286771466,0.24301147,9.553463,0.78649527
124,1436286771485,0.23163901,9.500791,0.7422025
125,1436286771506,0.14784196,9.499594,0.6548142
126,1436286771527,0.10055647,9.578603,0.724246
127,1436286771547,0.110133275,9.599552,0.7272388
128,1436286771565,0.108337626,9.567828,0.717662
129,1436286771585,0.15801731,9.528324,0.78529817
130,1436286771603,0.22744916,9.509171,0.6925228
131,1436286771656,0.30825347,9.547478,0.736217
132,1436286771657,0.26276365,9.533113,0.81163436
133,1436286771666,0.12749124,9.52174,0.7721301
134,1436286771683,0.12210429,9.518148,0.7493851
135,1436286771706,0.142455,9.568427,0.6679823
136,1436286771728,0.21188685,9.60015,0.6751649
137,1436286771743,0.2669535,9.556456,0.7505822
138,1436286771763,0.23403321,9.515156,0.7691373
139,1436286771785,0.19692309,9.455899,0.86729956
140,1436286771805,0.22685061,9.527127,0.8355764
141,1436286771823,0.20410569,9.580399,0.7320272
142,1436286771844,0.16819267,9.5732155,0.7230489
143,1436286771868,0.18315643,9.576807,0.741604
144,1436286771886,0.22266077,9.503185,0.736217
145,1436286771906,0.2184709,9.4972,0.78290397
146,1436286771927,0.17238252,9.601347,0.7721301
147,1436286771946,0.17477672,9.572617,0.8439561
148,1436286771967,0.25378537,9.526528,0.8122329
149,1436286771986,0.20410569,9.534309,0.6859388
150,1436286772006,0.13706805,9.533711,0.64823014
151,1436286772026,0.2184709,9.557653,0.66498953
152,1436286772047,0.23582886,9.545682,0.7068881
153,1436286772064,0.24959552,9.53012,0.80205756
154,1436286772086,0.17537527,9.504382,0.7990648
155,1436286772106,0.14604631,9.547478,0.6901286
156,1436286772129,0.18614918,9.576807,0.6769605
157,1436286772147,0.17537527,9.51755,0.6931214
158,1436286772164,0.15442601,9.481637,0.705691
159,1436286772193,0.16101007,9.518148,0.7260417
160,1436286772208,0.16400282,9.614515,0.81163436
161,1436286772227,0.21787235,9.631873,0.7410054
162,1436286772247,0.22685061,9.502586,0.6733692
163,1436286772263,0.26036942,9.532514,0.7823054
164,1436286772286,0.17118542,9.554062,0.75836337
165,1436286772306,0.08738836,9.566631,0.6697779
166,1436286772334,0.22325931,9.599552,0.599149
167,1436286772345,0.30526072,9.515755,0.78290397
168,1436286772409,0.19093758,9.506777,0.8182184
169,1436286772410,0.12270284,9.605537,0.8062474
170,1436286772411,0.16160862,9.613318,0.6799533
171,1436286772427,0.26874915,9.540296,0.5907693
172,1436286772444,0.2172738,9.478644,0.59017074
173,1436286772468,0.16639702,9.476849,0.7679402
174,1436286772483,0.16460137,9.576208,0.7649474
175,1436286772510,0.17956513,9.626487,0.74758947
176,1436286772526,0.18734628,9.559449,0.7356185
177,1436286772545,0.17477672,9.4972,0.7152678
178,1436286772565,0.15682021,9.522937,0.7673417
179,1436286772585,0.18495208,9.588778,0.7182605
180,1436286772609,0.18734628,9.556456,0.60333884
181,1436286772628,0.23942018,9.580399,0.7098808
182,1436286772646,0.17238252,9.519944,0.7697359
183,1436286772667,0.13347675,9.484032,0.84575176
184,1436286772686,0.11192893,9.547478,0.7284359
185,1436286772707,0.1400608,9.584588,0.57400984
186,1436286772727,0.1388637,9.55047,0.6548142
187,1436286772747,0.17537527,9.545084,0.7727286
188,1436286772767,0.19931729,9.531916,0.76195467
189,1436286772787,0.20649989,9.527725,0.712275
190,1436286772805,0.17537527,9.586982,0.64583594
191,1436286772827,0.19572599,9.554661,0.6727707
192,1436286772846,0.20231004,9.551069,0.6799533
193,1436286772866,0.1400608,9.5798,0.6835446
194,1436286772886,0.08319851,9.642648,0.7074866
195,1436286772907,0.1364695,9.67856,0.57999533
196,1436286772927,0.08499416,9.556456,0.4997896
197,1436286772947,0.23642741,9.605537,0.70509243
198,1436286772967,0.2741361,9.61691,0.61291564
199,1436286772986,0.33877954,9.372701,0.5967548
200,1436286773006,0.53689975,9.479243,0.62967503
201,1436286773027,0.4297592,9.529521,0.48841715
202,1436286773046,0.3890578,9.547478,0.66379243
203,1436286773068,0.2705448,9.5492735,0.6991069
204,1436286773211,0.28072014,9.528324,0.44771573
205,1436286773212,0.40940848,9.458294,0.5021838
206,1436286773213,0.32800564,9.503185,0.664391
207,1436286773214,0.2633622,9.536704,0.7230489
208,1436286773215,0.3238158,9.5809965,0.6464345
209,1436286773221,0.24720132,9.46847,0.6703765
210,1436286773222,0.19931729,9.456498,0.81761986
211,1436286773225,0.2112883,9.482236,0.801459
212,1436286773256,0.28191724,9.3733,0.49679685
213,1436286773295,0.29688102,9.318831,0.26036942
214,1436286773296,0.31483752,9.455301,0.350152
215,1436286773304,0.3585317,9.561843,0.5315128
216,1436286773324,0.36032736,9.534908,0.52073884
217,1436286773344,0.36870706,9.333796,0.6015432
218,1436286773364,0.26635495,9.340978,0.81761986
219,1436286773384,0.3250129,9.516952,0.93493575
220,1436286773407,0.040102877,9.479243,0.5363012
221,1436286773428,-0.23942018,9.226056,0.93134445
222,1436286773447,-0.05805939,9.489418,1.3694834
223,1436286773468,0.31244332,9.378088,0.48482585
224,1436286773488,0.43394905,9.422979,0.033518825
225,1436286773508,0.6087258,9.561843,0.28550854
226,1436286773528,0.94331545,9.575011,0.4758476
227,1436286773548,1.9458874,9.492412,1.2419921
228,1436286773564,2.8401217,9.320028,2.2056582
229,1436286773585,2.618658,9.514558,2.8107927
230,1436286773605,1.560421,9.6288805,2.8329391
231,1436286773630,0.7954735,9.41041,2.9388826
232,1436286773649,0.11731588,9.056666,2.1080947
233,1436286773669,0.0005985504,8.925584,0.9235633
234,1436286773688,0.39025488,9.135675,0.22744916
235,1436286773705,0.37110126,9.779716,-0.08619126
236,1436286773727,-0.4261679,10.579379,-0.4950012
237,1436286773747,-1.1851299,11.444882,0.22026655
238,1436286773769,-1.2491747,11.110891,1.2497733
239,1436286773790,-2.4307132,9.247604,1.2635399
240,1436286773810,-2.3145945,8.02716,-1.1707647
241,1436286773827,1.0606314,9.336189,-1.283292
242,1436286773847,4.8787847,10.239402,1.3844471
243,1436286773915,5.898116,9.55885,3.8013937
244,1436286773916,1.7968484,8.7532015,6.202778
245,1436286773917,-1.1599907,7.957728,3.9576154
246,1436286773927,-2.2529438,7.905654,0.8343793
247,1436286773947,-2.2080526,9.904813,1.7286136
248,1436286773968,-1.2862848,10.663176,2.9053638
249,1436286773985,-0.6769605,9.859921,2.2098482
250,1436286774012,0.05566519,8.8777,1.0857705
251,1436286774027,0.40043023,8.403049,2.4289176
252,1436286774048,0.09756372,8.500014,4.4939165
253,1436286774066,-0.7811083,8.142081,3.3399115
254,1436286774086,-0.18016368,9.051279,2.0338743
255,1436286774105,1.2306197,9.49301,2.0231004
256,1436286774131,1.9339164,9.570223,2.6402059
257,1436286774147,2.8604724,9.485229,3.007716
258,1436286774167,0.9331401,8.875306,3.6685154
259,1436286774187,-0.073023155,8.265982,3.0053217
260,1436286774207,-0.770933,8.477868,3.697246
261,1436286774226,-2.1386206,8.324639,3.6721067
262,1436286774248,-2.2499511,8.056489,3.2956185
263,1436286774268,-1.1426327,8.345589,3.7193923
264,1436286774288,-0.23104046,8.811261,3.5871127
265,1436286774306,-0.7966706,8.981848,4.0264487
266,1436286774328,-1.3126211,8.98903,3.1022868
267,1436286774348,-1.6699557,9.129689,2.9765913
268,1436286774369,-0.74998367,8.659827,2.918532
269,1436286774388,1.2395979,7.9182234,3.5224693
270,1436286774408,2.7162218,7.383718,3.2070332
271,1436286774428,3.2992098,8.732851,2.7629087
272,1436286774449,4.10845,10.163984,2.1996727
273,1436286774468,3.1603463,10.47164,3.2692823
274,1436286774489,2.0350714,9.22067,3.9504328
275,1436286774508,1.8004397,8.968679,4.9775453
276,1436286774528,2.5605986,10.10413,5.456984
277,1436286774547,2.7126305,11.636418,5.1289787
278,1436286774574,1.3880384,11.205462,5.0930657
279,1436286774631,2.7126305,8.689157,7.0467343
280,1436286774641,5.374983,9.404425,9.24521
281,1436286774642,8.199542,10.874464,6.6002154
282,1436286774646,6.2225304,10.29806,1.8405426
283,1436286774666,2.3361423,7.925406,1.5227122
284,1436286774686,-0.5554548,6.627749,3.8666358
285,1436286774706,-3.1741128,4.84766,5.0505686
286,1436286774726,-1.869273,3.7062242,5.8741736
287,1436286774753,0.107739076,4.0533834,6.465542
288,1436286774766,2.3116016,5.533599,4.815338
289,1436286774788,5.4581814,6.8749504,2.4612393
290,1436286774806,5.301361,6.0836663,5.5563436
291,1436286774830,3.1789012,4.969764,7.872135
292,1436286774846,0.94570965,5.0278234,6.053739
293,1436286774869,0.5626374,5.8837504,4.9164934
294,1436286774889,0.9020155,5.5443726,5.525219
295,1436286774909,1.1797429,4.561553,6.311714
296,1436286774931,1.389834,4.5561657,6.4840965
297,1436286774946,1.158195,4.743512,6.5726824
298,1436286774969,2.1960814,5.1140146,4.1653123
299,1436286774989,1.0875661,4.8057613,5.864597
300,1436286775009,0.748188,5.195418,6.757634
301,1436286775030,0.5554548,5.514445,6.521207
302,1436286775047,1.3431472,6.4068837,5.443816
303,1436286775070,1.5011644,6.3697734,5.3683987
304,1436286775087,0.7074866,4.945224,5.901707
305,1436286775107,0.44891283,5.3899465,6.7785835
306,1436286775130,1.5298948,5.674258,6.237494
307,1436286775147,1.6382325,5.715558,6.365584
308,1436286775169,1.3006501,5.0116625,6.1848216
309,1436286775187,1.0708067,4.571728,6.825869
310,1436286775208,0.24540567,4.38498,7.8224554
311,1436286775230,0.36511576,4.208408,5.7885814
312,1436286775268,-0.22565351,4.377199,6.215946
313,1436286775269,0.7661445,4.782418,6.9928646
314,1436286775294,1.316811,4.7919946,8.503007
315,1436286775306,-0.15562311,4.1695023,8.7609825
316,1436286775342,-1.2916719,6.077681,9.167996
317,1436286775352,-2.2403743,6.3446345,9.685144
318,1436286775370,0.31184477,2.0260932,11.396998
319,1436286775387,3.527856,3.4398694,8.81605
320,1436286775406,2.3092074,4.299388,8.901642
321,1436286775427,0.93373865,3.357868,9.34397
322,1436286775447,-0.49200845,1.3838485,10.835558
323,1436286775470,-0.5129577,2.3002293,11.254543
324,1436286775486,1.6226702,5.1439424,9.847352
325,1436286775507,2.6803088,4.730344,10.965444
326,1436286775529,2.6821043,2.944868,12.85387
327,1436286775546,1.8429368,2.2331917,14.367006
328,1436286775569,0.7026982,1.7046716,10.121488
329,1436286775586,-0.93014735,1.0468647,7.631518
330,1436286775606,-1.2360066,-0.29867667,8.571242
331,1436286775634,-1.9213469,0.8924387,8.709507
332,1436286775646,0.48482585,0.16699557,8.205527
333,1436286775666,-2.5300727,-2.1691468,8.3408
334,1436286775688,-2.5516205,-0.6895301,8.399458
335,1436286775710,-4.0037036,-1.0923545,10.585963
336,1436286775730,-2.4079683,-0.14724341,10.635642
337,1436286775747,-1.7423803,-0.50637364,6.923433
338,1436286775771,-4.36044,-1.0516531,8.967483
339,1436286775790,-5.168483,-1.0390835,11.106702
340,1436286775810,-3.554791,-0.45370123,10.465055
341,1436286775830,-1.2844892,0.073621705,9.450513
342,1436286775850,-1.3365631,-0.022744916,8.30369
343,1436286775869,-2.2391772,0.011372458,8.043321
344,1436286775889,-2.3570917,-0.46327803,9.114127
345,1436286775908,-1.508347,0.17717093,10.032304
346,1436286775930,-2.110489,0.49200845,8.9279785
347,1436286775951,-3.7349546,-0.8607155,8.863934
348,1436286775970,-2.203264,-2.823961,10.374076
349,1436286775988,-1.7711107,-4.0557775,10.956466
350,1436286776010,-2.533664,-3.9606082,9.6845455
351,1436286776038,-2.3822308,-1.1923125,7.277176
352,1436286776054,-2.2810757,-0.34237084,8.456321
353,1436286776073,-2.698864,-0.6368576,8.680777
354,1436286776087,-1.2587515,-0.047884032,9.094974
355,1436286776108,0.20949265,0.92775315,10.046669
356,1436286776127,-0.6099229,0.6703765,9.515755
357,1436286776147,-1.6460136,-0.54049104,9.258378
358,1436286776168,-0.23343466,0.12808979,9.910199
359,1436286776186,0.60932434,0.51954174,9.424775
360,1436286776209,-0.36870706,0.12150574,8.9363575
361,1436286776226,-1.0145429,0.027533319,8.985439
362,1436286776246,-0.94092125,0.20290859,9.04709
363,1436286776270,-1.158195,-0.90620536,10.33517
364,1436286776287,-2.3421278,-1.1881226,10.543466
365,1436286776311,-2.4474726,-0.3274071,9.792884
366,1436286776331,-2.516306,-1.2635399,9.564238
367,1436286776350,-2.4881742,-2.508525,9.294291
368,1436286776369,-2.022502,-2.4821887,8.209119
369,1436286776390,-1.4556746,-1.7100586,8.828619
370,1436286776409,-1.804031,-0.035913024,10.801441
371,1436286776431,-1.9686323,1.3838485,10.389638
372,1436286776450,-1.9865888,1.7956513,8.638878
373,1436286776469,-1.5328877,0.42676646,9.043498
374,1436286776490,-1.2988545,-0.24899697,8.219893
375,1436286776511,-1.6286557,0.8451532,8.189367
376,1436286776531,-1.049259,1.4257472,7.7470384
377,1436286776551,-1.210269,0.79607207,9.306262
378,1436286776569,-1.6555905,0.95947635,9.818023
379,1436286776590,-2.1350293,1.1079168,9.200318
380,1436286776611,-3.1471782,0.94331545,8.766968
381,1436286776630,-4.1515455,0.1436521,9.0237465
382,1436286776649,-4.409521,-0.2621651,9.210494
383,1436286776674,-3.1747115,-0.12689269,9.085996
384,1436286776731,-2.244564,-0.427365,9.138069
385,1436286776732,-2.0620062,-0.12389994,8.93935
386,1436286776733,-2.5791538,0.18974048,8.602965
387,1436286776754,-3.0538042,0.17298107,8.939949
388,1436286776768,-3.1908724,0.19393034,8.92738
389,1436286776790,-2.6880898,0.38606504,9.193136
390,1436286776808,-2.4199393,0.31124622,9.090185
391,1436286776828,-2.582745,-0.018555064,9.3421755
392,1436286776850,-2.4702177,0.26515785,9.568427
393,1436286776869,-2.0177135,0.5410896,9.345168
394,1436286776889,-1.762731,0.9923966,8.74961
395,1436286776908,-1.9045875,1.1366472,8.557475
396,1436286776931,-2.1942859,0.94930094,8.414422
397,1436286776949,-2.2224178,1.2641385,8.340201
398,1436286776971,-2.3523033,1.471237,8.18398
399,1436286776989,-2.1978772,1.5107412,8.152257
400,1436286777011,-1.6364368,0.973243,8.555679
401,1436286777031,-1.9357121,0.64703304,8.893262
402,1436286777051,-2.4313118,0.50876784,9.51755
403,1436286777071,-2.6521769,0.35793316,9.886856
404,1436286777090,-2.4349031,0.26036942,9.294889
405,1436286777111,-2.2056582,-0.091578215,8.89446
406,1436286777131,-2.5312698,-0.44711718,8.686762
407,1436286777151,-2.741361,-0.8038532,8.707711
408,1436286777170,-2.9879637,-0.44831428,9.015965
409,1436286777194,-2.5821466,-0.30107087,10.171167
410,1436286777217,-2.0153193,-0.20290859,10.177153
411,1436286777230,-2.1338322,-0.3417723,9.314642
412,1436286777251,-2.360683,-0.80564886,8.575432
413,1436286777271,-2.4809916,-0.98341835,8.497621
414,1436286777289,-2.0649989,-0.31184477,9.164406
415,1436286777310,-1.5388732,0.061052144,9.582792
416,1436286777331,-1.4221559,-0.034715924,9.809045
