id,attr_time,attr_x,attr_y,attr_z
1,1436286769014,1.5765818,9.514558,-0.37588966
2,1436286769040,1.6555905,9.542689,-0.46567222
3,1436286769055,1.6089035,9.569026,-0.492607
4,1436286769084,1.5759833,9.556456,-0.47225627
5,1436286769097,1.6041151,9.595362,-0.45250413
6,1436286769115,1.6352397,9.596559,-0.47644615
7,1436286769136,1.6124948,9.594165,-0.47285482
8,1436286769156,1.5987282,9.610924,-0.4782418
9,1436286769186,1.6005238,9.626487,-0.47225627
10,1436286769256,1.620276,9.591172,-0.4890157
11,1436286769257,1.5897499,9.575011,-0.50397944
12,1436286769258,1.6017209,9.574412,-0.5255273
13,1436286769259,1.6819267,9.648633,-0.4818331
14,1436286769276,1.6531962,9.654618,-0.40521863
15,1436286769297,1.6124948,9.597756,-0.47764325
16,1436286769316,1.572392,9.545084,-0.39384618
17,1436286769345,1.6166847,9.491214,-0.49679685
18,1436286769355,1.6436194,9.688137,-0.6422446
19,1436286769376,1.6944963,9.698911,-0.7272388
20,1436286769400,1.6436194,9.576807,-0.46387658
21,1436286769415,1.6250644,9.57561,-0.42556936
22,1436286769438,1.614889,9.671378,-0.5069722
23,1436286769457,1.6316484,9.662998,-0.5967548
24,1436286769478,1.6262615,9.658808,-0.5315128
25,1436286769495,1.6543933,9.580399,-0.4961983
26,1436286769516,1.6220716,9.576807,-0.53809685
27,1436286769538,1.6160861,9.536704,-0.5823896
28,1436286769556,1.5825673,9.613917,-0.5746084
29,1436286769578,1.6873137,9.671378,-0.62129533
30,1436286769595,1.738789,9.642648,-0.5117606
31,1436286769615,1.6328455,9.606135,-0.4225766
32,1436286769637,1.5879543,9.52593,-0.4890157
33,1436286769656,1.602918,9.54209,-0.51355624
34,1436286769678,1.6633717,9.646238,-0.5805939
35,1436286769695,1.6813282,9.6845455,-0.5710171
36,1436286769717,1.6274586,9.619304,-0.5327099
37,1436286769738,1.6226702,9.561843,-0.53450555
38,1436286769756,1.6214731,9.569026,-0.5482722
39,1436286769776,1.654992,9.60015,-0.5351041
40,1436286769796,1.6693572,9.616311,-0.5267244
41,1436286769817,1.6496049,9.607333,-0.5506664
42,1436286769838,1.6118963,9.616311,-0.5638345
43,1436286769857,1.6430209,9.592968,-0.557849
44,1436286769875,1.6472107,9.572019,-0.51116204
45,1436286769896,1.6304513,9.618107,-0.54767364
46,1436286769967,1.6795325,9.594764,-0.6907272
47,1436286769979,1.6591818,9.499594,-0.38606504
48,1436286769980,1.6591818,9.669582,-0.682946
49,1436286769981,1.6567876,9.702502,-0.7356185
50,1436286769995,1.6705543,9.582193,-0.5386954
51,1436286770019,1.6705543,9.544485,-0.48243165
52,1436286770035,1.6448165,9.600749,-0.5650316
53,1436286770056,1.62686,9.6049385,-0.6374562
54,1436286770076,1.6352397,9.652225,-0.55605334
55,1436286770099,1.6597804,9.615114,-0.5410896
56,1436286770116,1.6938977,9.570223,-0.60932434
57,1436286770141,1.6741456,9.57561,-0.6206968
58,1436286770162,1.6250644,9.573814,-0.59615624
59,1436286770179,1.6681601,9.616311,-0.62009823
60,1436286770199,1.7154455,9.604341,-0.5386954
61,1436286770218,1.6891093,9.647436,-0.48841715
62,1436286770239,1.6316484,9.5492735,-0.504578
63,1436286770259,1.6089035,9.531317,-0.55006784
64,1436286770278,1.6400281,9.548077,-0.59376204
65,1436286770299,1.6861166,9.634268,-0.56802434
66,1436286770320,1.6825253,9.672575,-0.5351041
67,1436286770336,1.6609775,9.613318,-0.5386954
68,1436286770359,1.6573862,9.541492,-0.60094464
69,1436286770379,1.6250644,9.536704,-0.56982
70,1436286770399,1.6484078,9.610326,-0.58777654
71,1436286770418,1.6681601,9.673772,-0.56443304
72,1436286770440,1.6525977,9.645041,-0.55605334
73,1436286770459,1.6531962,9.554062,-0.4997896
74,1436286770479,1.6472107,9.511565,-0.52373165
75,1436286770498,1.6657659,9.527725,-0.641646
76,1436286770519,1.7244238,9.609727,-0.5758055
77,1436286770540,1.7405846,9.636064,-0.39145198
78,1436286770559,1.6950948,9.69532,-0.5847838
79,1436286770578,1.6418238,9.594165,-0.7637503
80,1436286770611,1.6711528,9.5492735,-0.6500258
81,1436286770619,1.6801311,9.494206,-0.50757074
82,1436286770706,1.6777369,9.69532,-0.5398925
83,1436286770707,1.6286557,9.646238,-0.5883751
84,1436286770708,1.6166847,9.582792,-0.5614403
85,1436286770709,1.6591818,9.5570545,-0.61890113
86,1436286770720,1.7136499,9.575011,-0.58418524
87,1436286770738,1.6699557,9.5971575,-0.56443304
88,1436286770756,1.6017209,9.606135,-0.5662287
89,1436286770777,1.5939398,9.61691,-0.5662287
90,1436286770796,1.7106571,9.582193,-0.5793968
91,1436286770816,1.7274165,9.603143,-0.5267244
92,1436286770836,1.6693572,9.61691,-0.50397944
93,1436286770860,1.6424223,9.581595,-0.54049104
94,1436286770876,1.6328455,9.577405,-0.53689975
95,1436286770897,1.6573862,9.586982,-0.61171854
96,1436286770916,1.6777369,9.628283,-0.56323594
97,1436286770942,1.6543933,9.60853,-0.5374983
98,1436286770959,1.6035166,9.5798,-0.5255273
99,1436286770980,1.6358383,9.578004,-0.6027403
100,1436286770997,1.6567876,9.622296,-0.6464345
101,1436286771020,1.666963,9.639654,-0.5979519
102,1436286771040,1.6543933,9.60853,-0.5746084
103,1436286771059,1.6849195,9.605537,-0.5602432
104,1436286771084,1.6729485,9.56723,-0.49679685
105,1436286771099,1.6603789,9.586982,-0.7134721
106,1436286771121,1.6430209,9.629479,-0.47345337
107,1436286771147,1.6986861,9.632472,-0.54288524
108,1436286771162,1.6891093,9.69532,-0.7020996
109,1436286771180,1.6424223,9.636662,-0.7673417
110,1436286771200,1.6154876,9.536704,-0.5793968
111,1436286771219,1.6537948,9.552266,-0.56982
112,1436286771240,1.6519991,9.689933,-0.521936
113,1436286771259,1.5975311,9.654618,-0.6003461
114,1436286771280,1.5981296,9.606734,-0.5662287
115,1436286771301,1.6424223,9.576208,-0.62249243
116,1436286771320,1.6675615,9.586982,-0.6386533
117,1436286771339,1.6765398,9.584588,-0.5967548
118,1436286771361,1.5957354,9.607333,-0.5602432
119,1436286771429,1.6394296,9.569026,-0.65660983
120,1436286771430,1.6436194,9.533113,-0.54527944
121,1436286771431,1.6160861,9.613318,-0.49799395
122,1436286771439,1.6214731,9.631873,-0.54887074
123,1436286771467,1.6418238,9.664195,-0.5374983
124,1436286771480,1.644218,9.66659,-0.5201403
125,1436286771497,1.6190789,9.625888,-0.55246204
126,1436286771518,1.6005238,9.606135,-0.5686229
127,1436286771541,1.6352397,9.552865,-0.57400984
128,1436286771557,1.6543933,9.52174,-0.54168814
129,1436286771581,1.6418238,9.582792,-0.6027403
130,1436286771608,1.6244658,9.615114,-0.6386533
131,1436286771617,1.6531962,9.601946,-0.61770403
132,1436286771637,1.6364368,9.570822,-0.5518635
133,1436286771700,1.6567876,9.578004,-0.5363012
134,1436286771701,1.6406267,9.628283,-0.5566519
135,1436286771702,1.6729485,9.585785,-0.7116765
136,1436286771717,1.6525977,9.597756,-0.48961425
137,1436286771737,1.632247,9.604341,-0.4878186
138,1436286771764,1.6382325,9.598953,-0.80924016
139,1436286771827,1.6310499,9.511565,-0.61530983
140,1436286771828,1.6591818,9.463681,-0.5955577
141,1436286771829,1.6747441,9.57142,-0.52073884
142,1436286771837,1.6502035,9.578004,-0.58418524
143,1436286771857,1.6651673,9.551667,-0.6087258
144,1436286771877,1.6418238,9.53012,-0.59974754
145,1436286771897,1.6430209,9.515755,-0.63087213
146,1436286771917,1.6334441,9.546281,-0.5967548
147,1436286771937,1.6059108,9.592369,-0.5291186
148,1436286771960,1.5999253,9.60853,-0.6039374
149,1436286771977,1.6879122,9.6049385,-0.6811504
150,1436286771997,1.6759412,9.620501,-0.4830302
151,1436286772017,1.5921441,9.593566,-0.4950012
152,1436286772037,1.5777789,9.574412,-0.545878
153,1436286772057,1.6065093,9.606135,-0.5895722
154,1436286772092,1.6184803,9.610326,-0.5686229
155,1436286772135,1.5999253,9.60015,-0.5386954
156,1436286772136,1.6172832,9.581595,-0.5351041
157,1436286772139,1.5957354,9.540894,-0.5770026
158,1436286772156,1.5981296,9.589376,-0.6147113
159,1436286772176,1.6220716,9.662399,-0.6548142
160,1436286772196,1.6292542,9.662998,-0.5770026
161,1436286772216,1.6196774,9.632472,-0.55246204
162,1436286772236,1.5622166,9.559449,-0.5093664
163,1436286772256,1.5807717,9.590573,-0.62249243
164,1436286772276,1.6376339,9.64145,-0.53689975
165,1436286772296,1.6502035,9.569026,-0.46866497
166,1436286772316,1.6262615,9.67856,-0.6655881
167,1436286772336,1.6208745,9.653421,-0.85293436
168,1436286772356,1.6292542,9.548675,-0.65301853
169,1436286772376,1.6567876,9.506777,-0.545878
170,1436286772396,1.6525977,9.622296,-0.5614403
171,1436286772416,1.6142905,9.651027,-0.6422446
172,1436286772436,1.5765818,9.650429,-0.65301853
173,1436286772456,1.6196774,9.635465,-0.61411273
174,1436286772476,1.6956934,9.603742,-0.6607997
175,1436286772502,1.6759412,9.591172,-0.6368576
176,1436286772521,1.5717934,9.598953,-0.59495914
177,1436286772542,1.5849615,9.5971575,-0.694917
178,1436286772561,1.7184383,9.568427,-0.62847793
179,1436286772582,1.6891093,9.619903,-0.51355624
180,1436286772601,1.6478093,9.602545,-0.5374983
181,1436286772622,1.632247,9.560047,-0.5542577
182,1436286772640,1.6502035,9.595362,-0.61530983
183,1436286772661,1.6400281,9.633071,-0.6135142
184,1436286772680,1.6262615,9.686341,-0.581791
185,1436286772705,1.6232687,9.582193,-0.6380547
186,1436286772748,1.6436194,9.504382,-0.62129533
187,1436286772749,1.6771383,9.532514,-0.61112
188,1436286772762,1.6705543,9.552266,-0.670975
189,1436286772780,1.5298948,9.5385,-0.65780693
190,1436286772800,1.5400703,9.520543,-0.66379243
191,1436286772817,1.775899,9.651027,-0.62967503
192,1436286772841,1.821389,9.704298,-0.7236475
193,1436286772859,1.7399861,9.687539,-0.78649527
194,1436286772878,1.572392,9.560047,-0.53689975
195,1436286772898,1.6184803,9.518148,-0.7637503
196,1436286772922,1.6771383,9.512163,-0.8900445
197,1436286772942,1.7316064,9.348759,-0.6536171
198,1436286772957,1.7597382,9.287707,-0.7445967
199,1436286772982,1.8207904,9.420585,-0.82779527
200,1436286773001,1.8237832,9.478046,-0.7787141
201,1436286773022,1.7860745,9.440337,-0.6619968
202,1436286773041,1.8309658,9.455899,-0.62488663
203,1436286773061,1.7567455,9.551069,-0.7433996
204,1436286773083,1.7286136,9.597756,-0.84335756
205,1436286773100,1.7328035,9.615712,-0.98940384
206,1436286773122,1.7794905,9.618107,-0.9588778
207,1436286773138,1.7914615,9.442133,-1.0767922
208,1436286773160,1.7040731,9.288305,-1.122282
209,1436286773179,1.7082629,9.119514,-1.1007342
210,1436286773200,1.6633717,9.22426,-1.0414777
211,1436286773221,1.5783775,9.387066,-1.0690111
212,1436286773243,1.5496471,9.435549,-1.3018472
213,1436286773263,1.6184803,9.042301,-1.6184803
214,1436286773290,1.6496049,8.731055,-1.496376
215,1436286773298,1.4802152,8.685565,-1.2880806
216,1436286773318,1.3293805,8.892065,-1.4915876
217,1436286773340,1.4143747,8.995614,-1.714847
218,1436286773358,1.5855601,8.996812,-1.8620903
219,1436286773378,1.6118963,9.074024,-1.8962077
220,1436286773398,1.5275006,9.01417,-2.0644004
221,1436286773445,1.5747862,8.917803,-2.3828292
222,1436286773446,1.7172412,9.04709,-2.6437972
223,1436286773459,1.79206,9.324219,-2.5899277
224,1436286773479,1.6591818,9.231443,-2.7263973
225,1436286773500,1.4664485,9.042301,-2.9322984
226,1436286773518,1.6717514,9.07582,-3.2040405
227,1436286773540,1.9129672,9.056067,-3.1214404
228,1436286773559,1.7112557,8.750807,-3.2609026
229,1436286773578,1.2186487,8.486248,-3.2680852
230,1436286773599,0.53809685,8.248624,-3.3889925
231,1436286773618,0.09995792,7.7224975,-4.0563765
232,1436286773638,0.14903906,7.465121,-4.6800656
233,1436286773658,-0.08798691,7.6722193,-4.673482
234,1436286773678,-0.83497787,8.144476,-4.3023806
235,1436286773698,-1.4059949,8.258799,-4.8907557
236,1436286773718,-1.5095441,8.1402855,-6.1638722
237,1436286773739,-1.5981296,8.008605,-6.113594
238,1436286773758,-0.83258367,9.002198,-5.421071
239,1436286773778,-1.3215994,8.368932,-5.1038394
240,1436286773798,-2.3116016,7.365163,-5.1259856
241,1436286773820,-1.9776106,7.3232646,-5.3941364
242,1436286773843,-1.7166426,7.1233487,-6.1770406
243,1436286773863,-1.8148049,7.1766195,-6.619968
244,1436286773883,-2.0506337,7.7027454,-6.279991
245,1436286773902,-2.3199813,8.180388,-5.775413
246,1436286773923,-2.747945,8.348581,-6.159084
247,1436286773943,-3.040636,7.867347,-6.073491
248,1436286773958,-3.0442274,7.1089835,-5.876568
249,1436286773983,-3.0777464,6.281787,-5.3540335
250,1436286774003,-3.2543187,6.0327897,-6.0627174
251,1436286774023,-3.5942953,6.1489086,-6.555324
252,1436286774043,-3.9414546,6.401497,-6.807314
253,1436286774059,-3.99293,6.6492968,-6.854001
254,1436286774111,-3.572149,6.7959414,-5.7724204
255,1436286774112,-3.6230257,6.6846113,-6.265626
256,1436286774120,-3.9121256,6.3601966,-6.39192
257,1436286774143,-4.085107,5.9082913,-5.886145
258,1436286774176,-3.9121256,6.0465565,-5.7149596
259,1436286774179,-4.1036615,6.2865753,-6.425439
260,1436286774201,-4.437653,6.2219315,-6.555923
261,1436286774220,-4.197634,6.1279593,-6.2075663
262,1436286774240,-4.097078,5.9747305,-5.816713
263,1436286774263,-4.3041763,5.9920883,-6.169259
264,1436286774282,-4.6016555,6.1704564,-6.766014
265,1436286774303,-4.7321396,6.0106435,-6.145317
266,1436286774324,-4.8668137,5.6509147,-5.864597
267,1436286774343,-4.6034513,5.2079873,-6.045958
268,1436286774363,-3.6212301,4.808754,-6.92044
269,1436286774383,-2.3235726,5.029021,-7.093421
270,1436286774404,-1.6047137,5.774216,-6.827665
271,1436286774423,-1.0348936,6.4164605,-6.746262
272,1436286774443,-1.0606314,6.4128695,-7.3232646
273,1436286774461,-1.1061212,6.329671,-7.1987658
274,1436286774480,-1.2599486,6.3087215,-7.3442135
275,1436286774503,-1.572392,5.981913,-7.6668324
276,1436286774521,-1.3443443,5.915474,-7.1167645
277,1436286774540,-1.1186907,6.757634,-7.340024
278,1436286774561,-1.0420763,6.870162,-7.896077
279,1436286774586,-0.8870517,6.83365,-7.1113777
280,1436286774606,-1.6807296,6.6630635,-6.3865333
281,1436286774626,-1.5610195,6.6265516,-7.912238
282,1436286774644,-0.60693014,6.673837,-7.595605
283,1436286774662,-0.10055647,6.9449806,-7.171831
284,1436286774681,-0.5033809,7.1113777,-6.727108
285,1436286774701,-1.3521254,6.959346,-6.4463882
286,1436286774723,-1.2294226,6.3601966,-6.9826894
287,1436286774743,-0.8924387,5.7263317,-6.8348475
288,1436286774806,-0.6422446,5.2983685,-6.603807
289,1436286774807,-1.541866,6.4589577,-7.1305313
290,1436286774808,-1.9674352,6.509236,-6.6307416
291,1436286774821,-1.2964603,6.43322,-6.865972
292,1436286774844,-0.4249708,5.565322,-7.091027
293,1436286774861,-0.7236475,5.3061495,-6.813898
294,1436286774882,-1.1773487,5.852626,-8.015787
295,1436286774900,-1.2138603,6.0585275,-7.675212
296,1436286774923,-0.748188,5.539584,-6.555923
297,1436286774943,-0.5117606,4.955399,-5.8502316
298,1436286774961,-1.8722657,4.9841294,-6.053739
299,1436286774982,-2.5300727,5.111022,-6.667253
300,1436286775002,-1.4460979,4.5005007,-6.623559
301,1436286775021,-0.8463503,4.3059716,-6.320094
302,1436286775043,-0.2741361,4.8901567,-5.770026
303,1436286775063,-0.6206968,5.468955,-6.553529
304,1436286775082,-1.4466964,4.8799815,-6.591237
305,1436286775100,-1.2252327,4.1581297,-7.479486
306,1436286775122,-0.48482585,3.9079356,-6.799533
307,1436286775145,0.108337626,4.292804,-6.827665
308,1436286775162,-0.4854244,5.713164,-7.5788455
309,1436286775182,-1.5759833,6.4601545,-6.1261635
310,1436286775202,-1.7022774,6.3302693,-7.6823945
311,1436286775223,-1.6729485,6.91625,-7.838018
312,1436286775242,0.5021838,8.10138,-5.7802014
313,1436286775261,0.44592008,8.241441,-6.293758
314,1436286775282,1.5352819,8.517971,-6.0687027
315,1436286775305,0.8391677,7.551911,-7.1425023
316,1436286775325,0.6871359,7.32925,-5.6138043
317,1436286775344,-0.08020575,8.06008,-4.782418
318,1436286775363,-0.40282443,10.151415,-4.957793
319,1436286775382,0.17238252,9.560047,-5.4899044
320,1436286775402,1.1432313,7.477092,-5.6245785
321,1436286775422,0.87687635,6.5619082,-5.6257753
322,1436286775442,0.52852005,8.6496525,-5.7442884
323,1436286775465,3.1711202,10.863091,-5.763442
324,1436286775524,2.830545,10.48002,-5.5551467
325,1436286775525,1.9075803,11.641806,-5.3660045
326,1436286775526,1.7968484,12.65575,-5.360019
327,1436286775541,2.3277626,12.429498,-3.9707835
328,1436286775565,2.8987796,10.125677,-2.8496985
329,1436286775581,3.2495303,8.41921,-3.0041246
330,1436286775653,2.759916,8.295909,-2.3600843
331,1436286775654,2.3505075,8.830415,-1.9722236
332,1436286775655,1.4059949,9.475652,-2.3906105
333,1436286775662,0.80804306,9.785701,-2.5611973
334,1436286775682,1.1534066,9.586982,-1.9566613
335,1436286775704,1.8387469,9.882068,-0.7691373
336,1436286775722,1.4945804,10.33517,-0.74519527
337,1436286775744,1.110311,10.070611,-0.8595184
338,1436286775765,0.7272388,9.836577,0.04189853
339,1436286775781,0.4141969,9.664794,0.091578215
340,1436286775801,0.61291564,8.97646,0.94930094
341,1436286775821,0.75477207,9.009381,1.204882
342,1436286775843,0.961272,9.027936,0.85891986
343,1436286775864,0.4405331,9.172187,1.9081788
344,1436286775882,-1.1198878,9.664794,5.1660886
345,1436286775902,-3.086126,10.607511,8.31207
346,1436286775923,-2.9251158,10.620679,9.463082
347,1436286775942,-2.4181437,9.569624,7.8595657
348,1436286775962,-1.5855601,10.213664,6.3949127
349,1436286775983,-0.92057055,9.8916445,2.1721394
350,1436286776005,0.28790274,8.129512,-0.55605334
351,1436286776025,0.6548142,6.5349736,-0.8690952
352,1436286776044,0.4961983,6.4104753,0.4950012
353,1436286776064,-0.35913026,7.8972745,0.54647654
354,1436286776084,-0.8158242,10.02572,-0.9947908
355,1436286776104,-0.48123455,10.945093,-1.5233108
356,1436286776123,0.43035775,10.874464,-1.2515689
357,1436286776223,1.0019734,10.105926,-0.98341835
358,1436286776224,0.7200562,9.288904,-0.52073884
359,1436286776225,-0.08259996,9.315839,-0.20231004
360,1436286776226,-1.1450269,9.458893,1.0726024
361,1436286776227,-3.277662,9.689933,1.9871874
362,1436286776246,-3.9719806,10.342952,2.6856956
363,1436286776261,-2.9442697,11.089344,2.2601264
364,1436286776283,-2.0961237,11.007342,1.9452889
365,1436286776302,-1.18094,10.515932,2.8700492
366,1436286776335,-0.80445176,10.5045595,2.40318
367,1436286776343,-1.7357962,10.25676,2.4241292
368,1436286776362,-1.8285716,9.860519,1.8872294
369,1436286776383,-0.5506664,8.774749,1.8896236
370,1436286776401,-0.6584055,8.124723,1.62686
371,1436286776421,-0.97384155,7.7308774,1.151611
372,1436286776441,-1.2090719,7.727286,1.2443863
373,1436286776461,-1.3862427,8.251018,1.7016789
374,1436286776482,-1.4742297,8.80767,2.0691888
375,1436286776504,-1.4981717,8.968679,2.5366566
376,1436286776525,-1.5508442,9.01776,2.8496985
377,1436286776545,-1.4443022,9.247005,2.6084828
378,1436286776565,-1.5424645,9.375694,2.3008277
379,1436286776585,-1.7106571,9.661202,2.1206641
380,1436286776602,-1.3204023,10.0825815,2.759916
381,1436286776625,-1.3581109,9.792884,3.4715924
382,1436286776645,-0.8619126,9.272743,2.5635915
383,1436286776665,-0.61890113,8.497022,2.5127146
384,1436286776684,-0.99778354,8.202535,2.8550856
385,1436286776704,-1.1845313,8.219295,2.4247277
386,1436286776724,-1.2485762,8.48146,3.107674
387,1436286776745,-1.2551602,8.79929,2.60968
388,1436286776765,-1.2012907,9.087791,2.3110032
389,1436286776785,-1.2360066,9.427768,2.843713
390,1436286776804,-1.0534488,9.777321,3.0825348
391,1436286776822,-0.664391,9.534309,2.9041667
392,1436286776844,-0.5650316,9.072228,3.028665
393,1436286776862,-0.49200845,8.814254,2.779668
394,1436286776883,-0.5494693,8.6017685,2.7832594
395,1436286776951,-0.7044938,8.576629,3.1615434
396,1436286776952,-0.55246204,8.72088,2.9999347
397,1436286776953,-0.65900403,9.014768,2.967613
398,1436286776962,-0.664391,9.481637,2.463035
399,1436286776987,-0.5033809,10.017939,2.1996727
400,1436286777002,-0.51595044,10.218452,3.0831332
401,1436286777022,-0.75118077,9.975441,3.6206315
402,1436286777056,-0.60693014,9.58818,3.3620577
403,1436286777064,-0.59855044,9.138668,3.0184898
404,1436286777092,-0.7104794,9.3499565,2.724003
405,1436286777106,-0.75237787,9.475053,2.6677392
406,1436286777136,-0.50158525,9.512762,2.2146366
407,1436286777145,-0.65062433,9.316438,2.6755204
408,1436286777163,-0.7212533,9.018359,3.0083144
409,1436286777183,-0.47764325,9.078813,2.4468741
410,1436286777205,-0.42796355,9.217078,2.1894975
411,1436286777225,-0.6398504,9.287108,2.2296004
412,1436286777245,-0.84934306,9.554062,2.3654714
413,1436286777265,-0.7763199,9.707291,2.248754
414,1436286777285,-0.48602295,9.649231,2.291251
415,1436286777305,-0.32561144,9.771336,2.235586
