id,attr_time,attr_x,attr_y,attr_z
1,1436801602117,-1.5352819,9.540894,0.20590134
2,1436801602137,-1.5460558,9.515156,0.21188685
3,1436801602157,-1.5239093,9.490017,0.25139117
4,1436801602177,-1.5286977,9.514558,0.2753332
5,1436801602197,-1.5275006,9.52174,0.25258827
6,1436801602218,-1.5173253,9.481637,0.19752164
7,1436801602238,-1.4850036,9.434352,0.14065935
8,1436801602258,-1.5382746,9.4696665,0.20470424
9,1436801602280,-1.5346833,9.55885,0.19512744
10,1436801602297,-1.5173253,9.55885,0.18854338
11,1436801602324,-1.5346833,9.595961,0.11432313
12,1436801602337,-1.5005659,9.55047,-0.025139118
13,1436801602357,-1.5101427,9.515755,0.36750996
14,1436801602378,-1.4891934,9.500791,0.18794483
15,1436801602398,-1.5652094,9.576208,0.08738836
16,1436801602418,-1.5765818,9.573814,0.06284779
17,1436801602438,-1.5071499,9.512163,0.12868834
18,1436801602458,-1.4664485,9.52174,0.16280572
19,1436801602480,-1.5263035,9.545682,0.14784196
20,1436801602499,-1.5616181,9.589975,0.14784196
21,1436801602517,-1.5819688,9.572019,0.11312603
22,1436801602538,-1.5628152,9.569026,0.06703765
23,1436801602560,-1.5286977,9.567828,0.09756372
24,1436801602578,-1.5155296,9.59177,0.15203181
25,1436801602601,-1.5191209,9.581595,0.11791443
26,1436801602620,-1.5783775,9.59177,0.035913024
27,1436801602639,-1.5717934,9.555858,0.09696517
28,1436801602659,-1.5095441,9.537302,0.06344634
29,1436801602680,-1.4838065,9.5253315,0.1352724
30,1436801602701,-1.5149311,9.511565,0.12270284
31,1436801602721,-1.5442601,9.561843,0.051475335
32,1436801602741,-1.5652094,9.583989,0.06823475
33,1436801602762,-1.5466543,9.572019,0.08080431
34,1436801602780,-1.5334862,9.548077,0.08259996
35,1436801602800,-1.5269021,9.564238,0.077811554
36,1436801602820,-1.5185224,9.554062,0.04309563
37,1436801602840,-1.5263035,9.5570545,0.05686229
38,1436801602859,-1.5113398,9.539697,0.04189853
39,1436801602879,-1.5197195,9.528923,0.04249708
40,1436801602898,-1.5298948,9.563639,0.037110128
41,1436801602922,-1.5502456,9.5732155,0.06344634
42,1436801602972,-1.5143325,9.533711,0.079008654
43,1436801602973,-1.54845,9.559449,-0.16280572
44,1436801602978,-1.536479,9.501988,0.019752163
45,1436801602998,-1.4676456,9.503185,0.2220622
46,1436801603018,-1.4945804,9.5971575,-0.01316811
47,1436801603038,-1.5233108,9.572617,-0.08200141
48,1436801603059,-1.5119383,9.513959,-0.046686932
49,1436801603080,-1.4508862,9.475053,0.07182605
50,1436801603098,-1.4359225,9.531317,0.075417355
51,1436801603121,-1.453879,9.568427,0.047884032
52,1436801603142,-1.5035586,9.568427,0.01616086
53,1436801603164,-1.5191209,9.607333,-0.021547815
54,1436801603186,-1.5065514,9.5798,0.017956512
55,1436801603202,-1.4562732,9.589376,0.0005985504
56,1436801603220,-1.4891934,9.556456,0.020350715
57,1436801603240,-1.4796166,9.5570545,-0.002992752
58,1436801603259,-1.4999673,9.5385,0.019752163
59,1436801603280,-1.4490906,9.518148,-0.091578215
60,1436801603299,-1.4143747,9.518148,-0.017357962
61,1436801603324,-1.4275428,9.544485,-0.031124622
62,1436801603340,-1.4341269,9.606734,-0.035314474
63,1436801603360,-1.477821,9.64983,-0.05805939
64,1436801603381,-1.4933833,9.6528225,-0.026934769
65,1436801603401,-1.5011644,9.648633,-0.004189853
66,1436801603421,-1.4562732,9.605537,0.05207389
67,1436801603441,-1.4496891,9.582792,0.039504327
68,1436801603463,-1.4053963,9.585785,0.090979666
69,1436801603482,-1.364695,9.566631,0.16998832
70,1436801603501,-1.3341689,9.46847,0.2208651
71,1436801603521,-1.3162124,9.420585,0.23762453
72,1436801603539,-1.2551602,9.381081,0.2220622
73,1436801603560,-1.1965023,9.36911,0.27593175
74,1436801603580,-1.0809821,9.403227,0.24720132
75,1436801603661,-0.98940384,9.482835,0.17776948
76,1436801603662,-0.825401,9.516354,0.09816227
77,1436801603663,-0.5931635,9.4696665,0.45489833
78,1436801603664,-0.6500258,9.651027,0.12868834
79,1436801603681,-0.84575176,9.618107,-0.0077811554
80,1436801603702,-1.0061632,9.455301,0.08678981
81,1436801603719,-1.0001777,9.27394,0.25438392
82,1436801603739,-1.0307038,9.20391,0.1945289
83,1436801603759,-1.0995371,9.246407,0.16101007
84,1436801603781,-1.3012487,9.269751,0.17298107
85,1436801603800,-1.5658079,9.273342,0.076614454
86,1436801603821,-1.3521254,9.585187,-0.33279404
87,1436801603842,-2.373851,8.929773,-0.29688102
88,1436801603861,-2.759916,9.393052,-0.7188591
89,1436801603880,-3.196858,9.601347,-0.8451532
90,1436801603900,-3.5242648,9.981427,-1.0540473
91,1436801603921,-3.6804867,9.965266,-0.88286185
92,1436801603940,-3.642778,9.7324295,-1.0755951
93,1436801603960,-3.371036,9.138668,-1.3802572
94,1436801603981,-2.4372973,8.097789,-1.4466964
95,1436801604001,-1.8321629,6.355408,-1.074398
96,1436801604022,-0.7703344,4.8817773,-1.2354081
97,1436801604047,0.13347675,3.2794578,-1.899799
98,1436801604060,0.6386533,1.9829975,-3.007716
99,1436801604082,-0.014963761,1.9985598,-2.831742
100,1436801604101,-2.0578163,10.523115,-2.1242554
101,1436801604120,-4.5483847,17.457321,-0.54767364
102,1436801604142,-6.10282,19.608511,-3.684078
103,1436801604162,-5.5707088,19.608511,-8.134899
104,1436801604187,-6.501455,19.608511,-4.235343
105,1436801604203,-7.8703394,19.608511,-3.9258924
106,1436801604220,-5.0116625,19.608511,-5.922058
107,1436801604241,-1.8794483,19.608511,-6.0082493
108,1436801604261,-1.122282,17.764977,-4.6591167
109,1436801604280,-1.3293805,9.213487,-3.7499185
110,1436801604310,-0.18614918,1.9363106,-2.5312698
111,1436801604374,0.6841431,-6.537368,-0.61890113
112,1436801604375,1.8926164,-9.023148,0.25617957
113,1436801604376,2.5570073,-6.703765,0.55844754
114,1436801604384,1.8686744,-2.303222,0.43155485
115,1436801604400,0.5895722,1.5957354,-0.25378537
116,1436801604424,-0.6631939,4.31076,-0.3854665
117,1436801604441,-1.4760253,4.551976,-0.56084174
118,1436801604462,-1.3257892,2.669535,-0.8331822
119,1436801604480,-0.26874915,0.4285621,-0.9840169
120,1436801604501,0.5141548,-1.3551182,-0.7038953
121,1436801604522,1.1833342,-2.6473885,-0.31543607
122,1436801604541,1.7100586,-3.1022868,-0.31603462
123,1436801604565,0.9032126,-0.11851298,1.2916719
124,1436801604581,-0.623091,9.306262,4.144962
125,1436801604601,-1.2761095,19.608511,5.4462104
126,1436801604622,-9.271546,19.608511,-10.09156
127,1436801604641,-1.4748282,19.608511,-8.537125
128,1436801604661,-4.996699,19.608511,-1.3515269
129,1436801604680,-6.7121444,19.608511,2.0404584
130,1436801604700,-2.1613655,19.608511,-1.5568297
131,1436801604722,-1.299453,19.608511,-2.9843724
132,1436801604742,-1.5448587,15.076288,-2.4516625
133,1436801604762,-1.62686,9.697714,-1.1947067
134,1436801604781,-0.9247604,1.8567034,-1.5849615
135,1436801604801,0.8535329,-0.20649989,-2.034473
136,1436801604822,2.110489,-4.3275194,-1.6831238
137,1436801604841,2.3397336,-7.3472066,-0.7344214
138,1436801604862,1.240795,-6.740875,-0.15682021
139,1436801604883,-0.05267244,-2.8760347,0.338181
140,1436801604902,-0.56203884,0.80086046,0.45609543
141,1436801604922,-0.51834464,2.9987376,-0.05925649
142,1436801604972,-0.25198972,3.3991678,-0.7140707
143,1436801604973,0.04129998,2.0745757,-0.79248077
144,1436801604980,0.3609259,0.006584055,-0.17776948
145,1436801605001,0.7793127,-1.7190368,0.82360536
146,1436801605026,0.6290765,-0.6865373,0.32441434
147,1436801605101,-1.5885528,5.097255,3.3734303
148,1436801605103,-5.9639564,18.517954,5.265448
149,1436801605104,-12.145186,19.608511,7.5088153
150,1436801605105,-5.310938,19.608511,-18.353352
151,1436801605122,-7.074866,19.608511,-5.3169236
152,1436801605162,-8.728661,19.608511,2.4420857
153,1436801605163,-4.88058,19.608511,1.2054806
154,1436801605187,-2.3523033,19.608511,-5.273229
155,1436801605201,-2.119467,15.181633,-0.7128736
156,1436801605234,-0.8798691,5.81372,-1.0899603
157,1436801605318,0.16819267,-3.0998926,-1.2204443
158,1436801605320,1.536479,-6.9988503,-0.5374983
159,1436801605321,3.3129766,-8.3390045,-0.05805939
160,1436801605322,2.1338322,-6.465542,0.54887074
161,1436801605323,0.480636,-2.6018987,0.6452374
162,1436801605346,-0.44472298,1.1569979,0.023942016
163,1436801605361,-1.4826094,3.1387985,-0.48123455
164,1436801605381,-0.9151836,3.8804023,-0.492607
165,1436801605401,-0.21068975,2.3451207,-0.50996494
166,1436801605421,0.6027403,0.04249708,-0.29328972
167,1436801605441,1.0696096,-1.6262615,0.38067806
168,1436801605461,0.8571242,-2.0015526,0.59376204
169,1436801605481,0.5141548,0.19931729,0.19393034
170,1436801605501,-1.644218,5.405509,1.7010803
171,1436801605522,-4.5005007,18.553268,3.3566709
172,1436801605542,-18.447325,19.608511,-1.0085574
173,1436801605563,1.0803835,19.608511,-15.436615
174,1436801605582,-4.0563765,19.608511,-1.7950528
175,1436801605602,-9.192537,19.608511,1.9853917
176,1436801605622,-6.023213,19.608511,-0.6500258
177,1436801605643,-3.3039982,19.579184,-2.2529438
178,1436801605663,-1.453879,12.975975,-1.721431
179,1436801605684,0.12749124,3.21661,-2.4774003
180,1436801605704,1.0133458,-2.143409,-2.2667105
181,1436801605725,1.06123,-7.7087307,-1.1869255
182,1436801605743,1.2563573,-11.288062,0.14544775
183,1436801605761,1.8052281,-6.70556,0.97982705
184,1436801605781,0.63087213,-2.5258827,0.88525605
185,1436801605801,0.7224504,1.13964,0.2136825
186,1436801605825,-0.065242,2.8485014,-0.36032736
187,1436801605842,0.12988544,3.7253778,-1.489792
188,1436801605869,0.10175357,2.9993362,-1.4820108
189,1436801605886,0.36152446,0.98341835,-0.6913257
190,1436801605904,0.6500258,-1.1558008,0.32561144
191,1436801605921,0.56982,-2.6737247,1.5275006
192,1436801605943,0.3250129,-1.009156,0.61112
193,1436801605961,-1.4939818,5.4641666,2.5408466
194,1436801605983,-4.914099,19.334375,6.1650696
195,1436801606002,-19.120693,19.608511,7.0545154
196,1436801606023,-2.9759927,19.608511,-19.380465
197,1436801606041,-7.6692266,19.608511,-0.8002619
198,1436801606062,-9.576208,19.608511,3.1890767
199,1436801606081,-3.66253,19.608511,-1.1785458
200,1436801606105,-1.7794905,18.386272,-4.018069
201,1436801606125,-1.5376761,10.2406,-3.383007
202,1436801606144,-0.037708677,-0.2789245,-2.4714148
203,1436801606162,2.486977,-6.4242415,-0.5602432
204,1436801606185,4.0043025,-10.296863,-0.39624038
205,1436801606227,3.1543608,-8.2276745,0.9235633
206,1436801606228,1.0450691,-2.6222494,0.8062474
207,1436801606242,-0.6823475,1.8740613,0.10354923
208,1436801606265,-1.6801311,4.693234,-1.079785
209,1436801606285,-2.0745757,5.221754,-1.5676036
210,1436801606305,-1.7399861,2.9741971,-0.7398083
211,1436801606324,-0.45070848,0.108337626,0.17537527
212,1436801606343,1.0522517,-1.9285295,0.7404069
213,1436801606363,1.4502877,-3.3243492,0.43275195
214,1436801606385,1.146224,-1.6980876,0.2705448
215,1436801606406,0.3453636,1.7938557,0.88645315
216,1436801606425,-1.1306617,9.77792,2.0069396
217,1436801606445,-5.4563856,19.608511,9.618107
218,1436801606467,-8.644265,19.608511,-8.811859
219,1436801606532,-8.735844,19.608511,-13.884574
220,1436801606533,-8.421604,19.608511,1.8058267
221,1436801606534,-6.609194,19.608511,2.0841527
222,1436801606555,-2.9388826,19.608511,-5.3761797
223,1436801606563,-2.367267,18.388067,-3.330933
224,1436801606583,-1.4814123,10.1699705,-0.74758947
225,1436801606604,0.93613285,-1.204882,-2.6360161
226,1436801606630,1.4185646,-5.3899465,-0.64703304
227,1436801606642,2.653374,-9.730036,-0.6961141
228,1436801606682,2.2463598,-8.462306,0.1400608
229,1436801606683,1.0881647,-3.809175,0.22266077
230,1436801606757,0.17477672,1.3449428,0.08020575
231,1436801606758,-0.3752911,4.150947,-0.35254622
232,1436801606759,-0.20829555,4.545392,-0.7751228
233,1436801606763,0.004189853,2.9149406,-0.5859809
234,1436801606833,0.45310268,0.4141969,-0.37349546
235,1436801606834,0.85532856,-1.4993688,-0.2172738
236,1436801606835,0.76075757,-1.9698294,-0.017956512
237,1436801606842,-0.037708677,-0.9008184,-0.43873745
238,1436801606863,-0.4818331,2.0410569,0.4950012
239,1436801606884,-2.7222073,9.776723,1.9722236
240,1436801606903,-7.0664864,19.608511,4.9865236
241,1436801606923,-11.100118,19.608511,1.0869676
242,1436801606945,-3.0669725,19.608511,-17.696741
243,1436801606965,-5.4300494,19.608511,-0.53809685
244,1436801606983,-6.043564,19.608511,3.0023289
245,1436801607002,-3.233968,19.608511,-1.8926164
246,1436801607025,-2.8898015,17.939753,-3.1358056
247,1436801607045,-2.0590134,10.614694,-1.4383167
248,1436801607066,0.19273324,-2.1972785,-1.2958617
249,1436801607085,1.395221,-6.2380924,-0.75716627
250,1436801607106,1.3042414,-10.56681,0.24301147
251,1436801607124,2.7461493,-6.431424,0.6476316
252,1436801607145,1.086369,-3.2734723,0.59735334
253,1436801607164,0.24361002,0.11851298,0.13347675
254,1436801607195,0.02932897,2.9951463,-0.5398925
255,1436801607203,-0.1340753,3.3554738,-1.1139023
256,1436801607225,0.11372458,2.4785974,-1.0893618
257,1436801607243,0.16101007,0.56323594,-0.9247604
258,1436801607264,0.34715924,-1.3239936,-0.6362591
259,1436801607283,0.24061728,-1.9267339,-0.53091425
260,1436801607305,0.13587095,-1.127669,-0.40701428
261,1436801607325,-0.014963761,0.10295067,0.18555063
262,1436801607392,-0.7128736,5.4743423,1.4766239
263,1436801607393,-3.365649,17.687164,3.34051
264,1436801607395,-14.4454155,19.608511,3.6361938
265,1436801607411,-0.5823896,19.608511,-19.608511
266,1436801607423,-4.2461166,19.608511,-6.441001
267,1436801607449,-7.9876556,19.608511,1.5059528
268,1436801607463,-6.671443,19.608511,-0.24959552
269,1436801607483,-3.3081882,19.608511,-4.5675383
270,1436801607506,-0.79966336,11.082161,-1.7322049
271,1436801607523,0.31184477,1.8459295,-1.3299791
272,1436801607546,1.8393455,-3.5535939,-0.4890157
273,1436801607565,2.2667105,-8.783728,-0.049679685
274,1436801607583,2.2301989,-10.598533,0.3274071
275,1436801607603,1.3838485,-6.409278,0.20829555
276,1436801607624,0.3842694,-1.2174516,-0.4189853
277,1436801607646,0.2220622,3.520075,-0.80804306
278,1436801607666,-0.8535329,4.52145,-1.2808979
279,1436801607686,-0.45070848,4.271256,-1.1611878
280,1436801607707,-0.19812019,2.2134395,-0.53211135
281,1436801607726,0.11791443,-0.15682021,-0.40282443
282,1436801607748,0.480636,-1.9476831,0.44771573
283,1436801607766,0.694917,-2.1296425,0.17537527
284,1436801607786,0.4357447,-1.7034745,0.2136825
285,1436801607804,0.044891283,-0.8499416,-0.66858083
286,1436801607826,-0.92775315,2.1051018,1.5263035
287,1436801607847,-3.8750155,11.374852,0.55365914
288,1436801607867,-9.877279,19.608511,4.807557
289,1436801607887,-4.3089647,19.608511,-14.0803
290,1436801607907,-2.8257565,19.608511,-16.06629
291,1436801607926,-4.6261964,19.608511,1.3742718
292,1436801607944,-4.992509,19.608511,2.3828292
293,1436801607964,-3.2962172,19.60133,-3.650559
294,1436801607987,-2.5821466,13.707403,-1.8686744
295,1436801608008,-1.2078748,5.474941,-1.661576
296,1436801608028,1.2934675,-0.12210429,-1.4520833
297,1436801608045,1.3120226,-3.6822822,-1.2850877
298,1436801608067,1.216853,-6.161478,-0.7697359
299,1436801608126,1.4209588,-6.787562,-0.3878607
300,1436801608127,1.0378864,-4.8099513,0.3597288
301,1436801608128,0.37469256,-0.90141696,0.32142156
302,1436801608158,-0.095768064,1.9405005,-0.5482722
303,1436801608164,0.12210429,3.317765,-0.9091981
304,1436801608185,0.27353755,2.2930467,-0.34835634
305,1436801608218,0.25019407,0.2765303,-0.23104046
306,1436801608230,0.39264908,-1.2563573,0.1340753
307,1436801608247,0.7428011,-1.8177977,0.2172738
308,1436801608284,0.83018947,-2.0093338,-0.18614918
309,1436801608285,0.350152,-1.2539631,-0.3226187
310,1436801608310,-0.694917,1.8537107,0.22325931
311,1436801608331,-3.6499605,11.179127,2.8419175
312,1436801608351,-10.086772,19.608511,3.5224693
313,1436801608367,-7.3633676,19.608511,-16.59541
314,1436801608386,-4.173692,19.608511,-11.179725
315,1436801608406,-7.917625,19.608511,0.6536171
316,1436801608424,-3.2082303,19.608511,-3.5422213
317,1436801608445,-2.203264,18.461689,-4.461595
318,1436801608467,-1.608305,8.844181,-3.7708676
319,1436801608487,-0.9463082,0.24301147,-1.388637
320,1436801608507,1.1629834,-4.654927,-0.62368953
321,1436801608527,2.0775685,-10.983999,0.12569559
322,1436801608547,5.298967,-8.942344,1.8249803
323,1436801608567,2.1290438,-4.629189,0.9983821
324,1436801608585,0.20290859,-0.44232875,0.088585466
325,1436801608604,-1.0803835,2.9550436,-0.6913257
326,1436801608624,-0.78529817,4.7004166,-1.5807717
327,1436801608649,-0.45908818,3.208829,-1.1294646
328,1436801608668,-0.24181437,0.6218939,-0.14963761
329,1436801608686,0.42078096,-1.2042835,-0.29747957
330,1436801608706,0.7392098,-2.695871,-0.2705448
331,1436801608725,0.8343793,-3.1016884,-0.1364695
332,1436801608747,0.3561375,-2.0614076,0.093373865
333,1436801608766,-0.20111294,0.29688102,-0.50876784
334,1436801608787,-1.4903905,3.7313633,1.553837
335,1436801608816,-3.2549171,14.773421,2.0398598
336,1436801608825,-7.868544,19.608511,1.5729905
337,1436801608931,-4.5040917,19.608511,-17.101185
338,1436801608932,-6.975507,19.608511,-0.9032126
339,1436801608933,-6.881534,19.608511,3.0041246
340,1436801608934,-2.783858,19.608511,-1.4311341
341,1436801608935,-1.4586674,18.438345,-2.9149406
342,1436801608960,-1.1139023,11.145009,-2.7234044
343,1436801608964,-1.5388732,3.9995139,-0.78769237
344,1436801608987,-0.63206923,-1.1683705,-0.18674773
345,1436801609009,0.42916065,-5.0757074,0.035314474
346,1436801609024,1.6136919,-9.337387,0.7134721
347,1436801609050,2.1649568,-9.208099,1.7292122
348,1436801609065,1.4341269,-4.643554,0.51116204
349,1436801609085,0.62009823,0.84216046,0.1921347
350,1436801609108,0.17357962,5.2223525,-0.8367735
351,1436801609131,-0.31184477,4.3436804,-0.7290344
352,1436801609147,-0.49081135,1.6555905,-0.6314707
353,1436801609168,0.23463176,-1.1139023,-0.5291186
354,1436801609186,0.8086416,-2.5067291,-0.8834604
355,1436801609208,0.85293436,-2.7072437,-0.96306765
356,1436801609226,0.6003461,-2.2840683,-0.84694886
357,1436801609245,0.18195933,-1.4676456,-0.53570265
358,1436801609266,-1.4957775,2.9574378,-0.3573346
359,1436801609288,-4.4753613,16.99165,5.048773
360,1436801609308,-10.663176,19.608511,3.117849
361,1436801609328,-3.5033157,19.608511,-17.265785
362,1436801609354,-6.7163343,19.608511,-1.0839748
363,1436801609368,-5.5671177,19.608511,0.35913026
364,1436801609387,-2.7940333,19.608511,-3.244742
365,1436801609407,-3.4865563,17.467497,-1.9632454
366,1436801609425,-2.1122844,9.5732155,-1.7585411
367,1436801609447,0.018555064,2.5617957,-2.8646624
368,1436801609467,1.4676456,-2.19668,-1.6519991
369,1436801609488,1.8950106,-6.4870896,-0.43275195
370,1436801609509,2.497751,-8.629301,0.062249243
371,1436801609528,1.5741876,-7.270592,0.60932434
372,1436801609549,0.2208651,-2.0332758,-0.39923313
373,1436801609567,-0.39444473,3.6583402,-1.2096704
374,1436801609587,-0.56323594,4.2491093,-1.5699978
375,1436801609615,-0.3405752,2.5941176,-0.7206547
376,1436801609669,0.21547815,0.29029694,0.31423897
377,1436801609670,0.57041854,-1.2545617,0.92535895
378,1436801609671,0.7038953,-1.6651673,0.74758947
379,1436801609689,0.44232875,-1.3150153,0.51475334
380,1436801609707,-0.034715924,-0.3345897,-0.062249243
381,1436801609732,-0.9103952,2.1613655,0.05327099
382,1436801609748,-3.7373488,11.747749,2.112883
383,1436801609766,-7.5962033,19.608511,2.248754
384,1436801609788,-2.682703,19.608511,-17.010204
385,1436801609807,-6.245275,19.608511,-1.650802
386,1436801609827,-7.5842323,19.608511,1.7723078
387,1436801609846,-2.7449522,19.608511,-3.1998506
388,1436801609867,-1.2695254,19.608511,-5.1385555
389,1436801609886,-1.3443443,14.481329,-1.7375919
390,1436801609909,-1.1605892,5.065532,-1.1282675
391,1436801609929,-0.18914193,0.55485624,-0.9020155
392,1436801609949,-0.4225766,-4.957793,-1.1330559
393,1436801609969,1.6729485,-8.585608,-0.10474633
394,1436801609988,2.2798786,-9.364322,1.335366
395,1436801610007,1.472434,-1.1252748,0.4950012
396,1436801610026,0.5626374,2.7880478,-0.8810662
397,1436801610049,-0.20829555,3.9833531,-1.299453
398,1436801610067,-0.9259575,3.1783028,-1.0462662
399,1436801610089,-0.9115923,1.1288661,-0.20350714
400,1436801610109,-0.40462008,-0.84216046,0.36032736
401,1436801610127,0.49559975,-1.8381484,-0.16819267
402,1436801610149,1.1061212,-2.058415,-0.51355624
403,1436801610167,1.1306617,-1.4401124,-0.741604
404,1436801610193,0.80205756,0.29568392,-0.91338795
405,1436801610211,-0.57041854,3.8486793,1.3449428
