id,attr_time,attr_x,attr_y,attr_z
1,1436801602108,-9.032125,3.6834793,0.8242039
2,1436801602162,-8.998607,3.6804867,0.82480246
3,1436801602163,-9.018359,3.6655228,0.8319851
4,1436801602168,-8.983644,3.6613328,0.85173726
5,1436801602188,-8.965088,3.6583402,0.8391677
6,1436801602225,-8.982447,3.6709096,0.86011696
7,1436801602230,-8.95611,3.684078,0.89303726
8,1436801602248,-8.942942,3.7086184,0.8858546
9,1436801602268,-8.952518,3.7152026,0.89064306
10,1436801602289,-8.96449,3.7475243,0.9032126
11,1436801602309,-8.933365,3.7379475,0.9151836
12,1436801602333,-8.933964,3.7062242,0.93373865
13,1436801602348,-8.916007,3.696049,0.93014735
14,1436801602370,-8.983644,3.675698,0.90740246
15,1436801602388,-8.917803,3.6894648,0.9032126
16,1436801602412,-8.965088,3.6912606,0.8822633
17,1436801602431,-9.00579,3.7062242,0.87927055
18,1436801602451,-8.99741,3.7044287,0.8379706
19,1436801602471,-8.929175,3.7259765,0.83378077
20,1436801602491,-8.982447,3.6733038,0.830788
21,1436801602511,-8.953117,3.6601357,0.8230068
22,1436801602531,-9.035119,3.6529531,0.8283938
23,1436801602551,-9.090185,3.6816838,0.82599956
24,1436801602570,-9.027337,3.7074213,0.8463503
25,1436801602592,-8.928576,3.7002387,0.8678981
26,1436801602611,-8.89805,3.6858735,0.85652566
27,1436801602631,-8.966884,3.6643257,0.8762778
28,1436801602649,-8.95611,3.6457705,0.8936358
29,1436801602678,-9.009979,3.66672,0.8798691
30,1436801602751,-9.009381,3.7175968,0.8511387
31,1436801602752,-8.968679,3.7187939,0.85473
32,1436801602753,-8.932767,3.702633,0.87328506
33,1436801602754,-9.006987,3.6595373,0.86370826
34,1436801602772,-9.020155,3.6212301,0.85652566
35,1436801602793,-8.987833,3.6140475,0.8583213
36,1436801602809,-9.018359,3.6230257,0.8762778
37,1436801602828,-8.990228,3.6062663,0.89184016
38,1436801602850,-9.029732,3.6272156,0.8726865
39,1436801602870,-9.036316,3.626617,0.91578215
40,1436801602891,-8.929773,3.6116533,0.9008184
41,1436801602909,-8.971672,3.630807,0.90979666
42,1436801602934,-8.983045,3.620033,0.9151836
43,1436801602951,-8.9842415,3.6523547,0.9056068
44,1436801602972,-8.955511,3.6373909,0.90620536
45,1436801602992,-8.963891,3.627814,0.89603
46,1436801603008,-8.946533,3.6128504,0.91578215
47,1436801603032,-8.996213,3.6254199,0.89603
48,1436801603052,-8.974665,3.6565444,0.8762778
49,1436801603072,-8.980651,3.66253,0.8810662
50,1436801603092,-9.003395,3.685275,0.87807345
51,1436801603112,-8.957906,3.6727054,0.86490536
52,1436801603131,-8.9758625,3.6954503,0.8798691
53,1436801603152,-8.972271,3.6792896,0.88046765
54,1436801603176,-8.981249,3.6715083,0.86011696
55,1436801603189,-9.018359,3.7044287,0.86490536
56,1436801603211,-8.998009,3.6894648,0.89303726
57,1436801603229,-8.95611,3.6499605,0.9032126
58,1436801603254,-8.922591,3.6643257,0.91219085
59,1436801603281,-8.98903,3.6523547,0.9163807
60,1436801603289,-8.951322,3.6703112,0.9175778
61,1436801603309,-8.945336,3.7122097,0.9115923
62,1436801603329,-8.953117,3.7403417,0.88645315
63,1436801603349,-8.959702,3.7469256,0.8726865
64,1436801603373,-8.924985,3.721188,0.88405895
65,1436801603397,-8.969278,3.702633,0.89064306
66,1436801603463,-9.003395,3.6750996,0.8690952
67,1436801603464,-9.024943,3.6469676,0.85652566
68,1436801603465,-8.986037,3.6523547,0.8726865
69,1436801603470,-8.9519205,3.654749,0.8678981
70,1436801603489,-8.998009,3.6493618,0.85173726
71,1436801603509,-8.996812,3.6703112,0.85293436
72,1436801603530,-8.963293,3.6565444,0.8655039
73,1436801603549,-8.9758625,3.6870706,0.8750807
74,1436801603571,-8.953716,3.6804867,0.86610246
75,1436801603590,-8.947132,3.6703112,0.89423436
76,1436801603613,-8.980052,3.6876693,0.9020155
77,1436801603631,-8.965687,3.727772,0.9127894
78,1436801603653,-8.93576,3.7349546,0.89064306
79,1436801603668,-8.919599,3.7612908,0.89184016
80,1436801603693,-8.90643,3.751714,0.89603
81,1436801603713,-8.948329,3.719991,0.9008184
82,1436801603732,-8.969876,3.7014358,0.90740246
83,1436801603752,-8.928576,3.675698,0.88645315
84,1436801603773,-8.995614,3.6607344,0.8690952
85,1436801603793,-8.982447,3.6649241,0.8762778
86,1436801603813,-9.018958,3.6296098,0.8798691
87,1436801603831,-9.078215,3.618836,0.9020155
88,1436801603850,-9.003994,3.5901055,0.9475053
89,1436801603873,-8.908226,3.6290112,0.9552865
90,1436801603893,-8.942942,3.691859,0.96067345
91,1436801603913,-8.93935,3.7786489,0.97743285
92,1436801603929,-8.878897,3.839701,0.9648633
93,1436801603953,-8.862138,3.8780081,0.95827925
94,1436801603971,-8.863934,3.8893807,0.9498995
95,1436801603991,-8.84478,3.8301241,0.93134445
96,1436801604011,-8.882488,3.8187518,0.93852705
97,1436801604031,-8.908226,3.8175547,0.90859956
98,1436801604052,-8.978256,3.7702692,0.90620536
99,1436801604073,-8.9279785,3.8067808,0.9091981
100,1436801604091,-8.938752,3.7600937,0.9068039
101,1436801604115,-8.923788,3.7726634,0.95109665
102,1436801604151,-8.950125,3.7846344,0.96426475
103,1436801604152,-8.88608,3.7547069,0.98820674
104,1436801604170,-8.92319,3.733159,1.0229226
105,1436801604192,-8.911219,3.7152026,1.0576386
106,1436801604211,-8.934562,3.7193923,1.1282675
107,1436801604231,-8.9363575,3.6613328,1.2210429
108,1436801604265,-8.954913,3.54282,1.3623008
109,1436801604270,-8.96449,3.3518825,1.5089456
110,1436801604295,-8.850765,3.2932243,1.5448587
111,1436801604313,-8.841188,3.241749,1.5801731
112,1436801604330,-8.913613,3.2267854,1.5496471
113,1436801604355,-8.928576,3.2375593,1.471237
114,1436801604373,-9.077017,3.2231941,1.4706384
115,1436801604393,-9.165004,3.0831332,1.4652514
116,1436801604413,-9.070433,2.8562827,1.471237
117,1436801604434,-9.068638,2.7760768,1.400608
118,1436801604454,-9.122507,2.789245,1.299453
119,1436801604473,-9.1255,2.8161798,1.18094
120,1436801604493,-9.252393,2.677316,1.1091139
121,1436801604513,-9.190742,2.6605566,0.9684546
122,1436801604535,-9.212888,2.7222073,0.7637503
123,1436801604555,-8.957307,3.120842,0.5021838
124,1436801604570,-9.003395,3.3560722,0.20530279
125,1436801604594,-9.461287,3.490746,-0.062249243
126,1436801604615,-10.070012,3.3800142,-0.20530279
127,1436801604634,-10.085575,3.1477766,-0.24959552
128,1436801604654,-9.657611,3.2076318,-0.16579847
129,1436801604674,-8.805874,3.0310593,-0.061052144
130,1436801604694,-8.123527,2.8491,-0.01616086
131,1436801604713,-7.301118,2.6162639,-0.038307227
132,1436801604733,-4.9548006,2.6916811,-0.35434186
133,1436801604754,-2.1709423,2.959832,-0.7457938
134,1436801604775,-1.6220716,3.3033998,-0.88405895
135,1436801604795,-5.9681463,3.8989575,-0.25677812
136,1436801604812,-10.184336,4.7405195,0.20290859
137,1436801604903,-11.7681,5.605425,0.45968673
138,1436801604904,-14.358027,6.7283053,0.9163807
139,1436801604905,-17.911621,9.166202,0.7781156
140,1436801604906,-19.60911,11.411364,1.2802993
141,1436801604913,-19.60911,11.183915,1.3910311
142,1436801604943,-19.60911,7.375937,2.0326772
143,1436801604953,-19.60911,4.333505,1.839944
144,1436801604971,-18.881872,2.7736826,1.5699978
145,1436801604993,-12.925696,1.9841946,0.8439561
146,1436801605011,-5.8622026,1.168969,0.29149407
147,1436801605035,0.09995792,0.25617957,-0.33877954
148,1436801605052,1.7980455,-0.44951138,-0.4973954
149,1436801605072,0.04189853,-0.42916065,-0.25917232
150,1436801605094,-1.1204864,-0.092775315,-0.093972415
151,1436801605114,-0.9487024,-0.25378537,-0.01436521
152,1436801605134,-0.93134445,-0.16938977,-0.08798691
153,1436801605151,-0.9044097,0.44472298,-0.2100912
154,1436801605174,-0.3633201,0.6757634,-0.28311434
155,1436801605194,0.504578,0.7290344,-0.18016368
156,1436801605214,1.5119383,1.0103531,-0.14425065
157,1436801605234,2.2900538,1.287482,-0.19632454
158,1436801605252,2.1930888,1.632247,-0.08080431
159,1436801605275,0.02873042,2.1535845,0.19393034
160,1436801605292,-9.118916,3.0472202,0.82121116
161,1436801605314,-19.60911,5.4234653,1.1558008
162,1436801605335,-19.60911,5.878962,3.489549
163,1436801605356,-19.60911,6.160281,3.3249476
164,1436801605374,-19.60911,8.406042,3.9228995
165,1436801605394,-19.60911,3.9516299,4.8799815
166,1436801605414,-19.60911,4.1138372,4.052785
167,1436801605434,-19.60911,3.016694,2.8987796
168,1436801605456,-17.985842,2.5510218,2.4013844
169,1436801605475,-12.186486,2.1721394,1.5897499
170,1436801605496,-6.253655,1.7663223,0.6667852
171,1436801605516,-0.9876082,1.287482,-0.22026655
172,1436801605532,2.858677,0.64463884,-0.87208796
173,1436801605552,2.9029696,-0.05267244,-1.0660183
174,1436801605626,-0.8122329,0.16639702,-0.75118077
175,1436801605627,-2.7820623,0.46806642,-0.57640404
176,1436801605633,-1.3108255,0.06464344,-0.80564886
177,1436801605634,-0.36152446,0.016759412,-0.9828198
178,1436801605664,-0.08738836,0.44232875,-1.1354501
179,1436801605674,0.5291186,0.7158663,-1.1953052
180,1436801605692,1.0366893,0.7092823,-1.1976994
181,1436801605717,1.3084313,0.7769185,-1.1593921
182,1436801605731,0.2088941,1.1174936,-0.842759
183,1436801605779,-5.777807,1.7178397,0.15741876
184,1436801605780,-18.353352,4.2580876,0.5674258
185,1436801605795,-19.60911,5.275025,2.956839
186,1436801605817,-19.60911,4.9601874,2.682703
187,1436801605833,-19.60911,6.344036,3.5523968
188,1436801605854,-19.60911,3.7846344,2.4600422
189,1436801605872,-19.60911,2.6862943,1.4197617
190,1436801605894,-19.60911,1.8866309,1.5263035
191,1436801605914,-16.177023,1.4736311,1.0893618
192,1436801605934,-8.497022,0.83617496,0.38606504
193,1436801605954,-0.919972,0.15502456,-0.34596214
194,1436801605973,3.965995,-0.6727707,-0.961272
195,1436801605992,2.8281507,-1.1540052,-0.8936358
196,1436801606015,-2.2056582,-0.23163901,-0.19871874
197,1436801606036,-4.234744,0.38367084,0.21667525
198,1436801606053,-1.4826094,0.16998832,0.011372458
199,1436801606075,0.3681085,0.14664486,-0.15143326
200,1436801606094,0.1933318,0.65421563,-0.20709845
201,1436801606113,0.2813187,0.87927055,-0.19692309
202,1436801606133,1.0528502,0.8110358,-0.3609259
203,1436801606157,1.5885528,0.82899237,-0.49919105
204,1436801606178,1.7495629,0.8936358,-0.63206923
205,1436801606198,1.4413095,1.4820108,-0.44232875
206,1436801606215,-4.423288,2.1410148,-0.20051439
207,1436801606234,-17.751808,4.83928,0.4405331
208,1436801606254,-19.60911,6.223129,1.845331
209,1436801606274,-19.60911,7.229292,2.1122844
210,1436801606292,-19.60911,9.263765,3.6128504
211,1436801606316,-19.60911,4.935647,4.4723687
212,1436801606360,-19.60911,3.8187518,3.1573534
213,1436801606361,-19.60911,3.3093853,2.2439656
214,1436801606383,-15.016433,2.7329812,1.3210008
215,1436801606392,-7.78355,1.9141643,0.61411273
216,1436801606416,-0.11372458,0.85054016,-0.05207389
217,1436801606433,4.805163,-0.5823896,-0.55246204
218,1436801606453,3.4859576,-1.1348516,-0.49919105
219,1436801606474,-2.0147207,-0.08140286,0.16519992
220,1436801606493,-4.459201,0.4237737,0.50757074
221,1436801606514,-1.4706384,0.1364695,0.15801731
222,1436801606536,0.19273324,0.17058687,-0.12150574
223,1436801606554,-0.142455,0.64463884,-0.08080431
224,1436801606573,0.6835446,0.78050977,-0.25198972
225,1436801606596,1.3515269,0.6560113,-0.5093664
226,1436801606615,1.4927847,0.76315176,-0.7350199
227,1436801606635,1.3485341,1.0313023,-0.9504981
228,1436801606655,0.53091425,1.6280571,-0.92535895
229,1436801606676,-4.9559975,2.2080526,-0.41958386
230,1436801606694,-17.98704,5.3043537,0.504578
231,1436801606716,-19.60911,5.127183,1.8537107
232,1436801606736,-19.60911,4.815338,1.7717092
233,1436801606755,-19.60911,7.213131,2.7096379
234,1436801606775,-19.60911,2.678513,2.432509
235,1436801606794,-19.60911,1.3084313,1.9141643
236,1436801606816,-19.60911,0.6147113,1.453879
237,1436801606836,-14.428058,0.5979519,0.712275
238,1436801606856,-5.625177,-0.30346507,0.26156655
239,1436801606874,2.6868927,-1.174356,-0.56203884
240,1436801606895,4.956596,-0.89184016,-0.9427169
241,1436801606915,-0.55246204,0.8098387,0.30226797
242,1436801606936,-3.1549592,2.3475149,0.43394905
243,1436801606956,0.20350714,2.1350293,-0.08439561
244,1436801606976,1.5496471,1.910573,-0.78290397
245,1436801606993,0.27712885,2.6180596,-1.039682
246,1436801607014,-0.30585927,2.1984756,-1.0827777
247,1436801607034,0.31364042,1.4377182,-1.0426749
248,1436801607103,0.8098387,1.0402806,-1.1797429
249,1436801607104,0.919972,1.1007342,-1.2491747
250,1436801607105,0.9684546,1.3323733,-1.2126632
251,1436801607123,0.35913026,1.8495208,-1.1133038
252,1436801607133,-5.6527104,2.6701334,-0.9235633
253,1436801607158,-18.431164,5.7005944,-0.15741876
254,1436801607173,-19.60911,5.445013,0.9355343
255,1436801607193,-19.60911,5.7502737,1.2372037
256,1436801607213,-19.60911,4.869208,3.41892
257,1436801607233,-19.60911,2.6007016,2.8736405
258,1436801607253,-19.60911,0.8702923,2.4277205
259,1436801607275,-19.60911,0.077811554,0.46028528
260,1436801607298,-15.561712,0.6266823,-0.16699557
261,1436801607314,-6.423643,0.55246204,-0.6368576
262,1436801607336,1.87047,0.08379706,-0.9768343
263,1436801607356,4.095282,-0.38486794,-1.2443863
264,1436801607376,0.5793968,0.046686932,-0.5398925
265,1436801607396,-2.0111294,0.5231331,-0.10534488
266,1436801607416,-1.8626889,0.30406362,-0.053869538
267,1436801607436,-0.092176765,0.45010993,-0.3645172
268,1436801607456,-0.17417817,0.6584055,-0.43394905
269,1436801607476,-0.10295067,0.94451255,-0.51954174
270,1436801607496,0.15801731,1.0426749,-0.581791
271,1436801607518,0.40043023,1.0450691,-0.55844754
272,1436801607534,0.9463082,0.89902276,-0.45429978
273,1436801607556,1.963844,0.6171055,-0.2813187
274,1436801607573,1.0720038,1.2665327,-0.09756372
275,1436801607593,-8.816648,2.6036944,0.83258367
276,1436801607615,-19.60911,5.0643353,1.8459295
277,1436801607639,-19.60911,6.151303,3.1489737
278,1436801607659,-19.60911,8.316259,3.809175
279,1436801607679,-19.60911,7.3831196,4.2544966
280,1436801607696,-19.60911,2.4546554,3.8588545
281,1436801607714,-19.60911,2.695871,3.6332011
282,1436801607733,-19.487005,3.0148985,1.9734207
283,1436801607753,-12.29243,3.1908724,1.1563994
284,1436801607774,-4.261679,1.7351977,0.30645782
285,1436801607794,1.3479356,-0.050278235,-0.29628247
286,1436801607873,2.4372973,-1.1845313,-0.4973954
287,1436801607874,-1.1994951,-0.86370826,0.05925649
288,1436801607875,-2.7246015,-0.44771573,0.34596214
289,1436801607876,-1.1174936,-0.6548142,0.17717093
290,1436801607895,-0.20410569,-0.56084174,-0.11911154
291,1436801607916,-0.3357868,-0.12629414,-0.29149407
292,1436801607933,-0.01436521,0.0724246,-0.3812766
293,1436801607954,0.5081693,0.23822308,-0.48841715
294,1436801607981,1.2389994,0.41060558,-0.54527944
295,1436801608007,1.8273745,0.7368156,-0.80325466
296,1436801608039,1.7357962,1.2533646,-0.86251116
297,1436801608040,0.82360536,1.9333179,-0.61411273
298,1436801608055,-5.771822,2.7246015,-0.56682724
299,1436801608073,-17.113754,5.0374002,0.17357962
300,1436801608094,-19.60911,4.4903255,2.6426
301,1436801608114,-19.60911,4.216788,3.0735564
302,1436801608134,-19.60911,7.663241,3.1812954
303,1436801608154,-19.60911,2.8514943,3.779846
304,1436801608174,-19.60911,2.995745,2.4588451
305,1436801608194,-19.60911,2.7670987,2.3050177
306,1436801608214,-18.03612,2.2535424,1.5286977
307,1436801608234,-8.994417,1.7172412,0.8487445
308,1436801608255,-0.46088383,0.80325466,-0.08499416
309,1436801608294,4.1659107,-0.492607,-0.89603
310,1436801608295,2.4253263,-0.92296475,-1.1115081
311,1436801608313,-2.9855695,0.38486794,-0.688333
312,1436801608334,-3.840898,0.3842694,-0.45968673
313,1436801608353,0.18794483,-0.5021838,-0.6703765
314,1436801608374,-0.023942016,-0.23822308,-0.49440265
315,1436801608395,-0.91578215,0.85173726,-0.4441244
316,1436801608414,0.17717093,1.5113398,-0.664391
317,1436801608432,1.0426749,2.1140802,-0.82779527
318,1436801608453,1.6035166,2.078167,-0.90500826
319,1436801608475,1.809418,1.4784195,-0.7068881
320,1436801608494,2.0081367,1.009156,-0.47345337
321,1436801608514,1.4838065,0.8122329,0.05925649
322,1436801608533,-3.1082723,0.98700964,0.6051345
323,1436801608554,-14.4053135,2.734777,2.4660277
324,1436801608573,-19.60911,3.0107086,4.808754
325,1436801608594,-19.60911,7.079056,4.9398365
326,1436801608613,-19.60911,9.546281,3.899556
327,1436801608635,-19.60911,5.8586116,4.1982327
328,1436801608654,-19.60911,2.0506337,3.6463692
329,1436801608673,-19.60911,4.4633904,3.1226375
330,1436801608694,-19.60911,3.116652,2.3385365
331,1436801608718,-14.6124115,1.917157,1.5735891
332,1436801608734,-6.0345855,0.43873745,0.64942724
333,1436801608755,-0.10594343,-1.1025299,-0.6290765
334,1436801608775,2.168548,-1.5316905,-0.9528923
335,1436801608796,1.0791864,-0.89423436,-1.0654198
336,1436801608818,-2.0691888,-0.52852005,-0.39324763
337,1436801608837,-2.1517887,-0.9828198,-0.061052144
338,1436801608856,-0.6380547,-0.973243,-0.16699557
339,1436801608878,-0.6781576,-0.38067806,-0.29747957
340,1436801608898,-0.40342298,0.18555063,-0.20829555
341,1436801608915,0.61770403,0.7966706,-0.18734628
342,1436801608934,1.0720038,1.2318168,-0.15203181
343,1436801608956,1.1127052,1.2378023,-0.017357962
344,1436801608976,1.822586,1.4197617,0.08439561
345,1436801608995,2.5492263,1.9339164,0.46267948
346,1436801609015,0.22565351,2.4355016,0.7368156
347,1436801609037,-9.933543,4.1222167,2.4384944
348,1436801609056,-19.60911,7.1903863,5.695806
349,1436801609078,-19.60911,5.053561,8.175002
350,1436801609098,-19.60911,8.313866,7.1209545
351,1436801609116,-19.60911,3.980959,6.202778
352,1436801609136,-19.60911,2.6120741,3.3028011
353,1436801609155,-19.60911,3.1549592,2.3463178
354,1436801609176,-16.969503,2.6426,1.2324153
355,1436801609198,-7.5225816,1.5161282,0.46327803
356,1436801609225,2.136825,-0.11911154,-0.7739257
357,1436801609242,5.2780175,-1.6466122,-1.5717934
358,1436801609254,-1.2521675,-0.93493575,-1.1318588
359,1436801609275,-5.2786164,-0.09876082,-0.61650693
360,1436801609295,-2.3493104,-1.0833763,-0.6075287
361,1436801609318,-0.04249708,-1.0169371,-0.46507367
362,1436801609335,0.107739076,-0.4854244,-0.04369418
363,1436801609355,0.2908955,-0.19093758,0.1316811
364,1436801609376,0.040102877,0.51235914,0.08798691
365,1436801609399,0.7146692,1.0534488,-0.047884032
366,1436801609416,1.9662381,1.2880806,-0.18974048
367,1436801609436,2.2960393,1.3982137,-0.0676362
368,1436801609456,1.2234371,1.5149311,0.11133038
369,1436801609478,0.22744916,2.1386206,0.32321724
370,1436801609498,-2.123657,3.1531637,0.09995792
371,1436801609518,-12.022484,5.117606,0.78649527
372,1436801609538,-19.60911,6.6840124,4.746505
373,1436801609557,-19.60911,4.0976763,5.3678
374,1436801609578,-18.29649,8.46051,4.7884035
375,1436801609596,-19.60911,5.061941,3.8283286
376,1436801609616,-19.60911,1.7010803,2.5210943
377,1436801609642,-19.60911,2.142212,2.1481974
378,1436801609656,-19.39842,1.5945383,1.3982137
379,1436801609681,-11.790246,1.2114661,0.9756372
380,1436801609701,-2.8095956,0.36870706,0.4249708
381,1436801609716,2.1577742,-0.75357497,-0.4261679
382,1436801609738,2.3050177,-1.2976574,-0.5231331
383,1436801609756,-0.29448682,-0.9708488,-0.12449849
384,1436801609775,-1.5077485,-1.091756,-0.011372458
385,1436801609796,-1.4371196,-1.1324574,-0.19871874
386,1436801609822,-1.762731,-0.66618663,-0.40880993
387,1436801609836,-1.5209166,-0.4285621,-0.5201403
388,1436801609857,-0.0688333,-0.18854338,-0.49200845
389,1436801609879,1.2671312,0.14065935,-0.53570265
390,1436801609996,2.202067,0.55725044,-0.6823475
391,1436801609997,2.393603,1.2030864,-0.42916065
392,1436801609998,2.5671828,1.5280992,-0.54288524
393,1436801609999,1.9608512,2.3864205,-0.6380547
394,1436801610000,-4.4113164,2.606687,-0.49919105
395,1436801610001,-14.0473795,3.2878375,1.0420763
396,1436801610017,-19.60911,4.679467,2.9724014
397,1436801610036,-19.60911,5.2385135,3.2309752
398,1436801610057,-19.60911,8.213907,3.7822402
399,1436801610076,-19.60911,5.167286,3.7936125
400,1436801610096,-19.60911,3.6284127,3.6086605
401,1436801610118,-19.60911,4.370615,2.8508956
402,1436801610136,-17.84638,3.582923,1.9482816
403,1436801610160,-8.832211,1.9716251,1.2611457
404,1436801610176,-1.0253168,0.42796355,0.21068975
405,1436801610199,3.0974984,-0.5967548,-0.724246
406,1436801610217,2.6461914,-1.0408791,-1.003769
407,1436801610239,-0.76554596,-0.47465047,-0.76434886
408,1436801610261,-2.2260091,-0.35314476,-0.38486794
409,1436801610277,-1.1803415,-0.97025025,-0.30406362
