id,attr_time,attr_x,attr_y,attr_z
1,1436607529515,9.928755,-0.18674773,0.7230489
2,1436607529531,9.908403,-0.21428105,0.7410054
3,1436607529551,9.913791,-0.2136825,0.7553706
4,1436607529573,9.905411,-0.20949265,0.7422025
5,1436607529592,9.892841,-0.20350714,0.7422025
6,1436607529613,9.88925,-0.20231004,0.7422025
7,1436607529631,9.876082,-0.21547815,0.7218518
8,1436607529653,9.896433,-0.19752164,0.7344214
9,1436607529671,9.890448,-0.2160767,0.7074866
10,1436607529694,9.922171,-0.19393034,0.712275
11,1436607529714,9.922769,-0.21308395,0.700304
12,1436607529731,9.9233675,-0.20949265,0.6985083
13,1436607529752,9.909002,-0.20410569,0.6973112
14,1436607529774,9.909002,-0.20949265,0.7068881
15,1436607529794,9.915586,-0.2088941,0.7009025
16,1436607529815,9.906608,-0.2172738,0.7260417
17,1436607529832,9.884461,-0.21068975,0.7206547
18,1436607529853,9.872491,-0.21667525,0.7182605
19,1436607529872,9.8683,-0.21428105,0.7290344
20,1436607529892,9.903017,-0.21428105,0.7152678
21,1436607529914,9.911995,-0.21068975,0.6991069
22,1436607529934,9.908403,-0.19812019,0.7188591
23,1436607529954,9.895236,-0.20111294,0.7110779
24,1436607529980,9.919178,-0.19093758,0.712275
25,1436607529996,9.944317,-0.2148796,0.700304
26,1436607530014,9.959879,-0.21068975,0.6817489
27,1436607530033,9.928755,-0.207697,0.6889315
28,1436607530056,9.913192,-0.2184709,0.6895301
29,1436607530073,9.887454,-0.20410569,0.6799533
30,1436607530093,9.8677025,-0.20350714,0.705691
31,1436607530121,9.858724,-0.2124854,0.7224504
32,1436607530212,9.850345,-0.20231004,0.7200562
33,1436607530213,9.898827,-0.18315643,0.70509243
34,1436607530214,9.922171,-0.20470424,0.6931214
35,1436607530215,9.919178,-0.17417817,0.6889315
36,1436607530216,9.915586,-0.20470424,0.6757634
37,1436607530265,9.902418,-0.19632454,0.6703765
38,1436607530266,9.9473095,-0.18854338,0.6955156
39,1436607530287,9.977237,-0.18974048,0.7140707
40,1436607530292,9.949105,-0.18555063,0.6787562
41,1436607530312,9.911396,-0.19931729,0.6823475
42,1436607530392,9.850345,-0.19812019,0.6757634
43,1436607530393,9.833585,-0.19153613,0.66618663
44,1436607530394,9.879075,-0.19931729,0.6781576
45,1436607530395,9.909002,-0.19991584,0.64942724
46,1436607530417,9.916783,-0.2112883,0.6757634
47,1436607530431,9.919178,-0.19812019,0.6715736
48,1436607530452,9.8994255,-0.19273324,0.6619968
49,1436607530472,9.946113,-0.20231004,0.6901286
50,1436607530494,9.956886,-0.20350714,0.6991069
51,1436607530511,9.935339,-0.18734628,0.6925228
52,1436607530531,9.895834,-0.1921347,0.6631939
53,1436607530552,9.853935,-0.2100912,0.65301853
54,1436607530574,9.85214,-0.2100912,0.6584055
55,1436607530595,9.878476,-0.23882163,0.6727707
56,1436607530612,9.89344,-0.21667525,0.6775591
57,1436607530633,9.937134,-0.20171149,0.66858083
58,1436607530655,9.928156,-0.19991584,0.6745663
59,1436607530675,9.911995,-0.22146365,0.670975
60,1436607530693,9.898827,-0.20231004,0.6835446
61,1436607530712,9.932944,-0.20829555,0.64703304
62,1436607530731,9.943718,-0.20410569,0.65421563
63,1436607530755,9.947908,-0.2100912,0.64823014
64,1436607530773,9.951499,-0.20590134,0.6751649
65,1436607530795,9.920375,-0.1933318,0.6488287
66,1436607530816,9.876082,-0.19572599,0.66738373
67,1436607530831,9.8683,-0.20709845,0.6697779
68,1436607530852,9.853935,-0.2100912,0.6781576
69,1436607530872,9.871294,-0.18794483,0.6697779
70,1436607530895,9.877279,-0.19153613,0.64703304
71,1436607530916,9.874885,-0.19153613,0.66020113
72,1436607530942,9.880272,-0.20290859,0.65301853
73,1436607530953,9.92636,-0.20649989,0.65780693
74,1436607530977,9.910199,-0.21308395,0.6679823
75,1436607530993,9.932345,-0.1933318,0.6733692
76,1436607531016,9.9233675,-0.18854338,0.670975
77,1436607531032,9.903615,-0.19273324,0.6679823
78,1436607531055,9.8994255,-0.17956513,0.6739678
79,1436607531073,9.900622,-0.1945289,0.6536171
80,1436607531094,9.898827,-0.18614918,0.6853402
81,1436607531116,9.886856,-0.18674773,0.6584055
82,1436607531133,9.901819,-0.18435353,0.6560113
83,1436607531152,9.915586,-0.17178397,0.65421563
84,1436607531176,9.91439,-0.16400282,0.6356605
85,1436607531195,9.911995,-0.17477672,0.63087213
86,1436607531217,9.904813,-0.17717093,0.6476316
87,1436607531235,9.914988,-0.20111294,0.64463884
88,1436607531255,9.906608,-0.19153613,0.65182143
89,1436607531276,9.922171,-0.18914193,0.6536171
90,1436607531295,9.892841,-0.19752164,0.6607997
91,1436607531313,9.896433,-0.21547815,0.6500258
92,1436607531334,9.920375,-0.18435353,0.66020113
93,1436607531356,9.919776,-0.18375498,0.6266823
94,1436607531377,9.927557,-0.19093758,0.64583594
95,1436607531392,9.879673,-0.20111294,0.6356605
96,1436607531417,9.873089,-0.18255788,0.6464345
97,1436607531433,9.908403,-0.18555063,0.6386533
98,1436607531453,9.946113,-0.19273324,0.6434417
99,1436607531474,9.974244,-0.18555063,0.6584055
100,1436607531495,9.945514,-0.20171149,0.63087213
101,1436607531514,9.913791,-0.19572599,0.63206923
102,1436607531547,9.8916445,-0.2220622,0.6278794
103,1436607531574,9.878476,-0.22026655,0.65182143
104,1436607531575,9.873089,-0.2220622,0.65421563
105,1436607531604,9.889849,-0.20590134,0.6380547
106,1436607531627,9.910199,-0.19572599,0.6476316
107,1436607531633,9.906608,-0.20949265,0.6691794
108,1436607531660,9.895834,-0.19871874,0.64703304
109,1436607531676,9.89763,-0.20530279,0.6548142
110,1436607531693,9.920375,-0.19273324,0.63087213
111,1436607531713,9.932944,-0.19153613,0.64823014
112,1436607531733,9.920375,-0.20051439,0.6452374
113,1436607531754,9.913192,-0.2100912,0.6691794
114,1436607531773,9.906608,-0.21906945,0.65541273
115,1436607531793,9.897031,-0.20051439,0.6895301
116,1436607531814,9.903017,-0.18974048,0.66259533
117,1436607531833,9.906608,-0.17896658,0.6500258
118,1436607531854,9.928156,-0.18315643,0.6536171
119,1436607531873,9.904813,-0.20470424,0.65182143
120,1436607531893,9.913192,-0.20051439,0.6697779
121,1436607531913,9.901221,-0.19692309,0.66738373
122,1436607531933,9.928755,-0.19572599,0.6769605
123,1436607531953,9.91798,-0.20709845,0.6721721
124,1436607531973,9.91439,-0.20051439,0.6607997
125,1436607531994,9.895834,-0.20111294,0.6805518
126,1436607532012,9.882068,-0.22266077,0.66858083
127,1436607532034,9.90601,-0.21547815,0.688333
128,1436607532052,9.900622,-0.18076223,0.66618663
129,1436607532074,9.913192,-0.17477672,0.6751649
130,1436607532094,9.91798,-0.19931729,0.6889315
131,1436607532118,9.890448,-0.18734628,0.6793547
132,1436607532137,9.895236,-0.19033903,0.6715736
133,1436607532157,9.930551,-0.18435353,0.6937199
134,1436607532177,9.944317,-0.20350714,0.7140707
135,1436607532193,9.940725,-0.20410569,0.6907272
136,1436607532216,9.921572,-0.22026655,0.6937199
137,1436607532235,9.894637,-0.22445641,0.6973112
138,1436607532256,9.862914,-0.2148796,0.7020996
139,1436607532277,9.867104,-0.21667525,0.7314286
140,1436607532295,9.869498,-0.2088941,0.7272388
141,1436607532317,9.906608,-0.21428105,0.7188591
142,1436607532334,9.928156,-0.18974048,0.7422025
143,1436607532355,9.901819,-0.19033903,0.7422025
144,1436607532373,9.882068,-0.17597382,0.7206547
145,1436607532395,9.890448,-0.20649989,0.7332243
146,1436607532414,9.8994255,-0.20111294,0.7182605
147,1436607532433,9.910199,-0.21308395,0.74399817
148,1436607532454,9.919776,-0.2112883,0.7505822
149,1436607532475,9.920375,-0.21547815,0.7505822
150,1436607532493,9.912594,-0.2112883,0.7685388
151,1436607532515,9.919178,-0.22146365,0.75357497
152,1436607532538,9.908403,-0.20171149,0.75956047
153,1436607532558,9.889849,-0.20530279,0.7649474
154,1436607532579,9.888652,-0.1921347,0.76554596
155,1436607532596,9.874287,-0.19632454,0.7469909
156,1436607532618,9.883863,-0.19093758,0.7392098
157,1436607532638,9.885659,-0.1945289,0.748188
158,1436607532658,9.894038,-0.20171149,0.7517793
159,1436607532678,9.896433,-0.19991584,0.7577648
160,1436607532697,9.911396,-0.21308395,0.736217
161,1436607532718,9.916783,-0.21787235,0.75596917
162,1436607532735,9.88925,-0.20709845,0.7553706
163,1436607532758,9.871892,-0.22565351,0.75836337
164,1436607532777,9.891046,-0.20829555,0.7637503
165,1436607532795,9.900024,-0.20111294,0.7733272
166,1436607532815,9.891046,-0.20829555,0.7529764
167,1436607532837,9.886257,-0.20171149,0.7691373
168,1436607532858,9.884461,-0.1945289,0.7691373
169,1436607532878,9.882068,-0.18974048,0.7739257
170,1436607532897,9.931149,-0.17537527,0.770933
171,1436607532914,9.952098,-0.18315643,0.76315176
172,1436607532937,9.949704,-0.21906945,0.7733272
173,1436607532954,9.91798,-0.22505496,0.7751228
174,1436607533057,9.920973,-0.23702596,0.76075757
175,1436607533058,9.873089,-0.22744916,0.7703344
176,1436607533059,9.83957,-0.2100912,0.79128367
177,1436607533060,9.8683,-0.219668,0.78769237
178,1436607533061,9.895236,-0.20290859,0.7541735
179,1436607533077,9.88925,-0.207697,0.76434886
180,1436607533108,9.900622,-0.19572599,0.7751228
181,1436607533115,9.922171,-0.19393034,0.76554596
182,1436607533137,9.929353,-0.20290859,0.7649474
183,1436607533158,9.931747,-0.19931729,0.770933
184,1436607533175,9.920375,-0.19692309,0.7577648
185,1436607533196,9.901221,-0.2112883,0.7823054
186,1436607533215,9.897031,-0.23104046,0.7990648
187,1436607533240,9.884461,-0.20111294,0.7846996
188,1436607533258,9.892242,-0.21068975,0.79008657
189,1436607533278,9.880272,-0.20709845,0.777517
190,1436607533298,9.911995,-0.20171149,0.777517
191,1436607533318,9.898229,-0.20231004,0.7703344
192,1436607533336,9.884461,-0.207697,0.78649527
193,1436607533358,9.901221,-0.22744916,0.801459
194,1436607533378,9.88506,-0.21428105,0.8026561
195,1436607533398,9.883265,-0.2100912,0.78050977
196,1436607533416,9.883863,-0.19752164,0.78290397
197,1436607533437,9.907207,-0.19931729,0.7763199
198,1436607533456,9.902418,-0.20231004,0.7769185
199,1436607533478,9.870096,-0.22565351,0.7846996
200,1436607533498,9.886257,-0.2160767,0.79487497
201,1436607533517,9.880272,-0.2208651,0.79008657
202,1436607533538,9.908403,-0.18794483,0.79726917
203,1436607533558,9.88925,-0.20290859,0.79248077
204,1436607533578,9.865308,-0.20590134,0.78649527
205,1436607533598,9.868899,-0.18674773,0.78170687
206,1436607533623,9.901819,-0.17896658,0.8026561
207,1436607533638,9.938332,-0.18794483,0.7793127
208,1436607533658,9.935339,-0.19752164,0.7637503
209,1436607533678,9.941324,-0.21308395,0.7649474
210,1436607533696,9.903017,-0.2208651,0.7577648
211,1436607533717,9.858724,-0.2100912,0.7691373
212,1436607533770,9.850943,-0.21188685,0.7739257
213,1436607533771,9.844957,-0.21787235,0.78410107
214,1436607533782,9.888053,-0.2148796,0.7978677
215,1436607533795,9.903615,-0.20829555,0.7793127
216,1436607533816,9.91798,-0.19871874,0.78050977
217,1436607533837,9.911396,-0.20171149,0.7649474
218,1436607533855,9.900622,-0.20231004,0.7410054
219,1436607533875,9.887454,-0.19033903,0.74998367
220,1436607533896,9.911396,-0.18614918,0.7733272
221,1436607533918,9.904813,-0.19692309,0.7918822
222,1436607533937,9.904214,-0.2088941,0.7781156
223,1436607533958,9.886856,-0.19572599,0.7649474
224,1436607533988,9.885659,-0.1933318,0.7541735
225,1436607533997,9.861717,-0.20649989,0.75477207
226,1436607534018,9.894637,-0.20410569,0.770933
227,1436607534037,9.909601,-0.1933318,0.75118077
228,1436607534059,9.913791,-0.20470424,0.7350199
229,1436607534075,9.894637,-0.20290859,0.7128736
230,1436607534099,9.871294,-0.207697,0.7134721
231,1436607534118,9.857527,-0.19093758,0.7236475
232,1436607534138,9.862315,-0.19812019,0.7272388
233,1436607534158,9.874885,-0.19093758,0.7092823
234,1436607534179,9.906608,-0.20171149,0.6979098
235,1436607534198,9.902418,-0.2208651,0.7134721
236,1436607534217,9.879075,-0.23283611,0.6787562
237,1436607534240,9.877877,-0.22266077,0.6548142
238,1436607534257,9.886257,-0.20949265,0.6428431
239,1436607534278,9.896433,-0.19871874,0.63087213
240,1436607534295,9.892242,-0.1921347,0.6404489
241,1436607534321,9.8437605,-0.1376666,0.6368576
242,1436607534341,9.850943,-0.054468088,0.6428431
243,1436607534361,9.867104,-0.022744916,0.57520694
244,1436607534379,9.897031,-0.023942016,0.5153519
245,1436607534396,9.892242,-0.014963761,0.46866497
246,1436607534418,9.880272,-0.010773907,0.4309563
247,1436607534438,9.848549,-0.021547815,0.40043023
248,1436607534457,9.806051,-0.035913024,0.38486794
249,1436607534476,9.824008,-0.077811554,0.3788824
250,1436607534533,9.817424,-0.15562311,0.3728969
251,1436607534548,9.824008,-0.22146365,0.26396075
252,1436607534549,9.76535,-0.2765303,0.2148796
253,1436607534558,9.720459,-0.33518824,0.12569559
254,1436607534577,9.750985,-0.37708676,0.01436521
255,1436607534597,9.78989,-0.44532153,-0.11372458
256,1436607534616,9.715671,-0.5009867,-0.25917232
257,1436607534637,9.621099,-0.581791,-0.38726214
258,1436607534659,9.532514,-0.7020996,-0.5506664
259,1436607534678,9.461287,-0.84814596,-0.7350199
260,1436607534698,9.386468,-0.961272,-0.8158242
261,1436607534741,9.3343935,-1.0217255,-0.8403648
262,1436607534742,9.208698,-1.1468226,-0.8523358
263,1436607534758,9.028535,-1.3000516,-0.78170687
264,1436607534777,8.890269,-1.4730326,-0.54527944
265,1436607534799,8.945934,-1.5867572,-0.36391866
266,1436607534820,9.233837,-1.6400281,-0.23283611
267,1436607534839,9.762956,-1.4969746,-0.23582886
268,1436607534858,10.281899,-1.2952632,-0.30945057
269,1436607534879,10.649409,-0.9816227,-0.4321534
270,1436607534899,10.703279,-0.6823475,-0.7320272
271,1436607534919,10.577583,-0.3878607,-1.1258733
272,1436607534941,10.398617,-0.24899697,-1.4377182
273,1436607534957,10.208876,-0.30885202,-1.6214731
274,1436607534982,9.919776,-0.5494693,-1.6370354
275,1436607535002,9.522937,-0.90620536,-1.541866
276,1436607535019,9.297882,-1.1348516,-1.5424645
277,1436607535038,8.850166,-1.5969325,-1.5676036
278,1436607535058,8.714295,-1.965041,-1.6112977
279,1436607535080,8.708909,-2.2499511,-1.7345991
280,1436607535099,8.491036,-2.2864625,-2.0691888
281,1436607535120,8.343793,-2.1571758,-2.4887726
282,1436607535139,8.392276,-1.8309658,-2.6898856
283,1436607535160,8.756793,-1.3718776,-2.8275523
284,1436607535179,9.150041,-0.9068039,-2.979584
285,1436607535199,9.379285,-0.47644615,-3.1238346
286,1436607535223,9.420585,-0.29029694,-3.277662
287,1436607535282,9.532514,-0.34356794,-3.4680011
288,1436607535294,9.574412,-0.45310268,-3.879804
289,1436607535295,9.475053,-0.6434417,-4.2251673
290,1436607535297,9.171588,-0.4333505,-4.3418846
291,1436607535319,9.045893,-0.10055647,-4.359243
292,1436607535340,8.919599,0.30047232,-4.301183
293,1436607535356,9.132084,0.090381116,-4.3209357
294,1436607535381,9.496601,-0.338181,-4.4999022
295,1436607535411,9.853337,-0.40761283,-4.658518
296,1436607535421,9.82341,-0.31543607,-5.003283
297,1436607535437,9.4696665,-0.108936176,-5.0691237
298,1436607535457,8.9758625,0.15741876,-5.207389
299,1436607535477,8.182783,0.10354923,-5.4282537
300,1436607535500,7.369353,-0.14065935,-5.379771
301,1436607535520,6.944382,-0.6410475,-4.820725
302,1436607535541,6.940192,-1.1941081,-4.3478703
303,1436607535560,6.752846,-1.5071499,-4.410718
304,1436607535578,6.1501055,-1.8872294,-5.0320134
305,1436607535601,5.7616463,-1.8842367,-5.6161985
306,1436607535620,6.0848637,-1.3988123,-6.579266
307,1436607535638,6.180033,-1.1408371,-7.5441294
308,1436607535661,5.185242,-0.7433996,-9.99639
309,1436607535678,4.19105,-0.03232172,-10.077793
310,1436607535701,5.9142766,0.92057055,-8.91481
311,1436607535717,7.548918,1.3796587,-9.5570545
312,1436607535737,7.6387005,0.7727286,-10.435727
313,1436607535757,5.829881,-0.40701428,-10.073604
314,1436607535777,5.0302176,-1.3365631,-8.7292595
315,1436607535803,4.753089,-1.7651252,-7.925406
316,1436607535823,4.5196543,-2.4672248,-8.228272
317,1436607535840,4.147356,-2.8963854,-9.128492
318,1436607535857,3.323152,-2.4797945,-10.0508585
319,1436607535879,2.9460652,-1.9506758,-10.539276
320,1436607535897,2.7407625,-1.389834,-10.933721
321,1436607535918,2.735974,-1.050456,-10.5704
322,1436607535943,2.7665,-0.88166475,-10.336368
323,1436607536040,2.8443117,-0.7625532,-9.791686
324,1436607536041,2.6282349,-0.92416185,-9.449316
325,1436607536042,2.3942018,-1.146224,-9.078813
326,1436607536043,2.0925324,-1.4161704,-9.213487
327,1436607536044,1.5927427,-1.4784195,-9.306861
328,1436607536060,1.316811,-1.435324,-9.302073
329,1436607536079,1.471237,-1.3850456,-9.303269
330,1436607536102,1.6950948,-1.4197617,-9.502586
331,1436607536117,1.4490906,-1.578976,-9.554661
332,1436607536137,0.88166475,-1.4215573,-9.3978405
333,1436607536160,0.724246,-1.0767922,-9.113529
334,1436607536178,0.80564886,-1.1683705,-9.130288
335,1436607536199,0.80564886,-1.3874398,-9.080608
336,1436607536218,0.91578215,-1.5131354,-9.01417
337,1436607536237,0.80564886,-1.6741456,-9.110536
338,1436607536261,0.8702923,-1.9865888,-9.239224
339,1436607536281,0.7074866,-2.1380222,-9.083601
340,1436607536299,0.5363012,-2.1888988,-9.099762
341,1436607536321,0.34955344,-1.9949685,-9.13388
342,1436607536339,0.7015011,-1.8501194,-9.424176
343,1436607536361,0.79607207,-1.5897499,-9.974843
344,1436607536381,0.5410896,-1.590947,-10.697293
345,1436607536399,-0.2220622,-1.7322049,-11.464635
346,1436607536421,-0.5907693,-1.8537107,-11.206659
347,1436607536440,-0.18674773,-1.8872294,-10.79366
348,1436607536459,-0.089782566,-1.7477672,-10.651803
349,1436607536481,0.62129533,-1.9590555,-10.673351
350,1436607536498,1.1976994,-1.9734207,-10.879851
351,1436607536518,1.6232687,-1.8315643,-11.085154
352,1436607536539,1.7848774,-1.7681179,-11.121665
353,1436607536561,1.9596541,-1.7932571,-11.019912
354,1436607536581,2.2062569,-1.8914193,-11.139024
355,1436607536602,2.6916811,-1.8273745,-11.30123
356,1436607536621,3.4410665,-1.8106151,-11.017518
357,1436607536639,4.063559,-1.7567455,-10.5045595
358,1436607536659,4.75668,-1.7208325,-9.935937
359,1436607536680,5.427655,-1.7429788,-9.332
360,1436607536699,6.0740895,-1.7160441,-8.895058
361,1436607536721,6.597223,-1.7621324,-8.391677
362,1436607536786,6.915652,-1.7124528,-7.854179
363,1436607536787,7.2430587,-1.7483658,-7.267599
364,1436607536788,7.423821,-1.8357542,-6.6840124
365,1436607536798,7.1945763,-1.7878702,-6.123171
366,1436607536822,6.9886746,-1.7591397,-5.617396
367,1436607536839,7.000047,-1.8261774,-4.9919105
368,1436607536858,7.0610995,-1.863886,-4.706402
369,1436607536880,7.482479,-1.8004397,-4.4280763
370,1436607536899,8.026561,-1.6561891,-4.347272
371,1436607536918,8.085219,-1.553837,-4.43885
372,1436607536939,8.191162,-1.816002,-4.6279917
373,1436607536958,8.522759,-1.9806033,-4.6016555
374,1436607536980,8.920795,-2.0751743,-4.214992
375,1436607536998,9.217676,-1.9997569,-3.8163576
376,1436607537021,9.337387,-1.7082629,-3.5889084
377,1436607537042,9.408015,-1.6274586,-3.3991678
378,1436607537061,9.295488,-1.8046296,-3.5356374
379,1436607537078,9.076419,-2.099715,-3.7720647
380,1436607537100,9.18715,-2.2750902,-3.7217865
381,1436607537121,9.369708,-2.2936451,-3.5446155
382,1436607537142,9.482236,-2.4774003,-3.341707
383,1436607537163,9.365519,-2.6360161,-3.2626984
384,1436607537182,9.063849,-3.0639796,-3.083732
385,1436607537201,8.939949,-3.4356794,-2.939481
386,1436607537219,8.905831,-3.6870706,-2.8628666
387,1436607537239,8.789114,-3.933075,-2.7790697
388,1436607537259,8.74961,-4.0240545,-2.5839422
389,1436607537282,9.393052,-4.152743,-2.4510639
390,1436607537303,9.31943,-4.086902,-2.6102784
391,1436607537325,8.905831,-3.5745432,-2.6521769
392,1436607537341,9.062652,-2.7168205,-2.5264814
393,1436607537358,9.551069,-2.0769699,-2.2134395
394,1436607537386,10.068216,-1.3976152,-2.2451627
395,1436607537399,10.64043,-0.8888474,-2.7605145
396,1436607537429,10.454282,-1.0073603,-3.0388405
397,1436607537474,9.927557,-1.4107834,-2.9017725
398,1436607537486,9.646238,-1.6837224,-2.8245595
399,1436607537487,8.978256,-2.2260091,-2.7257986
400,1436607537502,8.596381,-2.7371712,-2.4007857
401,1436607537518,8.517372,-3.4249055,-1.9668367
402,1436607537540,8.676587,-4.232949,-1.6071079
403,1436607537558,8.819042,-4.698621,-1.5735891
404,1436607537578,8.735245,-4.8177323,-1.7543513
405,1436607537599,8.5473,-4.514866,-1.7405846
406,1436607537619,8.3150625,-4.1138372,-1.4047978
407,1436607537641,8.498817,-3.78643,-1.0690111
408,1436607537663,8.744822,-3.3159695,-0.7858967
409,1436607537681,9.081805,-3.1471782,-0.39743748
