id,attr_time,attr_x,attr_y,attr_z
1,1436607529508,-8.300697,3.4626143,2.955642
2,1436607529526,-8.306683,3.4434607,2.9604304
3,1436607529545,-8.297705,3.4560301,2.9460652
4,1436607529565,-8.32404,3.4781766,2.9562407
5,1436607529588,-8.304887,3.4745853,2.9317
6,1436607529608,-8.305486,3.4632127,2.908955
7,1436607529627,-8.2995,3.448249,2.9358897
8,1436607529648,-8.307879,3.4326868,2.9281087
9,1436607529668,-8.280945,3.4380736,2.9352913
10,1436607529687,-8.275558,3.4614172,2.9376855
11,1436607529708,-8.300697,3.4494462,2.939481
12,1436607529726,-8.282741,3.4302924,2.9269116
13,1436607529748,-8.2995,3.4434607,2.9352913
14,1436607529765,-8.317456,3.4566288,2.9670146
15,1436607529787,-8.322245,3.4560301,2.961029
16,1436607529812,-8.328231,3.4763808,2.9484594
17,1436607529825,-8.357559,3.453636,2.9358897
18,1436607529861,-8.301296,3.4464533,2.9789855
19,1436607529865,-8.2833395,3.4691982,2.9538465
20,1436607529885,-8.290522,3.4685998,2.9340942
21,1436607529908,-8.318055,3.4685998,2.9161377
22,1436607529929,-8.3072815,3.435081,2.8975825
23,1436607529948,-8.271368,3.4302924,2.9119477
24,1436607529968,-8.2833395,3.469797,2.9191303
25,1436607529989,-8.315661,3.466804,2.949058
26,1436607530008,-8.363545,3.4871547,2.9562407
27,1436607530028,-8.350377,3.4703953,2.9724014
28,1436607530089,-8.327033,3.46022,2.9454668
29,1436607530090,-8.301296,3.469797,2.92751
30,1436607530091,-8.296508,3.4512417,2.8987796
31,1436607530106,-8.294113,3.4674027,2.9586349
32,1436607530129,-8.298902,3.4793737,2.9532478
33,1436607530145,-8.288128,3.484162,2.9484594
34,1436607530165,-8.313866,3.4901476,2.9281087
35,1436607530187,-8.309077,3.4566288,2.908955
36,1436607530208,-8.258799,3.4560301,2.9616275
37,1436607530226,-8.2833395,3.4877534,2.9538465
38,1436607530246,-8.313267,3.4739866,2.9251158
39,1436607530266,-8.318654,3.4596214,2.9532478
40,1436607530285,-8.330027,3.4542346,2.9179332
41,1436607530308,-8.32045,3.470994,2.9454668
42,1436607530328,-8.306085,3.4769795,2.9376855
43,1436607530348,-8.328231,3.4865563,2.9376855
44,1436607530368,-8.33242,3.4799721,2.914342
45,1436607530387,-8.33242,3.4446578,2.9083564
46,1436607530409,-8.285135,3.4518404,2.903568
47,1436607530425,-8.286931,3.4117374,2.9071593
48,1436607530448,-8.300098,3.4518404,2.883816
49,1436607530470,-8.30369,3.453636,2.8856115
50,1436607530487,-8.310873,3.4488475,2.9005754
51,1436607530508,-8.288726,3.4584243,2.9071593
52,1436607530531,-8.309675,3.4799721,2.9203274
53,1436607530549,-8.337808,3.4685998,2.9005754
54,1436607530569,-8.379107,3.469797,2.9520507
55,1436607530589,-8.347384,3.442862,2.9167361
56,1436607530608,-8.313866,3.4392707,2.9053638
57,1436607530626,-8.265383,3.4769795,2.9245174
58,1436607530646,-8.259995,3.459023,2.9029696
59,1436607530670,-8.297106,3.4051533,2.8550856
60,1436607530691,-8.292317,3.4129345,2.8921957
61,1436607530710,-8.2995,3.441665,2.8898015
62,1436607530728,-8.330625,3.4608185,2.9257145
63,1436607530747,-8.325238,3.4715924,2.9113493
64,1436607530821,-8.3312235,3.429694,2.9203274
65,1436607530822,-8.306085,3.426701,2.9191303
66,1436607530824,-8.288726,3.433884,2.882619
67,1436607530826,-8.314464,3.4524388,2.8921957
68,1436607530849,-8.330027,3.469797,2.9071593
69,1436607530872,-8.33242,3.484162,2.9149406
70,1436607530891,-8.318055,3.4763808,2.9484594
71,1436607530905,-8.341997,3.4506433,2.947861
72,1436607530931,-8.310274,3.4278982,2.8963854
73,1436607530946,-8.225879,3.376423,2.8790276
74,1436607530969,-8.244433,3.4183214,2.8999767
75,1436607530986,-8.3150625,3.4243069,2.9203274
76,1436607531006,-8.305486,3.4231098,2.903568
77,1436607531029,-8.334216,3.4326868,2.9233203
78,1436607531049,-8.330027,3.4404678,2.9125464
79,1436607531069,-8.327033,3.4392707,2.9041667
80,1436607531089,-8.315661,3.4302924,2.8862102
81,1436607531109,-8.325836,3.4326868,2.8874073
82,1436607531129,-8.309077,3.442862,2.926313
83,1436607531149,-8.3072815,3.4392707,2.9017725
84,1436607531169,-8.310274,3.430891,2.8886044
85,1436607531189,-8.312668,3.4117374,2.8909986
86,1436607531206,-8.314464,3.4302924,2.9215245
87,1436607531229,-8.317456,3.4278982,2.944868
88,1436607531249,-8.333019,3.4518404,2.914342
89,1436607531266,-8.346786,3.4452562,2.9215245
90,1436607531288,-8.354567,3.41892,2.92751
91,1436607531310,-8.294113,3.4141316,2.915539
92,1436607531331,-8.282741,3.46022,2.9251158
93,1436607531351,-8.301894,3.4871547,2.9239187
94,1436607531371,-8.313267,3.459023,2.8760347
95,1436607531386,-8.339603,3.4105403,2.9053638
96,1436607531407,-8.310873,3.4374752,2.9203274
97,1436607531428,-8.319851,3.4650085,2.930503
98,1436607531448,-8.346188,3.4446578,2.9191303
99,1436607531473,-8.355764,3.453636,2.9203274
100,1436607531488,-8.3390045,3.4518404,2.9233203
101,1436607531541,-8.325238,3.4356794,2.903568
102,1436607531544,-8.301894,3.4554317,2.8622682
103,1436607531560,-8.312668,3.4674027,2.879626
104,1436607531566,-8.335413,3.484162,2.9071593
105,1436607531594,-8.340201,3.4793737,2.9352913
106,1436607531608,-8.3150625,3.4769795,2.9484594
107,1436607531627,-8.309675,3.4626143,2.8993783
108,1436607531649,-8.286931,3.4440591,2.8772318
109,1436607531667,-8.265383,3.4745853,2.903568
110,1436607531689,-8.267777,3.4811692,2.9191303
111,1436607531706,-8.297106,3.481768,2.9203274
112,1436607531732,-8.310873,3.4865563,2.9107506
113,1436607531749,-8.334815,3.4715924,2.9287071
114,1436607531771,-8.334815,3.4745853,2.9053638
115,1436607531790,-8.318654,3.470994,2.8981812
116,1436607531809,-8.298303,3.454833,2.914342
117,1436607531829,-8.283937,3.4805708,2.8921957
118,1436607531847,-8.315661,3.4715924,2.9334955
119,1436607531869,-8.306683,3.4680011,2.9029696
120,1436607531889,-8.298902,3.469797,2.89459
121,1436607531909,-8.306683,3.4691982,2.9017725
122,1436607531930,-8.311471,3.470994,2.9173348
123,1436607531946,-8.304887,3.4799721,2.947861
124,1436607531969,-8.297106,3.4608185,2.9173348
125,1436607531989,-8.334216,3.4931402,2.9137435
126,1436607532009,-8.318654,3.4386723,2.9119477
127,1436607532029,-8.302493,3.4566288,2.9682117
128,1436607532050,-8.301296,3.4871547,2.9352913
129,1436607532070,-8.287529,3.4680011,2.8993783
130,1436607532090,-8.306683,3.417723,2.8927941
131,1436607532110,-8.2593975,3.425504,2.9083564
132,1436607532130,-8.271967,3.4703953,2.9322984
133,1436607532151,-8.292916,3.470994,2.9400797
134,1436607532170,-8.329428,3.466804,2.9418752
135,1436607532190,-8.3551655,3.454833,2.9526494
136,1436607532222,-8.330027,3.4608185,2.9322984
137,1436607532350,-8.309077,3.435081,2.9364884
138,1436607532351,-8.30369,3.459023,2.8993783
139,1436607532352,-8.29531,3.4733882,2.9137435
140,1436607532353,-8.304289,3.4811692,2.9484594
141,1436607532354,-8.282741,3.4644098,2.9670146
142,1436607532355,-8.295909,3.4506433,2.9257145
143,1436607532356,-8.292916,3.4518404,2.920926
144,1436607532389,-8.259995,3.454833,2.9616275
145,1436607532390,-8.259995,3.4572272,2.9682117
146,1436607532407,-8.277354,3.465607,2.9682117
147,1436607532430,-8.298902,3.4584243,2.992752
148,1436607532455,-8.292317,3.4608185,2.9831753
149,1436607532469,-8.287529,3.4542346,2.9885623
150,1436607532492,-8.284536,3.445855,2.9753942
151,1436607532508,-8.280347,3.4506433,2.949058
152,1436607532531,-8.263587,3.445855,2.9370868
153,1436607532550,-8.281544,3.4638114,2.947861
154,1436607532570,-8.273763,3.457826,2.9741971
155,1436607532591,-8.276755,3.4763808,2.9777884
156,1436607532611,-8.30369,3.4865563,2.956839
157,1436607532630,-8.284536,3.465607,2.9747956
158,1436607532650,-8.284536,3.453636,2.996942
159,1436607532670,-8.277952,3.4566288,2.9963434
160,1436607532691,-8.267777,3.4440591,2.9963434
161,1436607532710,-8.270171,3.4638114,2.9789855
162,1436607532728,-8.292317,3.4769795,3.0083144
163,1436607532751,-8.291719,3.4332852,2.9879637
164,1436607532771,-8.253412,3.4620156,3.0214825
165,1436607532789,-8.24204,3.4859576,2.9909565
166,1436607532807,-8.285135,3.447052,2.9538465
167,1436607532829,-8.294712,3.425504,2.9813797
168,1436607532848,-8.241441,3.4207156,2.967613
169,1436607532873,-8.236652,3.4685998,2.9951463
170,1436607532904,-8.271967,3.490746,2.9963434
171,1436607532907,-8.29531,3.481768,3.0017304
172,1436607532928,-8.319851,3.4596214,3.0148985
173,1436607532948,-8.291719,3.4596214,2.9993362
174,1436607532968,-8.288128,3.4518404,2.9879637
175,1436607532995,-8.276755,3.447052,2.9622262
176,1436607533007,-8.276156,3.4464533,3.003526
177,1436607533040,-8.273164,3.4572272,3.0142999
178,1436607533055,-8.268375,3.4566288,3.019687
179,1436607533068,-8.277952,3.4644098,2.9724014
180,1436607533089,-8.277354,3.4320881,2.9891608
181,1436607533109,-8.249222,3.4518404,2.9771898
182,1436607533128,-8.233061,3.466804,2.9891608
183,1436607533148,-8.2516165,3.4476504,2.9783869
184,1436607533171,-8.282741,3.4524388,3.0214825
185,1436607533189,-8.3072815,3.4763808,3.016694
186,1436607533208,-8.31207,3.4733882,2.9897594
187,1436607533229,-8.288726,3.4733882,2.9783869
188,1436607533250,-8.273164,3.466804,2.9526494
189,1436607533271,-8.26658,3.4392707,2.9658175
190,1436607533291,-8.251018,3.4440591,2.9777884
191,1436607533312,-8.258201,3.4512417,2.9921536
192,1436607533331,-8.26658,3.435081,3.0005333
193,1436607533351,-8.27496,3.4638114,3.007716
194,1436607533371,-8.304289,3.4518404,2.9909565
195,1436607533399,-8.288128,3.4608185,3.020884
196,1436607533409,-8.275558,3.453636,3.0119057
197,1436607533428,-8.261791,3.4530375,3.0244753
198,1436607533447,-8.291121,3.4685998,3.016694
199,1436607533472,-8.292916,3.4440591,3.0334535
200,1436607533487,-8.267777,3.4368765,3.0340521
201,1436607533507,-8.24563,3.4680011,3.0262709
202,1436607533530,-8.256405,3.4674027,3.0029275
203,1436607533547,-8.298902,3.459023,2.9741971
204,1436607533568,-8.268375,3.4314895,3.0053217
205,1436607533591,-8.225879,3.4093432,3.0065188
206,1436607533611,-8.244433,3.46022,3.0250738
207,1436607533631,-8.262989,3.4596214,3.0310593
208,1436607533651,-8.300098,3.435081,3.0478187
209,1436607533668,-8.316259,3.4452562,3.0388405
210,1436607533687,-8.308478,3.4374752,3.0358477
211,1436607533709,-8.2995,3.4356794,3.0238767
212,1436607533729,-8.2833395,3.4392707,3.044826
213,1436607533785,-8.283937,3.4542346,3.0585926
214,1436607533789,-8.276755,3.4614172,3.0627825
215,1436607533790,-8.258799,3.4518404,3.0292637
216,1436607533813,-8.27077,3.4374752,3.0202854
217,1436607533830,-8.258201,3.4237084,2.9933507
218,1436607533848,-8.227076,3.4320881,3.0190883
219,1436607533869,-8.246229,3.4662056,3.0418332
220,1436607533888,-8.255806,3.4452562,3.0202854
221,1436607533909,-8.286931,3.4530375,3.0412347
222,1436607533929,-8.291121,3.4518404,3.0220811
223,1436607533952,-8.274361,3.4410665,3.0226796
224,1436607533971,-8.284536,3.4662056,3.0334535
225,1436607533992,-8.261791,3.4422636,3.0071173
226,1436607534012,-8.26239,3.4398694,3.0083144
227,1436607534032,-8.259995,3.4237084,3.016694
228,1436607534052,-8.255806,3.4326868,2.991555
229,1436607534070,-8.26658,3.4386723,2.9981391
230,1436607534092,-8.273164,3.4476504,2.9975405
231,1436607534111,-8.298303,3.4440591,2.9706059
232,1436607534130,-8.262989,3.4632127,3.0041246
233,1436607534149,-8.272566,3.4674027,3.0017304
234,1436607534172,-8.26658,3.4638114,3.0095115
235,1436607534192,-8.284536,3.4560301,2.9975405
236,1436607534212,-8.272566,3.445855,2.9801826
237,1436607534232,-8.248025,3.3967736,2.9741971
238,1436607534249,-8.231864,3.4231098,2.9891608
239,1436607534270,-8.217499,3.454833,2.9747956
240,1436607534291,-8.271967,3.4380736,2.9317
241,1436607534311,-8.307879,3.4087446,2.9592333
242,1436607534332,-8.305486,3.4123359,2.9753942
243,1436607534352,-8.339603,3.4494462,2.944868
244,1436607534372,-8.358158,3.4446578,2.9442697
245,1436607534389,-8.3408,3.413533,2.9334955
246,1436607534417,-8.310873,3.353678,2.8987796
247,1436607534481,-8.259995,3.3249476,2.8927941
248,1436607534482,-8.286931,3.2878375,2.9047651
249,1436607534483,-8.293514,3.2704794,2.9334955
250,1436607534492,-8.294113,3.2249897,2.9652188
251,1436607534510,-8.336611,3.204639,2.9933507
252,1436607534531,-8.376115,3.1759086,2.956839
253,1436607534549,-8.428188,3.1280246,2.882619
254,1436607534571,-8.430583,3.0538042,2.854487
255,1436607534590,-8.319252,3.0777464,2.7724855
256,1436607534610,-8.274361,3.0783448,2.7353754
257,1436607534630,-8.233061,3.0921116,2.690484
258,1436607534651,-8.230667,3.0867245,2.6593595
259,1436607534671,-8.195353,3.12982,2.569577
260,1436607534692,-8.112154,3.1615434,2.493561
261,1436607534712,-7.965509,3.2184057,2.381632
262,1436607534732,-7.845799,3.2734723,2.3068132
263,1436607534752,-7.743447,3.364452,2.2349873
264,1436607534772,-7.713519,3.4560301,2.0925324
265,1436607534791,-7.6811976,3.5464113,1.8495208
266,1436607534810,-7.6333137,3.679888,1.5173253
267,1436607534832,-7.6404963,3.9001546,1.258153
268,1436607534862,-7.739856,4.2957964,1.0384849
269,1436607534871,-7.867945,4.868609,0.88405895
270,1436607534891,-7.9990277,5.3863554,0.7332243
271,1436607534913,-7.976283,5.743091,0.45549688
272,1436607534930,-7.94037,5.8681884,0.20051439
273,1436607534950,-7.778163,5.943606,0.10354923
274,1436607534969,-7.61835,5.8783636,0.06464344
275,1436607534990,-7.3765354,5.6826377,0.1340753
276,1436607535010,-7.1604586,5.469554,0.05805939
277,1436607535062,-7.004237,5.085883,-0.28670564
278,1436607535063,-6.8486137,4.729147,-0.59735334
279,1436607535070,-6.917447,4.7141833,-0.7882909
280,1436607535091,-7.1059904,4.8799815,-1.1426327
281,1436607535118,-7.515399,5.0840874,-1.3305776
282,1436607535184,-7.840412,5.0559554,-1.6687586
283,1436607535185,-7.4788876,5.3139305,-1.8686744
284,1436607535186,-7.2227077,4.9883194,-2.3415294
285,1436607535192,-7.0006456,5.1439424,-1.9327193
286,1436607535212,-6.7504516,4.9996915,-2.143409
287,1436607535231,-6.601413,4.84766,-2.2529438
288,1436607535250,-6.5601125,4.5687356,-2.6114755
289,1436607535272,-6.481104,4.220379,-3.0819361
290,1436607535291,-6.647501,3.5835214,-4.0863037
291,1436607535311,-7.025785,3.6182373,-3.7062242
292,1436607535330,-7.304111,3.2375593,-4.461595
293,1436607535351,-7.657854,2.938284,-5.255273
294,1436607535372,-8.042722,2.712032,-5.627571
295,1436607535391,-8.248624,2.3247697,-4.693234
296,1436607535412,-8.228871,1.8902222,-5.0571527
297,1436607535432,-8.16722,1.5340848,-5.2941785
298,1436607535452,-8.189965,1.3784616,-5.0781016
299,1436607535471,-8.409634,1.2689269,-5.614403
300,1436607535492,-8.498219,1.496376,-6.067506
301,1436607535513,-8.30369,1.774702,-5.831677
302,1436607535532,-7.851186,1.7866731,-5.8885393
303,1436607535551,-7.2484455,1.6885108,-5.916671
304,1436607535573,-6.5625067,1.6771383,-5.9184666
305,1436607535593,-5.9771247,1.6687586,-5.6179943
306,1436607535612,-5.6551046,1.4586674,-5.9250507
307,1436607535633,-5.3642087,1.5233108,-6.1489086
308,1436607535652,-5.0547585,1.3515269,-7.1580644
309,1436607535673,-4.5992613,1.0690111,-7.442376
310,1436607535694,-4.3897686,1.0803835,-7.27957
311,1436607535713,-4.325125,1.5532384,-7.243657
312,1436607535733,-4.384382,2.0829554,-6.6744356
313,1436607535756,-4.4460325,1.7010803,-7.505822
314,1436607535772,-4.060566,1.2401965,-8.862138
315,1436607535793,-3.5368345,1.1773487,-9.81503
316,1436607535905,-3.845088,1.9357121,-9.22067
317,1436607535906,-4.687248,2.2631192,-9.65821
318,1436607535907,-5.333084,2.054225,-9.779716
319,1436607535908,-5.429451,1.3503298,-9.337985
320,1436607535909,-4.7518916,0.89603,-8.895657
321,1436607535920,-3.9947255,1.2060791,-8.33242
322,1436607535931,-3.311181,1.5508442,-9.003395
323,1436607535952,-2.5875335,1.9752164,-9.991004
324,1436607535970,-2.2379801,2.2888567,-10.527305
325,1436607535993,-2.1906946,2.634819,-10.415975
326,1436607536010,-2.0350714,2.433706,-10.371083
327,1436607536030,-2.058415,1.8860323,-10.010158
328,1436607536053,-2.4109612,1.7908629,-9.694122
329,1436607536070,-2.7748797,1.7178397,-9.6923275
330,1436607536092,-3.0974984,1.328782,-10.081984
331,1436607536111,-4.233547,-0.39324763,-15.057135
332,1436607536132,-4.231153,1.0869676,-11.361086
333,1436607536153,-3.525462,1.4443022,-7.563283
334,1436607536173,-3.513491,1.9231426,-7.447763
335,1436607536193,-3.1914709,1.6178818,-7.6626425
336,1436607536212,-3.537433,1.484405,-8.162432
337,1436607536233,-3.007716,1.7513585,-8.121132
338,1436607536253,-2.4193408,1.6813282,-8.559271
339,1436607536273,-2.4983494,1.2599486,-9.384672
340,1436607536291,-2.6683378,1.1833342,-8.989629
341,1436607536313,-2.9735985,1.5735891,-8.346188
342,1436607536336,-3.3333273,1.685518,-8.486847
343,1436607536353,-3.5338416,1.7699136,-8.589797
344,1436607536376,-3.503914,1.6065093,-8.808268
345,1436607536393,-3.429694,1.5873557,-8.536526
346,1436607536411,-3.5817258,1.666963,-8.666411
347,1436607536431,-3.731962,1.7375919,-8.136096
348,1436607536452,-4.060566,1.9363106,-7.699753
349,1436607536471,-4.520851,2.067393,-7.8308353
350,1436607536498,-4.89315,2.1320367,-8.136695
351,1436607536513,-4.987122,1.9488802,-8.496424
352,1436607536532,-5.1523223,1.8884265,-8.434174
353,1436607536557,-5.7119665,1.7328035,-8.441956
354,1436607536614,-6.8306575,1.785476,-8.375516
355,1436607536615,-8.0924015,1.7531542,-8.034343
356,1436607536616,-9.008782,1.6567876,-7.41604
357,1436607536638,-9.853935,1.5292963,-6.9102645
358,1436607536651,-9.985018,1.3868413,-6.799533
359,1436607536672,-9.624092,1.5951369,-6.71813
360,1436607536691,-9.503783,1.8171991,-6.042965
361,1436607536711,-9.376292,2.2218192,-5.9124813
362,1436607536732,-9.009979,2.5845408,-5.119402
363,1436607536752,-8.871116,3.0520086,-4.4903255
364,1436607536771,-8.772355,3.3452983,-3.9282866
365,1436607536792,-8.9040365,3.3135753,-3.4039562
366,1436607536813,-9.119514,3.2010477,-2.7647045
367,1436607536831,-9.084799,3.1262288,-2.1338322
368,1436607536852,-8.866327,3.1070752,-1.4610616
369,1436607536871,-8.6813755,3.0771477,-0.90021986
370,1436607536892,-8.382699,2.8473043,-0.33399114
371,1436607536912,-7.9331875,2.6809072,0.18375498
372,1436607536935,-7.5148005,2.6833014,1.0336965
373,1436607536955,-7.043143,2.5390508,1.5975311
374,1436607536975,-6.579266,2.2996306,1.8920178
375,1436607536994,-6.3823433,2.271499,2.0518308
376,1436607537013,-6.3745623,2.6204538,2.1398177
377,1436607537035,-6.8623805,2.8191724,2.3020248
378,1436607537055,-7.607576,3.0232782,2.2224178
379,1436607537072,-8.416218,3.369839,2.1452048
380,1436607537092,-9.496601,3.1226375,1.7393875
381,1436607537112,-9.903615,3.0789435,1.5466543
382,1436607537136,-10.15381,3.2249897,1.3946224
383,1436607537156,-10.044873,3.5775359,1.42455
384,1436607537175,-10.002377,3.7140055,1.7340006
385,1436607537193,-9.554661,3.803788,2.0129251
386,1436607537213,-8.887876,3.843891,2.1428106
387,1436607537232,-8.2115135,3.9612067,2.2894554
388,1436607537253,-7.762002,3.934272,2.5061307
389,1436607537272,-7.530363,3.9187095,2.4809916
390,1436607537294,-7.536947,3.7576995,2.236783
391,1436607537341,-7.8571715,3.9977183,2.3050177
392,1436607537342,-8.4347725,4.1862617,2.3080103
393,1436607537354,-8.7771435,4.3065705,1.7866731
394,1436607537372,-8.898649,4.3436804,1.3413515
395,1436607537392,-9.094376,4.3275194,1.0043676
396,1436607537412,-9.401431,4.185065,0.97982705
397,1436607537432,-9.455301,4.231153,1.3204023
398,1436607537453,-9.327211,4.173692,1.7495629
399,1436607537472,-9.1255,3.9372647,1.7944542
400,1436607537493,-8.580819,3.807978,1.8195933
401,1436607537512,-7.7248917,4.1180267,2.0967221
402,1436607537535,-7.674015,4.179079,2.6270378
403,1436607537561,-7.4950485,4.441244,2.6689363
404,1436607537586,-7.4322004,4.6220064,2.5312698
405,1436607537603,-7.4166384,4.71538,2.2852654
406,1436607537612,-7.1622543,4.7417164,2.381632
407,1436607537632,-6.9491706,4.8620253,2.5001452
408,1436607537652,-6.669049,5.1541176,2.8939912
409,1436607537672,-6.729502,5.115212,2.955642
410,1436607537692,-6.687604,4.938041,2.9125464
411,1436607537712,-6.6989765,4.736928,3.079542
412,1436607537732,-6.807314,4.5920787,3.2555158
413,1436607537752,-6.805518,4.505289,3.4332852
414,1436607537793,-6.6163764,4.596867,3.7463272
415,1436607537794,-6.452972,4.905121,3.9240966
416,1436607537813,-6.3847375,5.300164,4.1383777
417,1436607537835,-6.417658,6.0699,4.571728
418,1436607537853,-6.499659,7.129334,4.474763
419,1436607537873,-6.3404446,8.087613,3.9043443
420,1436607537893,-5.7400985,8.666411,3.7415388
