id,attr_time,attr_x,attr_y,attr_z
1,1436607529509,-0.9840169,9.796474,2.7497406
2,1436607529530,-0.98700964,9.805453,2.7527335
3,1436607529550,-1.0007763,9.793482,2.7443538
4,1436607529571,-0.96905315,9.812037,2.7724855
5,1436607529590,-0.98102415,9.803658,2.7736826
6,1436607529612,-0.9696517,9.809045,2.758719
7,1436607529630,-0.9720459,9.802461,2.746748
8,1436607529652,-0.9720459,9.794679,2.7269957
9,1436607529672,-0.9648633,9.781511,2.7401638
10,1436607529690,-0.97025025,9.784504,2.7389667
11,1436607529712,-0.97264445,9.788095,2.7461493
12,1436607529731,-0.96785605,9.777321,2.7299886
13,1436607529752,-0.99299514,9.7863,2.7389667
14,1436607529769,-0.9864111,9.790489,2.72939
15,1436607529790,-0.97623575,9.798869,2.742558
16,1436607529810,-0.9780314,9.798869,2.743755
17,1436607529832,-0.97264445,9.793482,2.754529
18,1436607529852,-0.9828198,9.8198185,2.758719
19,1436607529873,-0.97264445,9.806051,2.7383683
20,1436607529890,-0.98222125,9.809045,2.746748
21,1436607529910,-0.97025025,9.79827,2.7724855
22,1436607529929,-0.96905315,9.820416,2.743755
23,1436607529949,-0.97503865,9.817424,2.7407625
24,1436607529970,-1.003769,9.809643,2.742558
25,1436607529992,-0.9696517,9.8198185,2.758719
26,1436607530079,-0.9636662,9.812635,2.7449522
27,1436607530080,-0.919972,9.809643,2.7659016
28,1436607530081,-0.9211691,9.821614,2.753332
29,1436607530086,-0.9223662,9.832388,2.7521348
30,1436607530094,-0.9600749,9.82341,2.7539306
31,1436607530109,-0.97264445,9.811439,2.77069
32,1436607530129,-0.97384155,9.808446,2.7377696
33,1436607530149,-0.97623575,9.809643,2.771887
34,1436607530169,-0.9911995,9.806051,2.765303
35,1436607530192,-1.0127473,9.81922,2.7485435
36,1436607530211,-0.9923966,9.801263,2.7700913
37,1436607530229,-0.943914,9.809643,2.7527335
38,1436607530251,-0.9552865,9.813234,2.7748797
39,1436607530272,-0.95109665,9.791088,2.7503393
40,1436607530292,-0.97743285,9.822811,2.7371712
41,1436607530312,-0.96187055,9.812635,2.7491422
42,1436607530330,-0.95349085,9.803059,2.7497406
43,1436607530350,-0.9756372,9.8042555,2.7688942
44,1436607530372,-0.97743285,9.81922,2.7461493
45,1436607530392,-0.94810385,9.821614,2.7515364
46,1436607530410,-0.9923966,9.81084,2.746748
47,1436607530430,-0.96187055,9.77792,2.741361
48,1436607530450,-0.94930094,9.780912,2.7455509
49,1436607530471,-0.96067345,9.794081,2.747945
50,1436607530493,-0.931943,9.791686,2.7365725
51,1436607530513,-0.9600749,9.801263,2.747945
52,1436607530529,-0.96785605,9.791088,2.7443538
53,1436607530550,-0.9588778,9.801862,2.7210102
54,1436607530570,-0.9516952,9.792285,2.7563248
55,1436607530595,-0.93852705,9.798869,2.7665
56,1436607530610,-0.9295488,9.808446,2.754529
57,1436607530634,-0.93254155,9.798869,2.735974
58,1436607530653,-0.94810385,9.792285,2.755726
59,1436607530670,-0.93493575,9.790489,2.734777
60,1436607530690,-0.96785605,9.808446,2.7275944
61,1436607530710,-0.99898064,9.806051,2.7778726
62,1436607530730,-0.98102415,9.800066,2.7527335
63,1436607530750,-0.9516952,9.824607,2.7521348
64,1436607530796,-0.943914,9.803059,2.7383683
65,1436607530797,-0.92057055,9.782708,2.7192147
66,1436607530815,-0.90979666,9.812635,2.7377696
67,1436607530830,-0.9008184,9.824607,2.7419596
68,1436607530852,-0.919972,9.838373,2.746748
69,1436607530871,-0.9391256,9.834184,2.771887
70,1436607530892,-0.9451111,9.82341,2.7593174
71,1436607530912,-0.95708215,9.81922,2.7497406
72,1436607530930,-0.98461545,9.818622,2.7210102
73,1436607530952,-0.99538934,9.780912,2.705448
74,1436607530971,-0.97384155,9.779716,2.7144263
75,1436607530991,-0.9600749,9.796474,2.7048495
76,1436607531012,-0.97384155,9.817424,2.7353754
77,1436607531031,-0.95468795,9.821614,2.7377696
78,1436607531052,-0.943914,9.820416,2.735974
79,1436607531070,-0.95349085,9.816826,2.7419596
80,1436607531093,-0.93972415,9.813833,2.7263973
81,1436607531111,-0.9475053,9.809045,2.7449522
82,1436607531131,-0.9636662,9.80665,2.747945
83,1436607531153,-0.9552865,9.807847,2.7281928
84,1436607531173,-0.9636662,9.792285,2.7329812
85,1436607531191,-0.9504981,9.800066,2.741361
86,1436607531212,-0.96785605,9.798869,2.7419596
87,1436607531230,-0.973243,9.789292,2.7150247
88,1436607531251,-0.96905315,9.794081,2.743755
89,1436607531273,-0.9528923,9.809045,2.7605145
90,1436607531291,-0.98222125,9.78989,2.7263973
91,1436607531313,-0.97982705,9.815628,2.7491422
92,1436607531334,-0.9780314,9.7863,2.7162218
93,1436607531351,-0.9684546,9.799467,2.7575219
94,1436607531371,-0.9528923,9.7958765,2.7461493
95,1436607531390,-0.97025025,9.807847,2.7311857
96,1436607531413,-1.0085574,9.816227,2.7497406
97,1436607531431,-0.9744401,9.801263,2.7371712
98,1436607531452,-0.94331545,9.80665,2.7617116
99,1436607531481,-0.9235633,9.802461,2.7449522
100,1436607531551,-0.92176765,9.76954,2.718616
101,1436607531552,-0.91099375,9.809643,2.7449522
102,1436607531553,-0.92057055,9.811439,2.7617116
103,1436607531554,-0.9415198,9.8276,2.7617116
104,1436607531572,-0.9528923,9.829993,2.7455509
105,1436607531593,-0.94451255,9.809045,2.783858
106,1436607531610,-0.93852705,9.7958765,2.7521348
107,1436607531631,-0.95349085,9.812037,2.7407625
108,1436607531652,-0.9588778,9.821015,2.7371712
109,1436607531672,-0.9403227,9.780912,2.7473464
110,1436607531693,-0.92535895,9.800066,2.741361
111,1436607531711,-0.9259575,9.801263,2.7407625
112,1436607531734,-0.9343372,9.803658,2.746748
113,1436607531753,-0.9391256,9.81503,2.7575219
114,1436607531774,-0.9211691,9.818023,2.7497406
115,1436607531794,-0.93373865,9.815628,2.7569232
116,1436607531813,-0.92895025,9.807249,2.7641058
117,1436607531834,-0.9379285,9.816227,2.7503393
118,1436607531852,-0.93613285,9.803658,2.7491422
119,1436607531873,-0.92176765,9.811439,2.7635074
120,1436607531894,-0.95229375,9.801263,2.7670987
121,1436607531914,-0.92296475,9.783307,2.7485435
122,1436607531933,-0.9427169,9.814431,2.755726
123,1436607531954,-0.9391256,9.795278,2.7563248
124,1436607531974,-0.9379285,9.81084,2.7694929
125,1436607531994,-0.94570965,9.811439,2.77069
126,1436607532014,-0.96785605,9.798869,2.7688942
127,1436607532033,-0.97025025,9.815628,2.765303
128,1436607532058,-0.96905315,9.810242,2.7539306
129,1436607532079,-0.9660604,9.809045,2.7820623
130,1436607532098,-0.9660604,9.803059,2.746748
131,1436607532114,-0.9864111,9.814431,2.7665
132,1436607532133,-1.0043676,9.791088,2.7389667
133,1436607532154,-0.9816227,9.793482,2.731784
134,1436607532173,-0.9552865,9.800066,2.7527335
135,1436607532205,-0.9403227,9.783307,2.7383683
136,1436607532273,-0.94451255,9.811439,2.7754784
137,1436607532274,-0.9367314,9.816826,2.7641058
138,1436607532275,-0.94690675,9.838373,2.7527335
139,1436607532276,-0.9552865,9.813833,2.777274
140,1436607532291,-0.96665895,9.813234,2.759916
141,1436607532312,-0.96785605,9.803059,2.7575219
142,1436607532331,-0.98461545,9.788693,2.7449522
143,1436607532353,-0.9923966,9.80665,2.7461493
144,1436607532371,-0.98461545,9.792884,2.7473464
145,1436607532394,-0.9935937,9.797073,2.7539306
146,1436607532424,-0.9828198,9.806051,2.7605145
147,1436607532434,-0.9959879,9.80665,2.771887
148,1436607532451,-1.0103531,9.80665,2.778471
149,1436607532471,-1.0145429,9.801862,2.7820623
150,1436607532491,-1.0127473,9.796474,2.7605145
151,1436607532514,-1.0199299,9.79827,2.7748797
152,1436607532535,-1.0247183,9.785701,2.7575219
153,1436607532556,-1.0301052,9.785102,2.7515364
154,1436607532577,-1.0265139,9.783905,2.7539306
155,1436607532591,-1.0001777,9.7863,2.747945
156,1436607532611,-0.9935937,9.789292,2.782661
157,1436607532631,-0.9947908,9.796474,2.782661
158,1436607532653,-0.98940384,9.791088,2.7635074
159,1436607532673,-1.0061632,9.792285,2.747945
160,1436607532694,-1.0169371,9.794081,2.765303
161,1436607532714,-1.033098,9.778519,2.7623103
162,1436607532731,-1.039682,9.79827,2.7778726
163,1436607532752,-1.0462662,9.797672,2.7928362
164,1436607532775,-1.0408791,9.789292,2.7730842
165,1436607532796,-1.0540473,9.792884,2.7700913
166,1436607532816,-1.043872,9.791686,2.7862523
167,1436607532834,-1.0378864,9.799467,2.791639
168,1436607532851,-1.0690111,9.792884,2.7742813
169,1436607532872,-1.0857705,9.768942,2.7778726
170,1436607532892,-1.0420763,9.774328,2.7581203
171,1436607532915,-1.0271125,9.786898,2.7449522
172,1436607532935,-1.0049661,9.799467,2.7515364
173,1436607532959,-0.9720459,9.78989,2.7575219
174,1436607532976,-0.997185,9.81922,2.779668
175,1436607532993,-1.0031705,9.821614,2.7754784
176,1436607533011,-1.0175357,9.813234,2.7922378
177,1436607533034,-1.0241197,9.797672,2.7808652
178,1436607533053,-1.0366893,9.773131,2.7665
179,1436607533075,-1.0342951,9.780912,2.7575219
180,1436607533092,-1.0630256,9.793482,2.741361
181,1436607533113,-1.0648212,9.770139,2.7509377
182,1436607533135,-1.0289081,9.795278,2.765303
183,1436607533155,-1.027711,9.770139,2.7629087
184,1436607533175,-1.0486604,9.791088,2.7593174
185,1436607533195,-1.0402806,9.792884,2.7665
186,1436607533215,-1.0336965,9.808446,2.77069
187,1436607533233,-1.0324994,9.807847,2.7611132
188,1436607533255,-1.0205284,9.770139,2.7593174
189,1436607533276,-1.021127,9.80665,2.7724855
190,1436607533295,-1.0139444,9.787497,2.759916
191,1436607533314,-1.0151415,9.760562,2.753332
192,1436607533335,-1.0169371,9.780912,2.7497406
193,1436607533355,-1.0253168,9.785701,2.7539306
194,1436607533376,-1.0426749,9.800066,2.7862523
195,1436607533395,-1.0468647,9.7803135,2.758719
196,1436607533415,-1.0408791,9.782708,2.753332
197,1436607533436,-1.0618285,9.77792,2.7539306
198,1436607533455,-1.0372878,9.7863,2.7473464
199,1436607533475,-1.0690111,9.780912,2.7665
200,1436607533496,-1.0576386,9.78989,2.7856536
201,1436607533516,-1.067814,9.807249,2.759916
202,1436607533535,-1.0576386,9.788095,2.7647045
203,1436607533555,-1.0666169,9.78989,2.777274
204,1436607533581,-1.0606314,9.783307,2.7593174
205,1436607533647,-1.0690111,9.7563715,2.7569232
206,1436607533648,-1.0809821,9.781511,2.7569232
207,1436607533649,-1.0570401,9.774328,2.7473464
208,1436607533657,-1.027711,9.781511,2.7455509
209,1436607533675,-1.0241197,9.767146,2.7617116
210,1436607533695,-1.0067618,9.811439,2.7760768
211,1436607533712,-1.0384849,9.8198185,2.7886465
212,1436607533734,-1.0498575,9.824008,2.7814639
213,1436607533753,-1.0684125,9.801862,2.778471
214,1436607533776,-1.0696096,9.799467,2.7694929
215,1436607533796,-1.073201,9.776124,2.7497406
216,1436607533813,-1.086369,9.778519,2.7449522
217,1436607533838,-1.0869676,9.812037,2.7611132
218,1436607533858,-1.0791864,9.784504,2.7736826
219,1436607533876,-1.0588357,9.794081,2.7856536
220,1436607533896,-1.0522517,9.794679,2.7880478
221,1436607533917,-1.043872,9.800665,2.783858
222,1436607533935,-1.0690111,9.803658,2.7910407
223,1436607533956,-1.0696096,9.801263,2.7641058
224,1436607533976,-1.0426749,9.788095,2.7742813
225,1436607533996,-1.0546459,9.787497,2.7641058
226,1436607534018,-1.0582372,9.772532,2.7485435
227,1436607534038,-1.0546459,9.770737,2.7335799
228,1436607534055,-1.0588357,9.776124,2.759916
229,1436607534083,-1.0576386,9.7563715,2.7593174
230,1436607534095,-1.0546459,9.76535,2.7377696
231,1436607534119,-1.0510546,9.775525,2.7886465
232,1436607534136,-1.0378864,9.778519,2.7635074
233,1436607534153,-1.043872,9.782708,2.7455509
234,1436607534173,-1.033098,9.790489,2.7647045
235,1436607534193,-1.0289081,9.804854,2.767697
236,1436607534218,-1.0384849,9.786898,2.7736826
237,1436607534239,-1.0241197,9.798869,2.7940333
238,1436607534259,-1.0372878,9.768942,2.7509377
239,1436607534278,-1.0205284,9.791686,2.755726
240,1436607534294,-1.0265139,9.770139,2.7611132
241,1436607534348,-1.0271125,9.787497,2.717419
242,1436607534349,-1.0408791,9.832388,2.747945
243,1436607534353,-1.0474633,9.826403,2.743755
244,1436607534373,-0.99419224,9.857527,2.7257986
245,1436607534395,-0.9588778,9.849147,2.7700913
246,1436607534416,-0.92775315,9.829395,2.7156234
247,1436607534433,-0.95229375,9.855731,2.695871
248,1436607534459,-0.99538934,9.831191,2.6809072
249,1436607534474,-1.0073603,9.829993,2.6725276
250,1436607534494,-1.0468647,9.853337,2.6461914
251,1436607534513,-1.0570401,9.913192,2.6138697
252,1436607534535,-1.0803835,9.92636,2.6072857
253,1436607534557,-1.1294646,9.989208,2.597709
254,1436607534575,-1.1815386,10.010158,2.570774
255,1436607534596,-1.210269,9.980229,2.517503
256,1436607534617,-1.1145009,9.985018,2.44448
257,1436607534636,-1.0737995,10.001778,2.4361002
258,1436607534657,-0.99060094,10.031107,2.4271219
259,1436607534676,-0.9331401,10.05864,2.4678235
260,1436607534697,-0.88525605,10.052056,2.4863784
261,1436607534716,-0.88405895,10.067618,2.492364
262,1436607534737,-0.9151836,10.033501,2.5061307
263,1436607534755,-0.87687635,9.991004,2.5198972
264,1436607534777,-0.8295909,10.015544,2.5384524
265,1436607534797,-0.694917,10.102334,2.6240451
266,1436607534816,-0.46866497,10.084377,2.8089972
267,1436607534837,-0.2813187,9.983223,2.996942
268,1436607534857,-0.06823475,9.712079,3.2016463
269,1436607534877,0.25857377,9.437943,3.401562
270,1436607534897,0.6404489,9.11712,3.5954924
271,1436607534918,1.09834,8.977059,3.86484
272,1436607534936,1.4077905,8.966286,4.0521865
273,1436607534957,1.4706384,8.859145,4.2054152
274,1436607534976,1.3850456,8.668806,4.334702
275,1436607534997,1.2324153,8.511986,4.285621
276,1436607535016,1.1186907,8.388684,4.2999864
277,1436607535124,1.1198878,8.264784,4.207211
278,1436607535125,1.1857284,8.110957,4.0563765
279,1436607535135,1.2791022,7.9661074,3.9234982
280,1436607535136,1.435324,8.046912,3.693056
281,1436607535137,1.7543513,8.244433,3.4859576
282,1436607535138,2.03567,8.260594,3.4488475
283,1436607535156,2.1936872,8.121132,3.554791
284,1436607535176,2.2469583,7.9104424,3.693056
285,1436607535194,2.284667,7.9391727,3.8247373
286,1436607535219,2.2709002,8.188768,3.7535098
287,1436607535235,2.2625206,8.327033,3.4973302
288,1436607535255,2.3780408,8.294712,3.1759086
289,1436607535276,2.6156654,8.258201,2.8814218
290,1436607535296,2.9113493,8.426991,2.4121583
291,1436607535314,3.2501287,8.866926,1.7022774
292,1436607535337,3.4925418,9.13388,0.82599956
293,1436607535357,3.675698,9.411008,0.61650693
294,1436607535377,4.047398,9.14226,0.23642741
295,1436607535426,4.422689,8.981249,-0.03172317
296,1436607535427,4.6285906,8.998009,-0.2717419
297,1436607535436,4.829105,9.576208,-0.75357497
298,1436607535457,4.9961004,10.34774,-1.3186066
299,1436607535477,5.044583,10.577583,-1.2575544
300,1436607535497,5.1343656,10.541072,-0.85532856
301,1436607535516,5.1762643,10.135254,-0.2621651
302,1436607535538,5.037999,9.612122,0.27234045
303,1436607535558,4.6926355,9.251794,0.42078096
304,1436607535581,4.4442368,9.12131,0.12330139
305,1436607535597,4.395156,8.899846,-0.47225627
306,1436607535617,4.770447,8.925584,-1.1127052
307,1436607535638,5.3660045,9.005191,-1.3042414
308,1436607535657,5.9382186,8.741829,-0.83378077
309,1436607535678,6.1207767,7.809886,-0.092176765
310,1436607535698,6.113594,6.827066,0.25797522
311,1436607535717,6.0764837,6.393716,0.27234045
312,1436607535736,6.0770826,6.559514,0.15322891
313,1436607535756,6.2207346,7.339425,0.023343466
314,1436607535784,6.623559,7.741651,0.15143326
315,1436607535853,7.247847,7.6147585,0.4369418
316,1436607535855,7.900267,7.3406224,1.003769
317,1436607535856,8.109759,7.0347633,1.4000094
318,1436607535857,8.094796,6.8360443,1.6106992
319,1436607535878,7.7494326,6.591836,1.4682442
320,1436607535896,7.687183,6.423643,1.122282
321,1436607535917,7.6147585,5.8825536,0.87448215
322,1436607535936,7.667431,5.663484,0.74639237
323,1436607535955,7.765593,5.6281695,0.59136784
324,1436607535977,8.059482,5.805939,0.45789108
325,1436607535999,8.417415,6.2566476,0.6099229
326,1436607536016,8.476671,6.084265,0.95708215
327,1436607536042,8.326435,5.6335564,1.2958617
328,1436607536055,8.401254,5.732916,1.5388732
329,1436607536082,8.683171,6.259042,1.8543092
330,1436607536095,8.887876,6.8168907,1.7369933
331,1436607536117,8.783728,6.859388,1.4856021
332,1436607536138,8.455722,6.6983776,1.352724
333,1436607536158,7.989451,6.543952,1.2940661
334,1436607536178,7.4950485,5.8400564,1.353921
335,1436607536198,7.091027,5.5042696,1.4664485
336,1436607536217,7.019799,5.740697,1.4939818
337,1436607536236,6.8905125,6.1447186,1.3551182
338,1436607536258,6.9090676,6.3925185,1.1474211
339,1436607536277,7.1580644,6.7684083,1.4149733
340,1436607536295,6.909666,6.6492968,1.887828
341,1436607536315,6.5684924,6.4350157,2.0667946
342,1436607536336,6.980295,6.6905966,1.7896658
343,1436607536358,7.4926543,6.9479733,1.2659341
344,1436607536378,7.4788876,6.805518,0.8924387
345,1436607536398,7.299921,6.403891,1.0055647
346,1436607536417,7.349002,6.1207767,1.4532804
347,1436607536438,7.454347,6.1650696,1.7836803
348,1436607536457,7.307702,6.3745623,1.8513165
349,1436607536477,6.8025255,6.63553,1.9997569
350,1436607536496,6.251859,7.065289,2.3463178
351,1436607536550,5.731719,7.791331,2.8173769
352,1436607536551,5.2642508,8.642469,3.208829
353,1436607536565,4.6279917,9.15842,3.484162
354,1436607536575,3.9630024,9.545084,3.8271315
355,1436607536602,3.4967315,10.288484,4.192846
356,1436607536623,2.9939492,11.058219,4.4484267
357,1436607536639,2.534861,11.3562975,4.809353
358,1436607536664,2.1978772,10.955269,5.470751
359,1436607536676,1.8148049,10.533889,5.839458
360,1436607536696,1.4341269,10.390836,5.872977
361,1436607536717,1.067814,10.900202,5.769428
362,1436607536739,0.55365914,11.08276,5.5000796
363,1436607536755,0.1352724,10.693104,5.523423
364,1436607536779,-0.044891283,10.495582,5.6221843
365,1436607536799,-0.29388827,10.02572,5.7867856
366,1436607536819,-0.45549688,9.8198185,5.885546
367,1436607536839,-0.5979519,9.715671,5.907094
368,1436607536859,-0.80205756,9.533711,5.8759694
369,1436607536878,-0.9576807,8.533533,5.7562594
370,1436607536899,-1.0833763,7.4896617,5.817312
371,1436607536920,-1.459266,7.796119,5.7095723
372,1436607536937,-2.0907366,8.330625,5.0571527
373,1436607536959,-2.5025394,7.6506715,5.112818
374,1436607536979,-2.9071593,6.809708,5.804742
375,1436607536999,-3.4320881,6.3500214,6.1303535
376,1436607537018,-3.942053,6.411672,5.9424086
377,1436607537037,-4.268862,6.6684504,5.7263317
378,1436607537060,-4.3837833,7.065888,5.747281
379,1436607537085,-4.243124,7.5351515,5.823297
380,1436607537101,-3.5392287,7.4345946,6.18542
381,1436607537118,-2.8999767,6.663662,6.7546415
382,1436607537138,-2.5312698,5.981314,7.0874357
383,1436607537158,-2.1523874,6.0687027,7.1209545
384,1436607537178,-2.0757728,6.5481415,7.1221514
385,1436607537196,-2.2780828,6.4368114,7.27957
386,1436607537219,-2.5516205,6.367978,7.6213427
387,1436607537281,-3.0029275,6.3949127,7.957728
388,1436607537282,-3.6206315,6.6026096,7.969699
389,1436607537283,-4.2401314,6.601413,7.8984714
390,1436607537297,-4.262876,6.769605,7.889493
391,1436607537318,-3.5673606,7.1664443,8.009802
392,1436607537336,-2.859874,7.177218,8.189367
393,1436607537356,-2.2361844,6.9826894,8.215703
394,1436607537378,-1.6370354,6.389526,8.034941
395,1436607537398,-0.92535895,6.187216,7.889493
396,1436607537416,-0.59855044,6.329072,7.771579
397,1436607538781,-0.53809685,6.325481,7.5267715
398,1436607538782,-0.6123171,6.033388,7.463924
399,1436607538783,-0.7015011,5.6185927,7.3669586
400,1436607538784,-0.729633,5.4384294,7.289147
401,1436607538785,-0.8762778,5.524022,7.1993647
402,1436607538786,-1.2970588,5.5880666,7.009624
403,1436607538787,-1.769315,5.415684,6.733692
404,1436607538788,-2.232593,5.2504845,6.485294
405,1436607538789,-2.5013423,4.9787426,6.3823433
406,1436607538790,-2.9011738,4.894945,6.3829417
407,1436607538791,-3.2878375,4.6884456,6.3619924
408,1436607538792,-3.5098996,4.8883615,6.399701
409,1436607538793,-3.496133,5.7640405,6.3063273
410,1436607538794,-3.38181,5.3725886,6.2566476
411,1436607538795,-3.5535939,4.43885,6.367978
412,1436607538796,-4.127005,4.8081555,6.6469026
413,1436607538797,-4.8865657,5.195418,6.609792
414,1436607538798,-5.4767365,4.9919105,6.591237
415,1436607538799,-6.054936,5.122993,6.6044054
416,1436607538800,-6.5469446,5.519832,6.6965823
417,1436607538801,-6.911462,5.1397524,6.9844847
418,1436607538802,-6.9838862,4.3460746,7.430405
419,1436607538803,-6.6265516,3.627814,7.2023573
420,1436607538804,-5.9023056,3.1585505,6.7109475
421,1436607538805,-5.4300494,3.705027,6.3745623
