id,attr_time,attr_x,attr_y,attr_z
1,1437142800023,1.769315,10.019734,-0.25438392
2,1437142800042,1.6358383,10.022727,-0.27593175
3,1437142800062,1.6412252,10.031705,-0.26994625
4,1437142800083,1.638831,10.037092,-0.2657564
5,1437142800100,1.797447,10.05864,-0.23343466
6,1437142800122,1.7375919,10.055049,-0.21308395
7,1437142800143,1.6370354,10.055647,-0.2633622
8,1437142800161,1.650802,10.040085,-0.27593175
9,1437142800180,1.714847,10.025121,-0.25857377
10,1437142800203,1.6472107,10.018537,-0.24959552
11,1437142800223,1.5490485,10.038888,-0.2801216
12,1437142800242,1.7513585,10.040085,-0.21547815
13,1437142800262,1.7316064,10.020931,-0.22864626
14,1437142800282,1.6879122,10.013748,-0.2765303
15,1437142800301,1.6136919,9.999982,-0.27832595
16,1437142800322,1.6454151,10.056845,-0.2765303
17,1437142800341,1.7202339,10.029311,-0.23223756
18,1437142800363,1.6801311,10.044274,-0.19991584
19,1437142800383,1.6897079,10.029909,-0.18854338
20,1437142800403,1.6017209,10.067618,-0.272939
21,1437142800420,1.7405846,10.023325,-0.26874915
22,1437142800449,1.726818,10.029311,-0.29867667
23,1437142800504,1.7010803,10.007763,-0.24301147
24,1437142800505,1.6065093,10.040684,-0.2136825
25,1437142800506,1.6543933,10.084976,-0.25617957
26,1437142800528,1.7166426,10.048465,-0.2136825
27,1437142800539,1.7100586,10.044873,-0.2837129
28,1437142800560,1.780089,9.952697,-0.25079262
29,1437142800581,1.6496049,9.9928,-0.24959552
30,1437142800602,1.5358804,10.073005,-0.2100912
31,1437142800622,1.6184803,10.088568,-0.22744916
32,1437142800640,1.7118542,10.046669,-0.20111294
33,1437142800662,1.7675194,9.992201,-0.25318682
34,1437142800681,1.6514006,9.98442,-0.19393034
35,1437142800703,1.4862007,10.044274,-0.16699557
36,1437142800720,1.6412252,10.070611,-0.18195933
37,1437142800742,1.751957,10.072407,-0.23343466
38,1437142800763,1.7375919,10.043077,-0.25498247
39,1437142800784,1.6364368,10.007165,-0.20530279
40,1437142800803,1.5520413,9.986814,-0.14844051
41,1437142800823,1.4867992,10.048465,-0.14305355
42,1437142800844,1.7040731,10.038888,-0.17477672
43,1437142800863,1.6675615,9.98442,-0.15562311
44,1437142800883,1.46585,10.108918,-0.24420857
45,1437142800905,1.5556326,10.172364,-0.22565351
46,1437142800921,1.6196774,10.125677,-0.18375498
47,1437142800943,1.6514006,10.08737,-0.14425065
48,1437142800970,1.6286557,10.022727,-0.17597382
49,1437142800982,1.5927427,10.029311,-0.18555063
50,1437142801001,1.6657659,10.031705,-0.16759412
51,1437142801023,1.5580268,10.090961,-0.14664486
52,1437142801043,1.590947,10.059837,-0.17776948
53,1437142801063,1.7244238,10.049063,-0.108337626
54,1437142801083,1.5783775,10.067019,-0.089782566
55,1437142801103,1.4796166,10.097546,-0.090979666
56,1437142801125,1.6274586,10.017939,-0.060453594
57,1437142801144,1.6873137,10.05445,-0.0664391
58,1437142801164,1.5526398,10.125677,-0.033518825
59,1437142801254,1.4502877,10.139444,-0.0011971008
60,1437142801255,1.5233108,10.1304655,0.0700304
61,1437142801256,1.79206,10.13286,0.08379706
62,1437142801257,1.6244658,10.097546,0.047285482
63,1437142801281,1.3784616,10.070611,0.011372458
64,1437142801282,1.3305776,10.085575,0.10414778
65,1437142801303,0.88944596,10.08737,-0.029927522
66,1437142801335,0.8463503,10.292673,0.110731825
67,1437142801345,0.7020996,10.304645,0.0011971008
68,1437142801369,1.1043255,10.174759,0.207697
69,1437142801381,1.3850456,10.157999,0.22565351
70,1437142801401,1.2653356,10.5291,0.29807812
71,1437142801421,0.7457938,10.878654,0.3537433
72,1437142801441,0.3238158,10.981605,0.25438392
73,1437142801461,0.7445967,11.359888,0.2100912
74,1437142801481,0.82899237,10.59135,0.40222588
75,1437142801501,1.1174936,9.934141,0.091578215
76,1437142801520,1.6340426,9.877877,-0.41479546
77,1437142801540,2.1266496,9.77792,-0.8182184
78,1437142801561,1.946486,9.578603,-1.1683705
79,1437142801581,0.46686932,9.219472,-0.79846627
80,1437142801601,-1.7633295,8.750209,-0.8062474
81,1437142801621,-2.5899277,8.807071,-1.002572
82,1437142801640,-1.95307,9.129689,-0.83856916
83,1437142801661,-0.9756372,9.709685,-0.7110779
84,1437142801680,-0.34117374,10.040085,-0.29568392
85,1437142801701,0.09876082,10.305243,-0.06703765
86,1437142801720,0.6739678,10.501567,0.04070143
87,1437142801746,1.9853917,11.341932,-0.06404489
88,1437142801766,4.6112323,10.485406,-0.4782418
89,1437142801787,5.976526,10.436325,-0.7529764
90,1437142801803,8.683171,12.840702,0.016759412
91,1437142801820,6.9090676,10.453683,-0.14903906
92,1437142801840,3.6834793,9.404425,-0.02813187
93,1437142801862,2.7742813,8.453926,0.39384618
94,1437142801883,0.9744401,8.056489,0.86011696
95,1437142801902,-0.023343466,8.257602,0.6907272
96,1437142801955,-0.38367084,8.714295,0.8242039
97,1437142801956,-0.62608373,9.130887,0.87208796
98,1437142801965,3.5464113,10.978612,-0.47405192
99,1437142801984,3.2261868,10.281899,0.39743748
100,1437142802002,1.2054806,9.268554,-0.42916065
101,1437142802023,1.9057846,9.739613,-0.35314476
102,1437142802041,2.0440497,9.838972,-0.7930793
103,1437142802066,1.1779473,10.797251,-2.088941
104,1437142802093,-0.56802434,12.7970085,1.1480197
105,1437142802101,-1.2862848,10.259154,-0.81761986
106,1437142802128,2.8700492,9.972448,-1.7561469
107,1437142802143,4.36044,9.491813,-1.4622587
108,1437142802166,2.6749218,9.336788,-1.87047
109,1437142802184,2.1176715,10.101735,-0.943914
110,1437142802204,1.4209588,10.144831,-0.7691373
111,1437142802225,2.3253684,9.949105,-0.5021838
112,1437142802244,2.5462334,10.594342,-0.61770403
113,1437142802264,2.0626047,10.62846,-1.0372878
114,1437142802284,2.581548,10.301651,-2.1332338
115,1437142802304,3.1812954,9.554062,-2.6156654
116,1437142802325,3.37762,9.2625675,-3.115455
117,1437142802345,3.8355112,9.427169,-3.2609026
118,1437142802362,3.3602622,9.6288805,-2.6551697
119,1437142802384,2.5899277,9.566033,-1.99437
120,1437142802405,3.323152,9.118318,-1.9117701
121,1437142802425,3.1561563,9.102755,-2.3493104
122,1437142802444,2.332551,9.451111,-2.2529438
123,1437142802465,1.513734,9.662399,-1.7699136
124,1437142802484,2.1440077,9.604341,-1.8261774
125,1437142802504,3.004723,9.345168,-1.6274586
126,1437142802525,1.9057846,9.840169,-1.2395979
127,1437142802544,2.1631613,9.852738,-1.0696096
128,1437142802565,2.7778726,10.290877,-1.8794483
129,1437142802596,1.501763,8.423999,-0.557849
130,1437142802602,2.9502552,8.955511,-0.43993455
131,1437142802713,5.7143607,8.495825,-2.0093338
132,1437142802714,5.8280854,8.9279785,-0.62368953
133,1437142802715,3.3369186,10.705074,-0.58538234
134,1437142802716,3.152565,12.917316,-1.2856863
135,1437142802717,4.473566,10.79366,-2.542642
136,1437142802756,6.4661403,13.749901,-2.0207062
137,1437142802757,2.516306,17.434576,-2.047641
138,1437142802765,2.023699,17.142485,-1.3988123
139,1437142802792,2.9999347,13.384186,-2.0853498
140,1437142802802,2.9203274,8.726865,-2.3014264
141,1437142802822,2.861071,1.9524715,-0.5554548
142,1437142802852,-2.3301568,-1.775899,1.8459295
143,1437142802871,-10.4249525,-6.1860185,1.417966
144,1437142802882,-8.164826,-0.32920274,-9.307459
145,1437142802902,-7.231686,5.695806,-0.87927055
146,1437142802922,1.8231846,7.689577,-0.2645593
147,1437142802943,8.815451,10.523115,2.819771
148,1437142802965,9.011177,10.58297,3.6092591
149,1437142802981,7.5201874,9.722853,2.304419
150,1437142803005,8.732252,15.901091,0.60812724
151,1437142803025,10.362105,15.519814,-1.7196354
152,1437142803045,11.289858,13.058575,-1.472434
153,1437142803065,12.594099,12.718598,0.74998367
154,1437142803085,11.049839,11.312004,1.4335283
155,1437142803105,6.129755,10.650007,-0.10414778
156,1437142803123,2.3062148,10.399814,-0.49320555
157,1437142803145,-0.50397944,9.783905,-0.51116204
158,1437142803165,-0.3764882,9.743204,-0.3657143
159,1437142803182,1.7872716,10.458471,0.5363012
160,1437142803201,3.3554738,10.459669,0.010773907
161,1437142803222,4.028843,10.724228,-0.9127894
162,1437142803246,3.1723173,10.915764,-2.360683
163,1437142803264,5.9531827,11.019313,-11.332953
164,1437142803287,-4.717176,14.586075,-2.747945
165,1437142803305,-8.428787,12.940062,0.34356794
166,1437142803323,-3.335123,8.228272,-5.00448
167,1437142803341,4.3915644,17.184383,7.569867
168,1437142803362,2.6120741,19.608511,4.19524
169,1437142803383,-1.377863,9.632472,-1.3431472
170,1437142803404,5.907094,1.2042835,-2.7563248
171,1437142803454,10.009559,11.055226,-3.354875
172,1437142803455,1.7405846,11.736976,-3.493739
173,1437142803487,2.1021092,10.390237,-2.6144683
174,1437142803488,3.140594,9.90601,-1.8381484
175,1437142803503,3.2010477,10.494983,-1.0648212
176,1437142803523,1.590947,9.264962,-0.57281274
177,1437142803548,3.0639796,10.006566,-1.8495208
178,1437142803564,2.5809495,7.829638,-1.7262194
179,1437142803585,7.261614,7.3603745,-0.17298107
180,1437142803604,2.5995045,9.931149,-1.3874398
181,1437142803624,2.179322,11.26412,-2.7515364
182,1437142803647,2.5881321,9.621698,-1.7130513
183,1437142803670,6.2249246,8.409634,-0.94092125
184,1437142803682,5.614403,7.000047,-0.4249708
185,1437142803705,6.700772,9.090185,-1.62686
186,1437142803723,3.5332432,13.44045,-1.8261774
187,1437142803746,2.866458,15.49647,-2.220622
188,1437142803766,3.6170402,17.957111,-2.3558946
189,1437142803786,2.6030958,19.582775,-1.8058267
190,1437142803806,1.5406688,19.054255,-0.58538234
191,1437142803827,2.3648727,15.922638,-1.3257892
192,1437142803844,0.6913257,9.178172,-1.412579
193,1437142803863,-0.9959879,1.8632874,0.19572599
194,1437142803886,-4.291008,-6.287772,-0.065242
195,1437142803905,-7.8906903,-5.325303,0.049081136
196,1437142803925,-10.921151,2.1027076,0.08439561
197,1437142803944,-2.1625626,6.019023,-2.6797101
198,1437142803966,6.5990186,10.480618,0.43275195
199,1437142803985,8.67539,11.775283,2.7647045
200,1437142804014,11.9057665,8.829816,0.93014735
201,1437142804023,12.397177,10.213066,-0.9343372
202,1437142804043,11.444284,14.830284,-1.3186066
203,1437142804063,12.989741,12.442666,-1.8902222
204,1437142804086,11.472416,10.853515,-1.5945383
205,1437142804104,9.739613,10.21546,-1.9800048
206,1437142804127,7.4471645,8.841787,-1.7621324
207,1437142804176,5.6586957,8.608353,-1.8962077
208,1437142804177,4.8057613,9.275736,-1.2569559
209,1437142804194,3.8187518,9.802461,-1.3946224
210,1437142804203,3.7104142,10.263344,-0.96187055
211,1437142804227,4.021062,9.93474,-1.6112977
212,1437142804244,3.1082723,9.041104,-1.8686744
213,1437142804263,18.940529,11.903971,-13.47337
214,1437142804297,9.572617,15.844229,1.3042414
215,1437142804305,-16.769587,6.30513,5.481525
216,1437142804324,-7.3448124,7.0820484,-13.2273655
217,1437142804344,-0.11971009,19.54746,10.090961
218,1437142804366,-13.076531,19.566614,5.5461683
219,1437142804384,0.2088941,-4.012682,-4.1102457
220,1437142804407,19.07281,8.1480665,2.6689363
221,1437142804424,8.76637,9.307459,-3.989937
222,1437142804447,-0.8182184,11.923723,-3.5194764
223,1437142804466,7.04015,10.990582,-1.3275849
224,1437142804486,2.6084828,10.975619,-4.3718123
225,1437142804506,6.5379663,8.555679,-2.110489
226,1437142804526,5.635352,11.07019,-0.6973112
227,1437142804547,4.945224,13.145365,0.023942016
228,1437142804564,0.24061728,16.765398,1.1450269
229,1437142804586,0.4997896,18.472464,0.98940384
230,1437142804607,2.9047651,18.789097,1.6065093
231,1437142804629,-0.062249243,19.343353,3.3859997
232,1437142804644,-2.19249,14.606426,1.0684125
233,1437142804669,-1.9883845,9.081805,0.31423897
234,1437142804686,-6.0399723,-0.8415619,1.8387469
235,1437142804704,-8.89805,-12.876616,2.3175871
236,1437142804726,-9.330204,-3.7152026,-7.049727
237,1437142804747,-9.392453,2.5570073,5.0996494
238,1437142804765,1.2509704,1.7064673,-0.26755205
239,1437142804786,5.731719,2.4378958,-0.45489833
240,1437142804805,4.5441947,4.5543704,-1.2653356
241,1437142804826,7.114969,7.294534,-5.919065
242,1437142804848,13.484144,15.9801,-8.259995
243,1437142804917,15.83944,19.608511,-4.201824
244,1437142804918,16.49126,19.44451,-6.9012866
245,1437142804919,16.661848,16.375143,-8.696339
246,1437142804927,19.487604,10.769718,-4.8787847
247,1437142804951,18.794483,8.352173,-0.7368156
248,1437142804976,10.770915,9.306262,-0.55605334
249,1437142804992,8.0606785,6.455366,2.542642
250,1437142805011,10.929531,16.145897,5.9184666
251,1437142805034,-12.599486,12.212823,-7.4723034
252,1437142805066,-9.197326,10.120889,-6.92044
253,1437142805067,1.9081788,18.133085,-3.300407
254,1437142805152,-5.358822,19.608511,10.408792
255,1437142805153,-9.202713,6.38354,-3.8839936
256,1437142805155,11.441292,-5.468955,-2.1769278
257,1437142805156,19.607914,8.644265,-1.3317747
258,1437142805215,0.46627077,10.319608,-5.7646394
259,1437142805216,-5.4204726,14.174273,-5.9041014
260,1437142805217,6.679224,8.953117,-3.104681
261,1437142805236,7.4070616,6.431424,-0.7793127
262,1437142805244,8.171411,7.0850415,1.1109096
263,1437142805264,4.976947,9.980828,1.122282
264,1437142805286,4.9404354,11.905168,0.33877954
265,1437142805308,3.4051533,13.731944,-0.031124622
266,1437142805326,3.0226796,16.899473,-0.18076223
267,1437142805350,1.9979613,19.608511,-0.6434417
268,1437142805364,0.66379243,19.446304,0.94451255
269,1437142805385,-0.7541735,16.70614,3.163339
270,1437142805404,-2.3451207,11.75553,2.510919
271,1437142805424,-4.1695023,5.0122614,2.472612
272,1437142805443,-6.8121023,-2.5594015,2.1787236
273,1437142805471,-13.631986,-13.0280485,-2.6868927
274,1437142805483,-6.7767878,0.37588966,-9.629479
275,1437142805503,-6.072294,6.397307,-0.8607155
276,1437142805523,2.8221653,6.8222775,-1.2910733
277,1437142805543,11.201871,9.470863,-1.2761095
278,1437142805563,13.165116,10.794258,-2.0171149
279,1437142805583,9.069236,9.124303,-2.731784
280,1437142805603,5.556942,11.792641,-7.3525934
281,1437142805623,8.449138,15.935806,-7.9278
282,1437142805643,17.30589,18.124706,-8.337808
283,1437142805663,18.829199,15.330073,-3.5003228
284,1437142805683,15.975311,10.349535,-3.9953241
285,1437142805703,13.493721,7.644686,-3.6128504
286,1437142805723,12.556391,9.551069,-2.6276364
287,1437142805743,9.072827,10.299257,-1.0791864
288,1437142805763,3.9731777,10.8229885,-0.11552023
289,1437142805783,1.5155296,9.068638,0.3878607
290,1437142805803,5.704784,11.567586,0.6183026
291,1437142805823,1.3120226,12.162544,-2.2523453
292,1437142805843,-9.251794,8.79929,6.575675
293,1437142805863,-1.6819267,7.365163,-3.2106245
294,1437142805886,6.899491,17.585411,3.3530796
295,1437142805905,-17.487848,19.598337,5.5102553
296,1437142805927,3.6230257,-4.250905,-3.879804
297,1437142805947,19.017143,8.754398,3.0292637
298,1437142805968,12.076952,9.642648,-0.5201403
299,1437142805985,-1.7848774,12.440272,-5.5341973
300,1437142806004,5.9483943,9.339182,-2.131438
301,1437142806024,4.3161473,8.32404,-3.080739
302,1437142806044,4.147356,9.753978,-1.4077905
303,1437142806069,3.6487634,10.460267,-1.5059528
304,1437142806084,4.997896,9.630077,-0.06943185
305,1437142806107,5.846042,10.682329,0.8403648
306,1437142806128,4.36044,14.295778,-0.05207389
307,1437142806145,0.7757214,16.511612,-0.8038532
308,1437142806164,2.0488381,19.079992,-0.46088383
309,1437142806184,0.19572599,19.608511,0.81343
310,1437142806205,1.086369,19.608511,2.0057425
311,1437142806265,-0.89603,18.672379,3.90614
312,1437142806266,-3.0639796,8.680777,4.103063
313,1437142806267,-3.788824,1.3934253,0.5626374
314,1437142806284,-5.5623293,-6.843227,-1.4754268
315,1437142806304,-4.465186,-9.075222,-3.669114
316,1437142806327,-6.622362,0.6925228,-5.2594624
317,1437142806345,-6.2243257,1.5676036,-2.7778726
318,1437142806366,0.587178,0.9367314,-2.2218192
319,1437142806385,6.0441623,4.144363,-3.5631707
320,1437142806408,10.934917,6.8869214,-4.6040497
321,1437142806428,13.366828,7.902063,-3.3614593
322,1437142806447,10.856507,7.167641,-6.1195793
323,1437142806468,11.366472,11.84232,-7.467515
324,1437142806487,17.01619,16.485874,-6.995259
325,1437142806508,19.607914,16.494852,-2.6551697
326,1437142806528,17.753006,15.524602,-3.7588966
327,1437142806548,14.9386215,10.3453455,-3.9067385
328,1437142806568,15.775993,8.993818,0.88944596
329,1437142806587,12.551602,6.0184245,4.5100775
330,1437142806606,10.680533,5.273229,-1.8058267
331,1437142806625,4.43885,11.900978,3.079542
332,1437142806647,-6.75943,17.324444,6.4146647
333,1437142806665,-12.028469,11.143213,-2.8808231
334,1437142806687,-1.5819688,15.026608,-7.147889
335,1437142806705,18.213291,19.608511,7.189788
336,1437142806729,-19.59714,15.033791,5.257068
337,1437142806750,10.049662,-4.320337,-1.958457
338,1437142806770,10.131663,10.912771,-1.38325
339,1437142806788,-2.307412,17.911621,-6.3943143
340,1437142806807,4.249708,18.388067,-2.789245
341,1437142806826,-0.04129998,19.390041,-2.8670566
342,1437142806847,1.8644845,19.608511,0.6404489
343,1437142806865,-0.59974754,19.608511,3.0723593
344,1437142806939,-4.0958805,17.137695,3.1591492
345,1437142806954,-6.266823,4.5896845,4.264672
346,1437142806956,-10.049063,-5.8244944,1.2515689
347,1437142806957,-13.952809,-12.598887,1.3742718
348,1437142806969,-12.381016,-1.1312603,-4.5795093
349,1437142806986,-8.270171,0.60333884,0.9008184
350,1437142807008,1.5233108,0.17657238,0.3405752
351,1437142807026,5.5270147,2.119467,-1.5035586
352,1437142807047,9.010578,5.370793,-2.022502
353,1437142807067,16.234484,9.444528,-0.85054016
354,1437142807087,19.607914,13.652935,-3.447052
355,1437142807108,17.777546,16.43021,-7.428011
356,1437142807126,17.46211,17.468096,-8.793902
357,1437142807148,19.607914,15.459959,-1.1390414
358,1437142807169,18.786104,12.876017,-4.997896
359,1437142807189,15.020024,9.6767645,-5.542577
360,1437142807209,15.173852,7.9086466,-9.329605
361,1437142807229,4.1335893,16.127941,12.380417
362,1437142807248,-18.095377,16.891092,1.1749545
363,1437142807268,-13.265075,11.3323555,-9.872491
364,1437142807288,-7.7584105,19.608511,1.5173253
365,1437142807309,7.2125325,19.312828,6.1530986
366,1437142807328,5.5748987,-4.2904096,-3.1944637
367,1437142807353,11.43351,3.478775,1.3820529
368,1437142807368,11.165958,13.758879,-3.1280246
369,1437142807388,0.5943606,10.295067,-6.0082493
370,1437142807408,1.4730326,11.378444,-4.9416323
371,1437142807428,6.2584434,8.65863,-3.0992942
372,1437142807448,5.0374002,13.825317,-0.5398925
373,1437142807468,0.90021986,18.38268,-1.2946646
374,1437142807487,0.8170213,19.608511,-0.9355343
375,1437142807508,-0.35673606,19.608511,-0.092775315
376,1437142807528,-2.8646624,19.608511,0.10354923
377,1437142807548,-7.012018,14.838664,4.84766
378,1437142807568,-5.382764,-4.4035354,-0.12689269
379,1437142807586,-5.940613,-10.773908,4.607641
380,1437142807729,-13.125013,-2.0667946,-5.245696
381,1437142807730,-13.536218,5.203199,0.05566519
382,1437142807731,-3.2728736,0.3429694,-2.2056582
383,1437142807732,6.206968,-0.20949265,-2.633622
384,1437142807733,10.107721,1.8956091,-3.5655649
385,1437142807734,9.314642,3.650559,-3.5673606
386,1437142807735,12.416928,4.63278,-5.813122
387,1437142807752,15.881338,8.754997,-6.3548098
388,1437142807767,15.990274,16.69417,-6.0327897
389,1437142807786,17.2185,18.761562,-6.7480574
390,1437142807810,19.607914,18.098969,-4.049194
391,1437142807827,19.60073,11.125855,-4.0839095
392,1437142807847,17.454329,6.52001,-2.5773582
393,1437142807869,14.011467,5.321113,-0.97025025
394,1437142807887,10.406996,14.813524,3.3806129
395,1437142807908,-19.48581,19.608511,-0.06584055
396,1437142807928,-15.989078,11.72261,-10.046669
397,1437142807948,-0.85413146,14.022241,-5.288193
398,1437142807969,19.607914,19.608511,15.672444
399,1437142807988,-18.819023,12.347497,-0.25677812
400,1437142808008,1.7172412,5.631162,-4.894945
401,1437142808029,19.607914,8.959702,-1.1486182
402,1437142808048,-1.4760253,13.34109,-4.6399627
403,1437142808068,0.44113165,19.608511,-4.8099513
404,1437142808089,-5.3779755,19.608511,-0.9636662
405,1437142808107,-3.8229415,19.608511,-1.5490485
406,1437142808129,-7.338228,8.762778,4.1120415
407,1437142808147,-6.9425864,-7.100005,3.3758245
408,1437142808168,-19.078794,-14.378378,-3.371036
409,1437142808189,-19.57619,3.2758665,-1.2318168
410,1437142808208,-7.498041,0.4249708,-0.26036942
411,1437142808229,0.85473,-5.7538652,1.5729905
412,1437142808247,6.540959,-4.5340195,-0.40761283
413,1437142808268,9.795278,1.6573862,-1.6166847
