id,attr_time,attr_x,attr_y,attr_z
1,1438346754031,-0.0123901,-0.00460815,-0.0111237
2,1438346754053,-0.0220032,-0.00354004,-0.0164642
3,1438346754071,-0.0284119,-0.00354004,-0.0111237
4,1438346754090,-0.0433655,-0.00888061,-0.00364685
5,1438346754109,-0.0476379,-0.012085,0.00169373
6,1438346754130,-0.0422974,-0.00888061,0.00062561
7,1438346754150,-0.0358887,-0.00674438,-0.00471497
8,1438346754169,-0.02948,-0.00460815,-0.00364685
9,1438346754187,-0.0262756,-0.00674438,-0.000442505
10,1438346754208,-0.0412292,-0.00247192,0.00489807
11,1438346754227,-0.0422974,-0.00460815,0.00596619
12,1438346754251,-0.0262756,-0.00247192,0.00062561
13,1438346754268,-0.0155945,0.006073,-0.00578308
14,1438346754288,0.00363159,0.0135498,-0.00898743
15,1438346754308,-0.0102539,0.0124817,-0.00578308
16,1438346754327,-0.0252075,0.00500488,-0.00471497
17,1438346754350,-0.00384521,-0.000335693,0.00169373
18,1438346754367,0.0196533,0.006073,-0.00257874
19,1438346754387,0.00683594,0.00500488,-0.00791931
20,1438346754406,-0.0145264,-0.00140381,-0.0164642
21,1438346754427,-0.00598145,0.00286865,-0.0153961
22,1438346754446,0.0153809,-0.0078125,-0.0132599
23,1438346754466,0.0100403,0.00286865,-0.0100555
24,1438346754486,-0.0155945,0.00393677,-0.0111237
25,1438346754504,-0.0209351,-0.00888061,-0.0100555
26,1438346754525,0.00256348,-0.0078125,0.00382996
27,1438346754544,0.00576782,0.00714111,0.00596619
28,1438346754565,-0.00598145,0.00714111,0.00917053
29,1438346754584,-0.0123901,0.0103455,0.00276184
30,1438346754604,0.00149536,0.006073,0.00062561
31,1438346754624,0.0196533,0.0146179,-0.00471497
32,1438346754644,0.00790405,0.00714111,-0.00151062
33,1438346754664,0.0207214,0.00286865,-0.0068512
34,1438346754683,0.0314026,0.00500488,-0.00898743
35,1438346754703,0.0239258,-0.00247192,-0.00791931
36,1438346754723,0.00469971,-0.00140381,-0.00364685
37,1438346754743,0.00469971,-0.00140381,0.00169373
38,1438346754763,0.016449,-0.00247192,0.00382996
39,1438346754782,0.0228577,-0.00354004,0.00489807
40,1438346754802,0.0185852,0.000732422,0.00276184
41,1438346754821,0.0217896,0.00500488,0.00169373
42,1438346754842,0.0239258,0.0146179,0.00489807
43,1438346754861,0.0249939,0.015686,0.00917053
44,1438346754881,0.0217896,0.0124817,0.0145111
45,1438346754901,0.0196533,0.0114136,0.0123749
46,1438346754921,0.0217896,0.00820923,0.00489807
47,1438346754943,0.0271301,0.00820923,0.00382996
48,1438346754960,0.0175171,0.006073,0.00489807
49,1438346754980,0.000427246,-0.00354004,0.00062561
50,1438346755000,-0.0187988,-0.0249023,-0.0100555
51,1438346755020,-0.0487061,-0.0142212,-0.0111237
52,1438346755040,-0.0444336,-0.0142212,-0.0100555
53,1438346755059,-0.0166626,-0.00567627,-0.00151062
54,1438346755080,-0.00598145,-0.00567627,0.00596619
55,1438346755099,0.124329,0.0327759,0.0273285
56,1438346755118,0.240753,0.0648193,0.0337372
57,1438346755137,0.301636,0.0915222,0.0348053
58,1438346755158,0.32193,0.0957947,0.0294647
59,1438346755178,0.352905,0.101135,0.031601
60,1438346755198,0.422333,0.102203,0.0294647
61,1438346755218,0.49176,0.127838,0.0294647
62,1438346755237,0.533417,0.139587,0.013443
63,1438346755257,0.608185,0.150269,-0.000442505
64,1438346755277,0.727814,0.191925,-0.0207367
65,1438346755297,0.861328,0.218628,-0.0378265
66,1438346755317,0.944641,0.241058,-0.0474396
67,1438346755336,0.969208,0.246399,-0.0399628
68,1438346755355,0.952118,0.197266,-0.0303497
69,1438346755377,0.910461,0.139587,-0.00898743
70,1438346755396,0.845306,0.0487976,0.00917053
71,1438346755415,0.765198,-0.0195618,0.0262604
72,1438346755436,0.720337,-0.0804443,0.0369415
73,1438346755454,0.681885,-0.126373,0.0348053
74,1438346755475,0.653046,-0.144531,0.0305328
75,1438346755494,0.644501,-0.154144,0.0155792
76,1438346755514,0.618866,-0.149872,-0.0153961
77,1438346755534,0.576141,-0.147736,-0.0538483
78,1438346755553,0.520599,-0.129578,-0.0720062
79,1438346755574,0.484283,-0.119965,-0.079483
80,1438346755593,0.481079,-0.135986,-0.0997772
81,1438346755613,0.481079,-0.118896,-0.133957
82,1438346755633,0.449036,-0.0932617,-0.191635
83,1438346755653,0.406311,-0.049469,-0.253586
84,1438346755674,0.382812,0.00500488,-0.300583
85,1438346755692,0.427673,0.0605469,-0.315536
86,1438346755711,0.516327,0.140656,-0.29097
87,1438346755732,0.638092,0.203674,-0.226883
88,1438346755751,0.781219,0.248535,-0.139297
89,1438346755770,0.995911,0.262421,-0.0442352
90,1438346755791,1.14758,0.236786,0.0358734
91,1438346755810,1.15292,0.196198,0.106369
92,1438346755831,1.05679,0.140656,0.180069
93,1438346755851,0.881622,0.0733643,0.260178
94,1438346755871,0.682953,-0.000335693,0.330673
95,1438346755890,0.566528,-0.0345154,0.391556
96,1438346755910,0.571869,-0.00567627,0.448166
97,1438346755929,0.65625,0.043457,0.466324
98,1438346755949,0.751312,0.0445251,0.407577
99,1438346755972,0.859192,0.0637512,0.276199
100,1438346755988,0.978821,0.111816,0.103165
101,1438346756009,1.17429,0.20047,-0.0399628
102,1438346756029,1.43384,0.242126,-0.152115
103,1438346756048,1.55988,0.195129,-0.209793
104,1438346756071,1.49258,0.12677,-0.229019
105,1438346756087,1.25226,0.0872498,-0.212997
106,1438346756107,0.89444,0.120361,-0.163864
107,1438346756127,0.580414,0.198334,-0.0944366
108,1438346756148,0.445831,0.250671,-0.0527801
109,1438346756167,0.498169,0.323303,-0.0591888
110,1438346756187,0.671204,0.458954,-0.088028
111,1438346756207,0.932892,0.559357,-0.154251
112,1438346756227,1.2074,0.62558,-0.218338
113,1438346756246,1.38898,0.64801,-0.253586
114,1438346756266,1.42422,0.610626,-0.271744
115,1438346756286,1.30673,0.516632,-0.297379
116,1438346756307,1.10699,0.391663,-0.328354
117,1438346756326,0.912598,0.270966,-0.377487
118,1438346756345,0.799377,0.142792,-0.466141
119,1438346756365,0.787628,0.0562744,-0.592178
120,1438346756385,0.82608,0.0135498,-0.707535
121,1438346756403,0.836762,-0.0291748,-0.79512
122,1438346756424,0.78656,-0.0879211,-0.834641
123,1438346756442,0.659454,-0.157349,-0.827164
124,1438346756464,0.499237,-0.243866,-0.804733
125,1438346756484,0.373199,-0.289795,-0.782303
126,1438346756504,0.273865,-0.269501,-0.752396
127,1438346756523,0.178802,-0.221436,-0.713943
128,1438346756543,0.143555,-0.188324,-0.651993
129,1438346756563,0.185211,-0.172302,-0.594315
130,1438346756582,0.227936,-0.148804,-0.556931
131,1438346756603,0.161713,-0.131714,-0.490707
132,1438346756622,0.0783997,-0.106079,-0.405258
133,1438346756642,0.0559692,-0.0334473,-0.287766
134,1438346756661,0.0378113,0.0188904,-0.185226
135,1438346756682,0.00897217,0.0252991,-0.117935
136,1438346756701,-0.00704956,0.015686,-0.0495758
137,1438346756719,-0.0615234,0.052002,0.0486908
138,1438346756741,-0.0967712,0.061615,0.148026
139,1438346756760,-0.0508423,0.0530701,0.199295
140,1438346756780,0.0506287,0.0915222,0.231339
141,1438346756801,0.149963,0.0584106,0.214249
142,1438346756820,0.262115,0.0188904,0.200363
143,1438346756840,0.342224,0.00286865,0.202499
144,1438346756860,0.333679,-0.039856,0.202499
145,1438346756879,0.26532,-0.086853,0.208908
146,1438346756899,0.159576,-0.059082,0.237747
147,1438346756919,0.0549011,-0.0249023,0.254837
148,1438346756938,0.0132446,0.0370483,0.252701
149,1438346756958,0.0153809,0.0904541,0.235611
150,1438346756978,0.063446,0.115021,0.22493
151,1438346756998,0.106171,0.0733643,0.188614
152,1438346757018,0.132874,0.0220947,0.148026
153,1438346757036,0.136078,-0.0184937,0.096756
154,1438346757057,0.0773315,-0.0921936,0.0348053
155,1438346757076,-0.0508423,-0.161621,-0.00578308
156,1438346757098,-0.196106,-0.225708,-0.023941
157,1438346757116,-0.321075,-0.287659,-0.0431671
158,1438346757136,-0.414001,-0.359222,-0.0752106
159,1438346757156,-0.479156,-0.385925,-0.0965729
160,1438346757176,-0.543243,-0.382721,-0.116867
161,1438346757195,-0.593445,-0.373108,-0.140366
162,1438346757216,-0.621216,-0.345337,-0.166
163,1438346757235,-0.628693,-0.316498,-0.18309
164,1438346757254,-0.597717,-0.246002,-0.174545
165,1438346757275,-0.596649,-0.172302,-0.16066
166,1438346757295,-0.628693,-0.140259,-0.146774
167,1438346757314,-0.629761,-0.101807,-0.108322
168,1438346757334,-0.661804,-0.0986023,-0.0837555
169,1438346757353,-0.731232,-0.110352,-0.0538483
170,1438346757376,-0.791046,-0.122101,-0.0100555
171,1438346757393,-0.825226,-0.189392,0.0113068
172,1438346757413,-0.895721,-0.314362,-0.00151062
173,1438346757434,-1.06342,-0.438263,-0.0153961
174,1438346757453,-1.25995,-0.52478,0.0283966
175,1438346757476,-1.50134,-0.633728,0.078598
176,1438346757493,-1.77371,-0.751221,0.105301
177,1438346757513,-1.99802,-0.755493,0.15123
178,1438346757530,-2.15503,-0.757629,0.133072
179,1438346757551,-2.25757,-0.759766,0.0679169
180,1438346757574,-2.36652,-0.613434,0.0209198
181,1438346757591,-2.43167,-0.390198,-0.0111237
182,1438346757611,-2.41138,-0.117828,-0.042099
183,1438346757632,-2.16464,-0.209686,0.0583038
184,1438346757651,-1.52591,-0.193665,0.0935516
185,1438346757672,-1.26636,-0.195801,0.319992
186,1438346757690,-1.6199,-0.208618,0.440689
187,1438346757710,-2.1828,-0.33252,0.550705
188,1438346757730,-2.7991,-0.498077,0.744034
189,1438346757750,-3.51688,-0.639069,0.87648
190,1438346757769,-4.05093,-0.708496,0.993973
191,1438346757789,-4.76978,-0.79715,1.01961
192,1438346757809,-5.19916,-0.901825,1.07088
193,1438346757829,-4.87979,-0.925323,1.26421
194,1438346757847,-4.10754,-0.695679,1.47569
195,1438346757871,-3.43463,-0.375244,1.63911
196,1438346757887,-2.94543,0.0947266,1.78758
197,1438346757908,-2.30777,0.590332,1.97557
198,1438346757928,-1.3219,0.839203,2.15288
199,1438346757947,-0.724823,1.05389,2.23619
200,1438346757967,-0.428955,1.42346,2.36864
201,1438346757986,-0.000640869,1.86566,2.4637
202,1438346758007,0.271729,2.06113,2.47758
203,1438346758027,-0.0166626,1.99063,2.18065
204,1438346758047,-0.565674,2.01093,1.90828
205,1438346758069,-0.946991,1.85498,1.45326
206,1438346758086,-0.911743,1.86459,0.98436
207,1438346758105,-1.01855,2.25659,0.794235
208,1438346758126,-1.73953,2.27368,0.730148
209,1438346758145,-2.65491,1.61893,0.500504
210,1438346758164,-5.06351,1.0368,-0.345444
211,1438346758185,-7.08225,0.683258,-0.410599
212,1438346758204,-7.80963,0.332916,-0.546249
213,1438346758225,-6.92737,0.395935,-1.12944
214,1438346758244,-4.01355,0.751617,-1.41035
215,1438346758267,-2.18707,0.62558,-1.84294
216,1438346758284,-2.53528,0.615967,-1.18285
217,1438346758303,-3.16013,0.552948,-1.26082
218,1438346758323,-0.830566,-0.193665,-0.903
219,1438346758343,1.81302,-0.678589,-1.45094
220,1438346758363,-1.37103,1.86566,-1.21275
221,1438346758383,-0.230286,-0.112488,-1.58659
222,1438346758403,1.04291,-1.01077,-2.66966
223,1438346758422,0.96814,-0.626251,-2.5009
224,1438346758441,0.651978,-0.483124,-2.45497
225,1438346758462,1.39218,-0.473511,-2.30223
226,1438346758480,2.98047,-0.493805,-2.23814
227,1438346758502,3.46112,-0.32077,-2.1089
228,1438346758521,2.47098,-0.518372,-1.68913
229,1438346758541,2.74869,-0.937073,-1.92732
230,1438346758560,3.39917,-1.06631,-1.98393
231,1438346758581,2.71985,-0.286591,-1.88887
232,1438346758601,3.21225,0.0317078,-1.95189
233,1438346758620,2.37805,-0.121033,-1.33131
234,1438346758640,1.31207,-0.00888061,-1.45201
235,1438346758659,2.61731,0.113953,-1.24586
236,1438346758678,3.01572,-0.20755,-0.662674
237,1438346758702,1.54919,-0.197937,-0.502457
238,1438346758719,0.663727,0.320099,-1.13158
239,1438346758739,1.84827,-0.0718994,0.0380096
240,1438346758759,0.60498,0.0231628,-0.468277
241,1438346758778,0.362518,-0.101807,-0.694717
242,1438346758799,0.732086,-0.0473328,-0.566544
243,1438346758818,0.439423,0.033844,-0.396713
244,1438346758837,0.513123,-0.0879211,-0.701126
245,1438346758857,0.680817,0.0562744,-0.791916
246,1438346758878,0.247162,-0.0921936,-0.867752
247,1438346758898,0.035675,-0.0302429,-0.971359
248,1438346758917,0.30484,-0.0259705,-1.11449
249,1438346758936,0.706451,-0.202209,-1.61864
250,1438346758956,0.994842,-0.393402,-1.56203
251,1438346758976,1.48938,-0.52478,-1.72865
252,1438346758997,1.48618,-0.993683,-1.89955
253,1438346759016,1.42102,-1.19128,-2.25844
254,1438346759036,0.932892,-1.21478,-2.05122
255,1438346759056,0.49176,-1.15924,-1.91557
256,1438346759075,0.455444,-1.26605,-1.16682
257,1438346759095,0.83783,-1.71786,-1.20741
258,1438346759113,2.20929,-1.66873,-1.55775
259,1438346759135,4.32095,-0.63266,-0.94252
260,1438346759153,3.2272,-0.534393,-0.155319
261,1438346759175,0.852783,-1.15924,-0.489639
262,1438346759194,0.686157,-1.39636,-0.822891
263,1438346759214,2.93454,-0.772583,-1.30248
264,1438346759234,2.87152,-0.919983,-0.877365
265,1438346759253,2.87259,-0.946686,-0.854935
266,1438346759273,2.31717,-1.26285,-0.804733
267,1438346759294,2.43146,-1.07806,-0.947861
268,1438346759313,3.27847,-0.911438,-0.77269
269,1438346759333,3.64804,-0.821716,-0.900864
270,1438346759352,3.21759,-0.486328,-0.951065
271,1438346759372,2.74335,-0.396606,-0.599655
272,1438346759392,2.19647,-0.553619,-0.464005
273,1438346759412,1.62717,-0.638,-0.450119
274,1438346759430,1.58871,-0.472443,-0.205521
275,1438346759451,1.45093,-0.492737,-0.255722
276,1438346759470,0.993774,-0.621979,-0.168137
277,1438346759490,0.72995,-0.668976,-0.190567
278,1438346759510,0.797241,-0.713837,-0.0741425
279,1438346759533,1.11554,-0.795013,0.0924835
280,1438346759549,1.50754,-0.933868,0.294357
281,1438346759570,1.81943,-0.925323,0.448166
282,1438346759589,1.56094,-1.06204,0.412918
283,1438346759609,1.82156,-0.940277,0.520798
284,1438346759632,2.39621,-0.971252,0.323196
285,1438346759649,0.791901,-0.756561,0.591293
286,1438346759668,-1.6669,-0.415833,0.340286
287,1438346759688,-2.25864,-0.0484009,0.157639
288,1438346759707,-1.43192,0.179108,0.141617
289,1438346759731,0.0474243,0.0840454,0.113846
290,1438346759747,1.0835,0.0648193,0.15657
291,1438346759767,1.50113,0.0819092,0.313583
292,1438346759787,1.36334,0.0220947,0.478073
293,1438346759807,0.825012,-0.039856,0.566727
294,1438346759830,0.230072,0.0199585,0.600906
295,1438346759847,-0.0337524,0.102203,0.616928
296,1438346759867,0.0837402,0.203674,0.621201
297,1438346759887,0.627411,0.450409,0.647903
298,1438346759906,0.785492,0.675781,0.52507
299,1438346759926,0.357178,0.626648,0.462051
300,1438346759946,-0.467407,0.3703,0.313583
301,1438346759965,-1.19052,0.232513,0.200363
302,1438346759986,-1.45435,0.0690918,0.368057
303,1438346760015,-1.57291,-0.0793762,0.496231
304,1438346760022,-1.89227,-0.157349,0.448166
305,1438346760052,-2.1561,-0.386993,0.00276184
306,1438346760061,-1.62097,-0.570709,0.181137
307,1438346760091,-1.36462,-0.430786,0.552841
308,1438346760100,-0.424683,-0.314362,0.457779
309,1438346760121,-0.679962,0.0584106,0.396896
310,1438346760282,-0.0903625,-0.0259705,0.486618
311,1438346760283,0.28775,0.0220947,0.546432
312,1438346760284,0.538757,-0.260956,0.720535
313,1438346760285,0.782288,-0.473511,0.601974
314,1438346760286,0.957458,-0.517303,0.30397
315,1438346760287,0.835693,-0.535461,-0.042099
316,1438346760288,0.566528,-0.546143,-0.555862
317,1438346760289,0.660522,0.207947,-0.613541
318,1438346760301,0.284546,0.300873,-0.603928
319,1438346760322,-0.158722,0.0658875,-0.648788
320,1438346760340,-0.524017,-0.107147,-0.741715
321,1438346760361,-1.03992,-0.00140381,-0.578293
322,1438346760379,-1.53125,0.0605469,-0.635971
323,1438346760401,-1.73099,-0.180847,-0.809006
324,1438346760422,-1.64661,-0.383789,-0.655197
325,1438346760440,-1.5195,-0.275909,-0.339035
326,1438346760460,-1.34433,-0.201141,-0.0720062
327,1438346760480,-0.942719,-0.176575,0.0241241
328,1438346760500,-0.275146,0.133179,0.0497589
329,1438346760522,0.471466,0.256012,-0.032486
330,1438346760540,0.901917,0.190857,-0.0730743
331,1438346760558,0.971344,0.0744324,-0.192703
332,1438346760578,0.893372,-0.0142212,-0.20018
333,1438346760598,0.681885,0.299805,-0.157455
334,1438346760618,0.592163,0.006073,-0.10405
335,1438346760638,0.456512,0.0103455,-0.0837555
336,1438346760658,0.249298,0.111816,0.0070343
337,1438346760678,-0.039093,0.195129,0.031601
338,1438346760696,-0.32962,0.184448,0.0561676
339,1438346760718,-0.520813,0.124634,0.0550995
340,1438346760736,-0.547516,-0.0537415,-0.014328
341,1438346760757,-0.40332,-0.0986023,-0.0549164
342,1438346760777,-0.231354,-0.103943,-0.10939
343,1438346760797,-0.104248,-0.146667,-0.136093
344,1438346760816,0.00683594,-0.233185,-0.136093
345,1438346760837,0.0602417,-0.00567627,-0.122208
346,1438346760856,0.0185852,-0.132782,0.0294647
347,1438346760876,-0.0690002,-0.123169,0.031601
348,1438346760896,-0.0305481,-0.176575,-0.0175323
349,1438346760914,0.053833,-0.164825,0.0123749
350,1438346760935,0.0655823,0.100067,0.0583038
351,1438346760956,0.13501,0.167358,0.078598
352,1438346760975,0.325134,0.155609,0.0625763
353,1438346760994,0.549439,0.229309,0.0348053
354,1438346761014,0.784424,0.289124,0.0337372
355,1438346761034,0.889099,0.3703,0.0550995
356,1438346761055,0.878418,0.356415,0.0679169
357,1438346761074,0.672272,0.265625,0.0679169
358,1438346761093,0.289886,0.172699,0.0444183
359,1438346761113,-0.0978394,0.0701599,0.0369415
360,1438346761133,-0.337097,-0.0569458,0.0273285
361,1438346761155,-0.436432,-0.131714,0.0145111
362,1438346761173,-0.368073,-0.160553,0.013443
363,1438346761193,-0.202515,-0.107147,0.0294647
364,1438346761212,-0.00170898,-0.00140381,0.0540314
365,1438346761231,0.236481,0.0552063,0.0540314
366,1438346761254,0.416992,0.0904541,0.0476227
367,1438346761272,0.502441,0.144928,0.0337372
368,1438346761291,0.480011,0.17804,0.0273285
369,1438346761312,0.364655,0.164154,0.0369415
370,1438346761329,0.14035,0.127838,0.0155792
371,1438346761353,-0.0775452,0.0733643,-0.0164642
372,1438346761370,-0.246307,0.0530701,-0.0378265
373,1438346761390,-0.388367,0.0573425,-0.0538483
374,1438346761410,-0.507996,-0.0430603,-0.0730743
375,1438346761429,-0.571014,-0.0911255,-0.0858917
376,1438346761452,-0.536835,-0.0537415,-0.0816193
377,1438346761469,-0.318939,-0.0409241,-0.100845
378,1438346761489,0.0378113,-0.112488,-0.140366
379,1438346761509,0.357178,-0.206482,-0.298447
380,1438346761529,0.590027,-0.209686,-0.315536
381,1438346761548,0.738495,-0.203278,-0.429825
382,1438346761568,0.855988,-0.118896,-0.437302
383,1438346761588,0.849579,-0.206482,-0.326218
384,1438346761608,0.628479,-0.209686,-0.277084
385,1438346761628,0.332611,-0.127441,-0.10939
386,1438346761646,0.341156,-0.262024,-0.164932
387,1438346761668,0.461853,-0.187256,-0.173477
388,1438346761686,0.61673,-0.352814,-0.321945
389,1438346761707,0.719269,-0.605957,-0.446915
390,1438346761727,0.726746,-0.722382,-0.556931
391,1438346761746,0.562256,-1.01825,-0.754532
392,1438346761765,0.209778,-1.41025,-0.93718
393,1438346761789,-0.338165,-1.67087,-1.07069
394,1438346761806,-1.0004,-1.92508,-1.28111
395,1438346761825,-1.57077,-2.08423,-1.5161
396,1438346761846,-1.82498,-2.16327,-1.83226
397,1438346761864,-1.80896,-2.26794,-2.07152
398,1438346761887,-1.71176,-2.23056,-2.27553
399,1438346761905,-1.65088,-2.11734,-2.4742
400,1438346761924,-1.51843,-2.08957,-2.54149
401,1438346761944,-1.28131,-2.18249,-2.5009
402,1438346761962,-1.16061,-2.21988,-2.41331
403,1438346761986,-1.22363,-2.2092,-2.34068
404,1438346762003,-1.3454,-2.22308,-2.28194
405,1438346762024,-1.52057,-2.30853,-2.23708
406,1438346762043,-1.89227,-2.22736,-2.09715
407,1438346762063,-2.16891,-2.09171,-1.96364
408,1438346762083,-2.35797,-1.96887,-1.84187
409,1438346762103,-2.43274,-1.83109,-1.90596
410,1438346762122,-2.3569,-1.55124,-1.71263
411,1438346762142,-2.45303,-1.06525,-1.42851
412,1438346762162,-2.19455,-0.491669,-1.48726
413,1438346762183,-2.21805,-0.562164,-1.6667
414,1438346762202,-3.1377,-0.469238,-1.38686
415,1438346762221,-3.46027,-0.07724,-0.990585
416,1438346762241,-3.91421,0.16095,-0.705399
417,1438346762261,-4.24533,-0.296204,-1.12303
418,1438346762281,-4.49741,-0.691406,-0.92543
419,1438346762300,-4.58499,-0.392334,-0.904068
420,1438346762319,-5.27286,-0.51944,-1.06642
421,1438346762340,-6.0622,-0.642273,-0.882706
422,1438346762360,-6.44458,-0.163757,-0.527023
423,1438346762382,-5.74817,0.168427,-0.232224
424,1438346762399,-3.73904,0.38739,0.0647125
425,1438346762418,-1.16168,0.540131,0.148026
426,1438346762439,-0.816681,-0.806763,0.0433502
427,1438346762459,-1.09439,0.21756,0.137344
428,1438346762481,0.60498,-0.236389,0.0572357
