id,attr_time,attr_x,attr_y,attr_z
1,1438346754016,0.064446285,0.021380283,0.014049901
2,1438346754036,0.06414085,0.014966198,0.010079277
3,1438346754056,0.059253927,0.017104227,0.016187929
4,1438346754076,0.049480084,0.027488936,0.017104227
5,1438346754096,0.049480084,0.03359759,0.011301007
6,1438346754116,0.043676864,0.036957346,0.012217305
7,1438346754136,0.04153884,0.034513887,0.008246681
8,1438346754158,0.037873644,0.036651913,0.011301007
9,1438346754181,0.044593163,0.03268129,0.0061086523
10,1438346754203,0.06078109,0.028710667,0.007330383
11,1438346754222,0.02321288,0.014966198,0.011911872
12,1438346754240,-0.005497787,0.040317107,0.009773844
13,1438346754258,0.020158553,0.028405234,0.0067195175
14,1438346754277,0.04428773,0.02443461,0.003970624
15,1438346754297,-0.005192355,0.03390302,0.0061086523
16,1438346754322,-0.011301007,0.047036625,0.0036651916
17,1438346754342,0.027488936,0.05375614,0.0009162979
18,1438346754362,0.049785517,0.062308256,-0.0021380284
19,1438346754382,0.043982297,0.06169739,-0.0021380284
20,1438346754463,0.03268129,0.051618114,0.0021380284
21,1438346754464,0.02321288,0.042760566,0.003970624
22,1438346754465,0.028710667,0.04917465,0.0036651916
23,1438346754466,0.03176499,0.052534413,0.00061086525
24,1438346754490,0.032375857,0.04734206,0.00030543262
25,1438346754497,0.025350908,0.06078109,-0.0021380284
26,1438346754517,0.018020526,0.05467244,0.0027488936
27,1438346754537,0.022602014,0.048563786,0.0021380284
28,1438346754557,0.025045475,0.057421334,0.0012217305
29,1438346754577,0.029321533,0.0720821,-0.004581489
30,1438346754599,0.03573562,0.06261369,-0.005192355
31,1438346754619,0.032070424,0.053145275,-0.0018325958
32,1438346754637,0.025045475,0.044593163,-0.003970624
33,1438346754657,0.014966198,0.04886922,-0.0036651916
34,1438346754680,0.017104227,0.05681047,-0.0012217305
35,1438346754702,0.027488936,0.058948494,-0.004886922
36,1438346754721,0.03145956,0.05681047,-0.008552114
37,1438346754741,0.01985312,0.051618114,-0.005497787
38,1438346754761,0.018020526,0.046731193,-0.0070249503
39,1438346754781,0.032070424,0.04153884,-0.004886922
40,1438346754799,0.04337143,0.03176499,-0.005497787
41,1438346754821,0.009162978,0.027183503,-0.004581489
42,1438346754840,-0.0009162979,0.04153884,-0.010995574
43,1438346754859,0.036957346,0.036651913,-0.009162978
44,1438346754878,0.036957346,0.03481932,0.00030543262
45,1438346754898,-0.011301007,0.03145956,-0.0021380284
46,1438346754919,-0.0036651916,0.030543262,-0.005192355
47,1438346754944,0.01985312,0.034208454,-0.0106901415
48,1438346754961,0.036651913,0.040317107,-0.01038471
49,1438346754981,0.032070424,0.041233405,-0.009468411
50,1438346755003,0.025961773,0.03726278,-0.0076358155
51,1438346755026,0.02076942,0.026267206,-0.0076358155
52,1438346755050,0.016187929,0.027183503,0.0030543262
53,1438346755161,0.013133603,0.023823744,0.0030543262
54,1438346755162,0.01038471,0.01282817,0.0012217305
55,1438346755163,0.0012217305,0.032986723,0.0
56,1438346755164,0.0061086523,0.0421497,-0.003970624
57,1438346755165,0.011301007,0.04520403,-0.003970624
58,1438346755166,0.006414085,0.05681047,-0.00030543262
59,1438346755179,0.009773844,0.052534413,0.0012217305
60,1438346755198,0.003970624,0.043982297,0.0018325958
61,1438346755218,-0.0012217305,0.037873644,0.0027488936
62,1438346755238,-0.010995574,0.03604105,0.003970624
63,1438346755259,-0.013133603,0.040317107,-0.0009162979
64,1438346755279,-0.015271631,0.042760566,0.0015271631
65,1438346755301,-0.014049901,0.036957346,-0.0033597588
66,1438346755320,-0.01985312,0.035430185,0.00030543262
67,1438346755344,-0.022296581,0.039095376,0.00580322
68,1438346755361,-0.0143553335,0.047647487,0.0027488936
69,1438346755382,0.014049901,0.051618114,-0.0061086523
70,1438346755401,0.016798794,0.041233405,-0.01038471
71,1438346755421,-0.025961773,0.03848451,0.00030543262
72,1438346755439,-0.032375857,0.048258353,-0.017104227
73,1438346755459,0.030543262,0.044898596,-0.032375857
74,1438346755482,-0.0009162979,0.02565634,-0.03848451
75,1438346755502,-0.059253927,-0.014966198,-0.03940081
76,1438346755521,-0.057726767,-0.06566802,-0.042455133
77,1438346755540,-0.01740966,-0.1328632,-0.040927973
78,1438346755561,0.00030543262,-0.19211712,-0.06872234
79,1438346755582,0.02076942,-0.2144137,-0.043982297
80,1438346755601,0.030848695,-0.1966986,-0.02443461
81,1438346755619,0.024740042,-0.19211712,-0.021991149
82,1438346755642,0.004886922,-0.22937989,0.0143553335
83,1438346755660,-0.003970624,-0.30848694,0.046731193
84,1438346755678,0.030543262,-0.37568212,0.07941248
85,1438346755704,0.0729984,-0.44165558,0.100792766
86,1438346755721,0.129198,-0.48899764,0.129198
87,1438346755740,0.16554448,-0.52839845,0.15302174
88,1438346755759,0.18081611,-0.54244834,0.17898351
89,1438346755779,0.2125811,-0.54733527,0.2275473
90,1438346755801,0.21105394,-0.5879578,0.25411993
91,1438346755820,0.19394971,-0.63255095,0.3109304
92,1438346755875,0.2171626,-0.6808093,0.29626966
93,1438346755889,0.19914207,-0.65179324,0.27763826
94,1438346755890,0.14569137,-0.6227771,0.27152961
95,1438346755899,0.12767084,-0.59681535,0.25289822
96,1438346755919,0.13439035,-0.55863625,0.2501493
97,1438346755939,0.14813483,-0.535118,0.258396
98,1438346755959,0.17348573,-0.52412236,0.2565634
99,1438346755984,0.18295415,-0.4972443,0.26358834
100,1438346756009,0.17837265,-0.46303585,0.27091873
101,1438346756019,0.18600847,-0.4175264,0.26725355
102,1438346756042,0.23243423,-0.41722095,0.2678644
103,1438346756059,0.26175576,-0.41508293,0.2706133
104,1438346756082,0.26267207,-0.39553526,0.3032946
105,1438346756099,0.28680122,-0.44898596,0.3484986
106,1438346756122,0.30482176,-0.5412266,0.3857614
107,1438346756140,0.27366763,-0.56046885,0.39675698
108,1438346756159,0.26419923,-0.5305365,0.41080686
109,1438346756181,0.26847526,-0.5271767,0.46700647
110,1438346756202,0.26358834,-0.6630942,0.49663344
111,1438346756222,0.22815818,-0.763887,0.4886922
112,1438346756242,0.14385876,-0.7504479,0.4352415
113,1438346756261,0.07544186,-0.6585127,0.38881573
114,1438346756284,0.045814894,-0.5907067,0.36926803
115,1438346756303,0.07819075,-0.5534439,0.38820487
116,1438346756322,0.14782938,-0.5320636,0.44440445
117,1438346756340,0.14446963,-0.45478916,0.5036584
118,1438346756360,0.1386664,-0.29810223,0.59131753
119,1438346756380,0.21471913,-0.183565,0.6789767
120,1438346756405,0.42638394,-0.19242255,0.79045963
121,1438346756422,0.49021935,-0.36102137,0.895223
122,1438346756443,0.36468655,-0.56291234,0.90377516
123,1438346756460,0.2837469,-0.54183745,0.87872964
124,1438346756480,0.3454443,-0.42058071,0.8729264
125,1438346756499,0.36957347,-0.38515055,0.83291477
126,1438346756520,0.29779682,-0.52656585,0.745561
127,1438346756587,0.24923302,-0.57726765,0.66645396
128,1438346756588,0.18936823,-0.58368176,0.6102544
129,1438346756589,0.07727446,-0.6743952,0.5119051
130,1438346756601,0.106901415,-0.7696902,0.42424592
131,1438346756620,0.3313944,-0.75686204,0.37751472
132,1438346756640,0.45204028,-0.7244862,0.3662137
133,1438346756668,0.44806966,-0.7538077,0.3594942
134,1438346756681,0.41691554,-0.7901542,0.36468655
135,1438346756702,0.41325033,-0.8136725,0.39828414
136,1438346756721,0.36865717,-0.7535023,0.4166101
137,1438346756748,0.32467487,-0.6817256,0.43554693
138,1438346756765,0.25289822,-0.6771441,0.4569272
139,1438346756783,0.111177474,-0.7626653,0.4633413
140,1438346756802,0.0030543262,-0.83077675,0.45173484
141,1438346756820,0.03604105,-0.7626653,0.39950588
142,1438346756841,0.021991149,-0.61361414,0.35735616
143,1438346756862,-0.089491755,-0.5225952,0.3173445
144,1438346756883,-0.0852157,-0.37782016,0.27275133
145,1438346756903,-0.061391957,-0.1777618,0.22693644
146,1438346756923,-0.0067195175,-0.15454891,0.17745635
147,1438346756944,0.03390302,-0.15027285,0.124005646
148,1438346756963,-0.038789943,-0.17256944,0.061391957
149,1438346756981,-0.15668693,-0.18570304,0.0106901415
150,1438346757005,-0.11209377,-0.16371189,-0.05497787
151,1438346757020,-0.013133603,-0.10170906,-0.10598512
152,1438346757043,0.08246681,-0.037873644,-0.14935656
153,1438346757065,0.054061573,-0.011301007,-0.17592919
154,1438346757083,-0.016187929,-0.034208454,-0.18448131
155,1438346757101,-0.026267206,0.045814894,-0.17134771
156,1438346757124,0.019547688,0.13439035,-0.14446963
157,1438346757144,0.02107485,0.21197024,-0.10415252
158,1438346757165,-0.045814894,0.13041973,-0.10323623
159,1438346757183,-0.025350908,0.08246681,-0.14019357
160,1438346757201,-0.008552114,0.021685716,-0.17134771
161,1438346757220,0.01863139,0.05467244,-0.15699236
162,1438346757240,0.09010262,0.17806722,-0.11759156
163,1438346757261,0.13958271,0.21563543,-0.076358154
164,1438346757327,0.10629055,0.160963,-0.08307768
165,1438346757328,-0.032070424,0.1740966,-0.12308934
166,1438346757329,-0.081855945,0.23793201,-0.15363261
167,1438346757352,-0.09468412,0.2947425,-0.13713925
168,1438346757361,-0.124005646,0.30940324,-0.098043874
169,1438346757382,-0.076052725,0.226631,-0.064446285
170,1438346757403,-0.044898596,0.15851954,-0.0009162979
171,1438346757422,-0.13591751,0.10293079,-0.08368854
172,1438346757442,-0.15760323,0.15118915,-0.13652839
173,1438346757470,-0.07819075,0.15668693,-0.16126843
174,1438346757481,-0.008857546,0.18600847,-0.1853976
175,1438346757508,0.00030543262,0.23640485,-0.16982053
176,1438346757523,0.06780604,0.21563543,-0.12797627
177,1438346757542,0.093462385,0.20952678,-0.09193522
178,1438346757563,0.01985312,0.23640485,-0.08155051
179,1438346757582,-0.018325957,0.24556783,-0.112704635
180,1438346757602,0.042455133,0.28863382,-0.23854288
181,1438346757621,0.10751228,0.38728857,-0.30940324
182,1438346757641,0.15882497,0.41447207,-0.29932398
183,1438346757661,0.2275473,0.42913285,-0.24984388
184,1438346757682,0.16829337,0.44898596,-0.22418754
185,1438346757704,0.025045475,0.44012842,-0.15393804
186,1438346757726,0.027794369,0.47555858,-0.15485434
187,1438346757741,0.1957823,0.5561928,-0.21135938
188,1438346757763,0.39920044,0.57604593,-0.008552114
189,1438346757784,0.5696318,0.552833,0.021991149
190,1438346757804,0.5299256,0.72326446,-0.24770586
191,1438346757825,0.4098906,0.86162543,-0.27947086
192,1438346757844,0.23579398,0.96761054,-0.27672195
193,1438346757862,0.19883664,1.1154399,-0.26328292
194,1438346757881,0.29657507,1.1780536,-0.28771752
195,1438346757902,0.32986724,1.1551461,-0.39522982
196,1438346757924,0.38789943,1.1771374,-0.4999932
197,1438346757942,0.5726862,1.239751,-0.58032197
198,1438346757964,0.86467975,1.2687671,-0.6469063
199,1438346757981,1.131017,1.29198,-0.67103547
200,1438346758013,1.251052,1.3057245,-0.6560693
201,1438346758135,1.2205088,1.2113458,-0.63499445
202,1438346758136,1.0778717,1.1206323,-0.6081163
203,1438346758137,1.0183123,1.2336423,-0.6200282
204,1438346758138,1.0946705,1.3139712,-0.65118235
205,1438346758139,1.255328,1.3466524,-0.6805039
206,1438346758140,1.3762794,1.2024882,-0.7556403
207,1438346758152,1.409877,1.0662653,-0.84788096
208,1438346758162,1.357648,1.1252137,-0.8258898
209,1438346758181,1.3338243,1.149343,-0.80848014
210,1438346758212,1.2745703,1.1817188,-0.8210029
211,1438346758222,1.174083,1.2767084,-0.8604037
212,1438346758242,1.0891727,1.3750577,-0.8940013
213,1438346758268,1.0870347,1.4132367,-0.89369583
214,1438346758283,1.1661417,1.421178,-0.90408057
215,1438346758303,1.2730432,1.3658947,-0.93523467
216,1438346758323,1.2596041,1.1863003,-0.95569867
217,1438346758343,1.2223413,0.9923506,-1.0320568
218,1438346758361,1.2366967,0.9434814,-1.0732902
219,1438346758381,1.2776246,0.90102625,-1.215011
220,1438346758403,1.4251486,0.6261369,-1.1206323
221,1438346758423,1.4782939,0.40653083,-1.1902709
222,1438346758445,1.4844025,0.535118,-1.1646146
223,1438346758465,1.6187929,0.763887,-0.9492846
224,1438346758487,1.892155,1.207986,-0.6719518
225,1438346758502,1.9819523,1.2351695,-0.46792278
226,1438346758525,1.6807957,0.91538155,-0.37751472
227,1438346758544,1.235475,0.6203337,-0.5012149
228,1438346758566,0.59864795,0.4990769,-0.81122905
229,1438346758586,0.6414085,0.5036584,-1.20371
230,1438346758604,1.350623,0.5873469,-1.071763
231,1438346758625,1.7397442,0.34300083,-0.6927212
232,1438346758644,1.6453656,0.22174409,-0.3652974
233,1438346758662,1.0607675,0.35430184,-0.36071593
234,1438346758683,0.679893,0.64751714,-0.5739079
235,1438346758708,0.6068946,0.70005155,-0.63194007
236,1438346758729,0.59589905,0.45998153,-0.5729916
237,1438346758743,0.6704246,0.2968805,-0.35918877
238,1438346758843,0.8323039,0.27152961,-0.14569137
239,1438346758844,0.61269784,0.344528,-0.06688975
240,1438346758845,0.26236662,0.3417791,-0.07574729
241,1438346758846,-0.25961772,0.34483343,-0.30482176
242,1438346758847,-0.60903263,0.47891834,-0.42821655
243,1438346758862,-0.56077427,0.5354234,-0.47311515
244,1438346758887,-0.35338554,0.2855795,-0.28313604
245,1438346758903,-0.33383787,-0.08002335,-0.22204952
246,1438346758924,-0.3726278,-0.2782491,-0.22204952
247,1438346758943,-0.44898596,-0.46273044,-0.17684549
248,1438346758964,-0.45265114,-0.52503866,-0.15118915
249,1438346758985,-0.6001751,-0.4334089,-0.16646078
250,1438346759010,-0.89461213,-0.33261612,-0.26633725
251,1438346759029,-1.0012082,-0.19456059,-0.2733622
252,1438346759044,-0.8970556,-0.09254608,-0.12675454
253,1438346759067,-0.75533485,-0.07788532,0.021685716
254,1438346759085,-0.7290677,-0.101098195,0.07086037
255,1438346759105,-0.70402217,-0.17379116,0.124005646
256,1438346759125,-0.59437186,-0.30665436,0.10629055
257,1438346759144,-0.44440445,-0.32650748,0.13561209
258,1438346759163,-0.40378192,-0.3659083,0.16768251
259,1438346759183,-0.46486846,-0.48747048,0.21868975
260,1438346759202,-0.49541172,-0.6041457,0.28160888
261,1438346759223,-0.30818152,-0.63804877,0.39278635
262,1438346759244,-0.12186762,-0.5039638,0.45540005
263,1438346759264,-0.09285152,-0.42302418,0.46761733
264,1438346759283,-0.15790866,-0.3387248,0.5900958
265,1438346759302,-0.29749137,-0.35369098,0.59986967
266,1438346759322,-0.47525316,-0.4251622,0.52931476
267,1438346759349,-0.58246,-0.4529566,0.54519725
268,1438346759369,-0.47494772,-0.43860126,0.61422503
269,1438346759390,-0.514654,-0.4914411,0.68630713
270,1438346759405,-0.8332202,-0.45356745,0.6188065
271,1438346759422,-1.1258247,-0.20708331,0.24678956
272,1438346759443,-1.3710871,0.06627888,0.07269296
273,1438346759463,-1.6358972,0.044593163,0.08735373
274,1438346759483,-2.1676552,-0.2947425,0.10842858
275,1438346759503,-2.6853635,-0.49296826,-0.039095376
276,1438346759583,-2.7644706,-0.09865474,-0.2660318
277,1438346759584,-1.6236799,0.6429357,-1.0977248
278,1438346759585,1.0210613,0.6575964,-1.0876455
279,1438346759586,0.7470882,-1.2547172,-0.5305365
280,1438346759604,-1.3304645,-1.4230106,-0.6044512
281,1438346759627,-2.5879307,0.52503866,-0.70341134
282,1438346759643,-3.5369098,1.8402315,-0.2452624
283,1438346759696,-2.874121,0.9309586,0.54305923
284,1438346759697,-1.8701639,-0.03940081,0.09896017
285,1438346759703,-1.4187346,0.086132,-0.17623462
286,1438346759729,-1.4676038,0.16187929,-0.473726
287,1438346759743,-1.5317446,0.1432479,-0.56291234
288,1438346759764,-0.8524625,-0.1908954,-0.5864306
289,1438346759789,-0.6200282,-0.5323691,-0.68600166
290,1438346759807,-0.91599244,-0.089186326,-0.39706242
291,1438346759824,-1.4706581,0.04642576,-0.20922135
292,1438346759845,-1.2351695,-0.061086524,-0.25167647
293,1438346759864,-0.86498517,-0.19120082,-0.26145032
294,1438346759883,-0.795652,-0.15515977,-0.24770586
295,1438346759903,-0.7974846,-0.1600467,-0.16554448
296,1438346759924,-0.6957755,-0.34880406,-0.110872045
297,1438346759945,-0.6200282,-0.47708577,-0.1414153
298,1438346759964,-0.6203337,-0.42149702,-0.18753563
299,1438346759985,-0.74281216,-0.37201694,-0.1881465
300,1438346760006,-0.81122905,-0.39767328,-0.124311075
301,1438346760026,-0.8539896,-0.4392121,-0.082161374
302,1438346760043,-0.9810496,-0.2125811,-0.099265605
303,1438346760069,-1.044885,-0.04428773,-0.105068825
304,1438346760090,-1.112691,-0.052839845,-0.11636983
305,1438346760123,-1.1850786,-0.046731193,-0.17348573
306,1438346760124,-1.2363913,0.07086037,-0.19150625
307,1438346760143,-1.1120802,0.124311075,-0.058643065
308,1438346760163,-0.88178396,0.048258353,0.039095376
309,1438346760184,-0.67103547,-0.03634648,0.0009162979
310,1438346760203,-0.6966918,0.00061086525,-0.0421497
311,1438346760223,-0.68966687,0.09285152,-0.03726278
312,1438346760259,-0.60994893,0.06658431,0.014660766
313,1438346760284,-0.48258355,0.01282817,0.046731193
314,1438346760285,-0.43401974,-0.021685716,0.010995574
315,1438346760303,-0.4474588,0.11881329,-0.058948494
316,1438346760323,-0.47342056,0.25320363,-0.053450707
317,1438346760353,-0.35308012,0.23640485,-0.013744468
318,1438346760363,-0.14202617,0.18081611,0.048258353
319,1438346760383,0.03970624,0.11026118,0.113926366
320,1438346760405,0.08399397,0.058337633,0.14446963
321,1438346760423,0.06658431,0.03176499,0.12217305
322,1438346760445,0.06994407,-0.03940081,0.05681047
323,1438346760469,0.06383542,-0.26725355,-0.028099801
324,1438346760484,0.048258353,-0.2950479,-0.057726767
325,1438346760504,0.0067195175,-0.21777347,-0.004276057
326,1438346760548,-0.28405234,-0.21166481,0.024740042
327,1438346760549,-0.5522222,-0.17256944,0.011301007
328,1438346760565,-0.7110472,-0.002443461,0.056199603
329,1438346760586,-0.5748242,0.17379116,0.008552114
330,1438346760606,-0.3368922,0.29168814,-0.04428773
331,1438346760631,-0.041233405,0.3390302,-0.06688975
332,1438346760644,0.3222314,0.29932398,-0.096516706
333,1438346760666,0.6441574,0.18234327,-0.028099801
334,1438346760685,0.7583892,0.029321533,0.16035213
335,1438346760705,0.729984,-0.09896017,0.1731803
336,1438346760726,0.24465153,-0.24312437,0.13500121
337,1438346760744,-0.16126843,-0.0729984,0.10781772
338,1438346760763,-0.24953845,0.035430185,0.0021380284
339,1438346760784,-0.21563543,0.06291912,-0.05955936
340,1438346760804,-0.076052725,0.047647487,-0.0983493
341,1438346760829,0.17195857,0.045814894,-0.055588737
342,1438346760845,0.3539964,0.02076942,-0.06627888
343,1438346760866,0.3894266,0.028405234,-0.07391469
344,1438346760885,0.4343252,0.07819075,-0.030543262
345,1438346760904,0.6356053,-0.04886922,0.0036651916
346,1438346760924,0.84482664,-0.15424347,0.007330383
347,1438346760947,0.90408057,-0.31948254,0.0571159
348,1438346760968,0.79381937,-0.4297437,0.1518
349,1438346761056,0.593761,-0.44868052,0.18600847
350,1438346761057,0.4071417,-0.31856623,0.1441642
351,1438346761058,0.129198,-0.19608775,0.12095132
352,1438346761059,-0.07666359,-0.13775012,0.13072516
353,1438346761108,-0.21563543,-0.0711658,0.16187929
354,1438346761131,-0.18692477,0.017715093,0.14721853
355,1438346761132,-0.024740042,0.0580322,0.11362094
356,1438346761133,0.10629055,0.08093964,0.051923547
357,1438346761144,0.09865474,0.10140363,-0.015271631
358,1438346761177,-0.02076942,0.10445796,-0.09743301
359,1438346761185,-0.11728613,0.15332718,-0.17012598
360,1438346761204,-0.23671028,0.22510384,-0.42058071
361,1438346761230,-0.29260445,0.34697145,-0.48899764
362,1438346761245,-0.13622294,0.3735441,-0.18417588
363,1438346761265,0.3387248,0.3155119,0.049480084
364,1438346761287,0.5021312,0.14905111,0.112704635
365,1438346761306,0.37843102,0.14294247,0.047036625
366,1438346761326,0.34025195,0.35277468,-0.28496864
367,1438346761345,0.44776422,0.48747048,-0.018325957
368,1438346761366,0.57818395,0.3494149,0.13622294
369,1438346761384,0.6759224,0.2761111,0.04337143
370,1438346761404,0.7058548,0.25442538,0.0870483
371,1438346761426,0.6835582,0.34269542,0.16615535
372,1438346761445,0.75777835,0.3268129,0.0870483
373,1438346761471,0.7901542,0.32559118,0.047036625
374,1438346761486,0.66920286,0.13713925,0.23915374
375,1438346761505,0.78038037,-0.055283304,0.1881465
376,1438346761531,0.6365216,0.7272351,0.07696902
377,1438346761550,0.5225952,0.6010914,0.04795292
378,1438346761565,0.4718934,0.50885075,0.129198
379,1438346761586,0.4914411,0.5183192,0.17379116
380,1438346761605,0.4978552,0.5323691,0.18936823
381,1438346761625,0.535118,0.5375614,0.14782938
382,1438346761645,0.59406644,0.5390886,0.07238753
383,1438346761665,0.5873469,0.49174652,0.040927973
384,1438346761686,0.5137377,0.3866777,0.044898596
