id,attr_time,attr_x,attr_y,attr_z
1,1438346754018,-0.12712635,-0.10538751,-0.0310479
2,1438346754039,-0.13567847,-0.1090527,-0.04204347
3,1438346754059,-0.1323187,-0.11882655,-0.04906842
4,1438346754082,-0.12682092,-0.11241247,-0.053955346
5,1438346754098,-0.12376659,-0.11332876,-0.05700967
6,1438346754169,-0.12743178,-0.122797176,-0.051817317
7,1438346754170,-0.13628933,-0.11882655,-0.046930395
8,1438346754171,-0.13659476,-0.11913198,-0.04173804
9,1438346754183,-0.14331427,-0.117299385,-0.0441815
10,1438346754203,-0.14056538,-0.12218631,-0.043876067
11,1438346754224,-0.1323187,-0.11668852,-0.051511884
12,1438346754255,-0.1341513,-0.11119074,-0.057315104
13,1438346754261,-0.13690019,-0.1136342,-0.055177074
14,1438346754278,-0.1350676,-0.10966357,-0.05945313
15,1438346754302,-0.13659476,-0.10722011,-0.07075414
16,1438346754321,-0.13781649,-0.10599838,-0.06922697
17,1438346754341,-0.13354044,-0.111496165,-0.071670435
18,1438346754359,-0.13659476,-0.12371347,-0.07808452
19,1438346754380,-0.13567847,-0.13196015,-0.06892154
20,1438346754402,-0.13201328,-0.123102605,-0.06708895
21,1438346754422,-0.13323501,-0.12829496,-0.06739438
22,1438346754441,-0.13567847,-0.11791025,-0.0731976
23,1438346754462,-0.13659476,-0.1127179,-0.07777909
24,1438346754482,-0.13628933,-0.109969005,-0.075946495
25,1438346754502,-0.1454523,-0.10386035,-0.07655736
26,1438346754521,-0.15186639,-0.097140834,-0.070448704
27,1438346754542,-0.15797505,-0.08950502,-0.064645484
28,1438346754562,-0.15675332,-0.092559345,-0.06159116
29,1438346754579,-0.15889135,-0.09744626,-0.053955346
30,1438346754602,-0.15247726,-0.09561367,-0.05364991
31,1438346754619,-0.14667404,-0.0977517,-0.049679287
32,1438346754641,-0.14972836,-0.10294405,-0.044792365
33,1438346754659,-0.14148168,-0.10080603,-0.0432652
34,1438346754684,-0.13537303,-0.09897342,-0.05120645
35,1438346754699,-0.13445674,-0.104471214,-0.058536835
36,1438346754725,-0.13842736,-0.0977517,-0.061285727
37,1438346754742,-0.14056538,-0.09378107,-0.06647808
38,1438346754759,-0.14667404,-0.088588715,-0.049679287
39,1438346754780,-0.14484145,-0.08950502,-0.05334448
40,1438346754800,-0.14667404,-0.09317021,-0.04998472
41,1438346754824,-0.14148168,-0.09225391,-0.05792597
42,1438346754840,-0.13109697,-0.088283285,-0.06159116
43,1438346754896,-0.12651548,-0.08919959,-0.04998472
44,1438346754897,-0.12987524,-0.08919959,-0.055177074
45,1438346754915,-0.12956981,-0.09164305,-0.057315104
46,1438346754922,-0.13384587,-0.088588715,-0.04784669
47,1438346754940,-0.13292956,-0.09439194,-0.049373858
48,1438346754960,-0.1323187,-0.111801594,-0.048152126
49,1438346754979,-0.12895894,-0.111801594,-0.053039044
50,1438346755017,-0.12437746,-0.10538751,-0.052428182
51,1438346755021,-0.121934,-0.10508208,-0.05487164
52,1438346755040,-0.11613078,-0.10233319,-0.056704238
53,1438346755061,-0.11399275,-0.100195155,-0.06525635
54,1438346755083,-0.121017694,-0.09927886,-0.056398805
55,1438346755103,-0.12651548,-0.097140834,-0.055177074
56,1438346755120,-0.1323187,-0.09530824,-0.054260775
57,1438346755142,-0.1454523,-0.094086505,-0.046930395
58,1438346755163,-0.14423057,-0.10172232,-0.048152126
59,1438346755183,-0.14972836,-0.11821568,-0.044486932
60,1438346755202,-0.13751106,-0.1258515,-0.049679287
61,1438346755223,-0.13903822,-0.13562535,-0.04754126
62,1438346755243,-0.12804265,-0.13806881,-0.041432604
63,1438346755263,-0.12559919,-0.14051226,-0.04173804
64,1438346755280,-0.12498832,-0.13440362,-0.04204347
65,1438346755301,-0.122239426,-0.13104385,-0.043876067
66,1438346755323,-0.12285029,-0.1362362,-0.042654335
67,1438346755340,-0.12651548,-0.13287646,-0.0432652
68,1438346755362,-0.13262413,-0.12615693,-0.045097798
69,1438346755381,-0.13476217,-0.11516136,-0.045097798
70,1438346755403,-0.14423057,-0.116077654,-0.044486932
71,1438346755423,-0.14759034,-0.11210703,-0.04784669
72,1438346755440,-0.15430985,-0.11455049,-0.050901018
73,1438346755463,-0.15736417,-0.12951669,-0.052733615
74,1438346755482,-0.14850664,-0.16036539,-0.046014097
75,1438346755503,-0.12590462,-0.19090864,-0.037767418
76,1438346755522,-0.086198375,-0.24955171,-0.004780695
77,1438346755540,-0.022362962,-0.30239156,0.012934402
78,1438346755562,0.049108267,-0.37264106,0.02942776
79,1438346755634,0.16975415,-0.42884064,0.08012957
80,1438346755635,0.34568334,-0.5119183,0.15648773
81,1438346755636,0.48251718,-0.6059916,0.25208813
82,1438346755644,0.63340086,-0.65058476,0.30462256
83,1438346755661,0.7906987,-0.6631075,0.37975898
84,1438346755684,0.94341505,-0.690291,0.49796137
85,1438346755704,1.0564251,-0.7474069,0.6033357
86,1438346755720,1.1153736,-0.7813099,0.6625896
87,1438346755743,1.1358376,-0.8118532,0.66991997
88,1438346755760,1.1352267,-0.84453446,0.7010741
89,1438346755781,1.1083486,-0.8744669,0.7343663
90,1438346755802,1.0658935,-0.9037884,0.73894775
91,1438346755823,1.0176351,-0.91539484,0.7343663
92,1438346755843,0.97029305,-0.89890146,0.7093208
93,1438346755860,0.89912724,-0.8680528,0.6442636
94,1438346755882,0.83284837,-0.81521297,0.57798475
95,1438346755903,0.7561848,-0.7605405,0.540722
96,1438346755923,0.67096907,-0.692429,0.49551794
97,1438346755943,0.61507493,-0.6389783,0.44787046
98,1438346755963,0.54757434,-0.59743947,0.4081642
99,1438346755984,0.5100061,-0.55590063,0.38678393
100,1438346756004,0.51153326,-0.5555952,0.40449902
101,1438346756024,0.54604715,-0.59194165,0.47413763
102,1438346756042,0.58330995,-0.62737185,0.5361405
103,1438346756064,0.6196564,-0.6420326,0.6024194
104,1438346756082,0.6425639,-0.6527228,0.6592299
105,1438346756104,0.6605844,-0.6566934,0.79514736
106,1438346756122,0.68288094,-0.6591369,0.8745599
107,1438346756144,0.69051677,-0.6741031,0.8788359
108,1438346756166,0.68562984,-0.69945395,0.9142661
109,1438346756185,0.6691365,-0.7345787,0.8403514
110,1438346756204,0.61935097,-0.75076663,0.6809156
111,1438346756221,0.54421455,-0.75259924,0.538584
112,1438346756241,0.48099,-0.7251103,0.47047248
113,1438346756262,0.38264072,-0.6753248,0.42190868
114,1438346756289,0.286124,-0.6249284,0.35776782
115,1438346756358,0.21068212,-0.5894982,0.2948487
116,1438346756361,0.17219761,-0.55926037,0.22582093
117,1438346756362,0.15356624,-0.5198596,0.1775626
118,1438346756363,0.1260773,-0.4948141,0.11281087
119,1438346756381,0.07598634,-0.4645763,0.07493722
120,1438346756404,0.014594391,-0.4236483,0.12716621
121,1438346756421,-0.052600794,-0.36103463,0.20841128
122,1438346756441,-0.09566679,-0.3338511,0.2472012
123,1438346756462,-0.15186639,-0.34667927,0.19039074
124,1438346756481,-0.21020402,-0.4260918,0.06516338
125,1438346756501,-0.26182213,-0.54398876,-0.027077273
126,1438346756522,-0.2813698,-0.6557771,-0.11290384
127,1438346756544,-0.2746503,-0.8042174,-0.21216944
128,1438346756564,-0.29847407,-0.91722745,-0.28791672
129,1438346756582,-0.3186326,-0.9233361,-0.4122278
130,1438346756604,-0.27190143,-0.87629944,-0.42108536
131,1438346756624,-0.17263581,-0.86591476,-0.3202926
132,1438346756644,-0.08528208,-0.873856,-0.32823384
133,1438346756664,0.045748517,-0.9242524,-0.33617508
134,1438346756684,0.15784228,-0.94929785,-0.28180808
135,1438346756707,0.24916664,-0.928223,-0.1620785
136,1438346756723,0.32430306,-0.8576681,-0.09977023
137,1438346756747,0.37072885,-0.77520126,-0.06739438
138,1438346756772,0.41562742,-0.72419405,0.034314685
139,1438346756781,0.4464761,-0.6548608,0.12502816
140,1438346756801,0.47029984,-0.5910254,0.19833198
141,1438346756821,0.48770952,-0.583695,0.23376217
142,1438346756841,0.4828226,-0.5690342,0.18153322
143,1438346756862,0.4843498,-0.5827787,0.14610302
144,1438346756885,0.47976828,-0.59438515,0.21940684
145,1438346756902,0.47701937,-0.59285796,0.24659035
146,1438346756924,0.48343349,-0.6001884,0.20932758
147,1438346756943,0.49351275,-0.63378596,0.21513078
148,1438346756968,0.49381816,-0.6408109,0.20902213
149,1438346756982,0.48618233,-0.60935134,0.09723381
150,1438346757076,0.49931598,-0.5894982,0.032482088
151,1438346757077,0.5155039,-0.5830841,0.025151707
152,1438346757078,0.5344407,-0.59285796,-0.07472476
153,1438346757082,0.5588753,-0.61210024,-0.21400204
154,1438346757093,0.5747578,-0.6722705,-0.26439843
155,1438346757108,0.57597953,-0.7238886,-0.23293886
156,1438346757121,0.56406766,-0.7461852,-0.20911512
157,1438346757142,0.54635257,-0.7113659,-0.13184066
158,1438346757161,0.5185582,-0.66524553,0.035536416
159,1438346757208,0.4987051,-0.561093,0.103953324
160,1438346757218,0.5017594,-0.45419157,0.080435015
161,1438346757222,0.483128,-0.34912276,0.14671388
162,1438346757256,0.4452544,-0.2917014,0.13419116
163,1438346757262,0.39516342,-0.282233,-0.090607256
164,1438346757283,0.30903143,-0.316136,-0.20942056
165,1438346757302,0.19143987,-0.25749296,-0.09030183
166,1438346757321,0.102253556,-0.16067082,-0.06831068
167,1438346757341,0.049108267,-0.11668852,-0.0722813
168,1438346757361,0.006347701,-0.13562535,-0.056093372
169,1438346757381,-0.020224929,-0.16158712,-0.047235824
170,1438346757402,-0.04465954,-0.1979336,-0.006918721
171,1438346757421,-0.083144054,-0.15883823,0.014156133
172,1438346757442,-0.13018067,-0.08492353,-0.031353332
173,1438346757462,-0.1668326,-0.015590325,-0.09824307
174,1438346757481,-0.2288354,0.016480103,-0.17215776
175,1438346757502,-0.29541972,0.03297347,-0.24546161
176,1438346757522,-0.36047688,0.030530006,-0.28883302
177,1438346757542,-0.4420274,0.04793966,-0.26164952
178,1438346757562,-0.49395093,0.10108493,-0.22988454
179,1438346757584,-0.53671145,0.1401803,-0.23904753
180,1438346757601,-0.5565646,0.14170747,-0.29646885
181,1438346757622,-0.57916665,0.12246521,-0.3401457
182,1438346757643,-0.5993252,0.13315536,-0.34686524
183,1438346757663,-0.6066556,0.16950186,-0.33006644
184,1438346757681,-0.60757184,0.19485275,-0.3315936
185,1438346757702,-0.5907731,0.20309944,-0.3520576
186,1438346757737,-0.5715308,0.1850789,-0.32670668
187,1438346757743,-0.5733634,0.16766925,-0.31601653
188,1438346757761,-0.5816101,0.1746942,-0.30563182
189,1438346757781,-0.63261735,0.21745478,-0.3175437
190,1438346757802,-0.70195055,0.36467332,-0.42475057
191,1438346757824,-0.749598,0.5158624,-0.49561092
192,1438346757842,-0.8027433,0.6203204,-0.45834816
193,1438346757861,-0.8513071,0.6994274,-0.42933205
194,1438346757881,-0.9246109,0.730887,-0.4812556
195,1438346757903,-1.0214331,0.73730105,-0.6040395
196,1438346757925,-1.1228367,0.72294575,-0.59548736
197,1438346757944,-1.2108012,0.70645237,-0.5130206
198,1438346757964,-1.2923518,0.7244729,-0.54722905
199,1438346757985,-1.4410975,0.7858649,-0.7268234
200,1438346758004,-1.6054202,0.90223473,-0.89908737
201,1438346758025,-1.7123216,0.95232564,-0.97361296
202,1438346758046,-1.751417,0.8997912,-1.0450842
203,1438346758065,-1.7627181,0.7730367,-1.102811
204,1438346758086,-1.77463,0.6927079,-1.177642
205,1438346758106,-1.7987591,0.65636146,-1.181918
206,1438346758126,-1.8491554,0.7180588,-1.0719622
207,1438346758146,-1.8616782,0.8408427,-0.90336347
208,1438346758165,-1.8231937,0.9110922,-0.78852075
209,1438346758187,-1.7193466,0.9110922,-0.64954895
210,1438346758204,-1.6096963,0.9373594,-0.6003743
211,1438346758223,-1.5434175,0.9920319,-0.515464
212,1438346758245,-1.5287566,1.1175648,-0.38962582
213,1438346758266,-1.5015732,1.2403487,-0.37863022
214,1438346758286,-1.4410975,1.268143,-0.41619843
215,1438346758306,-1.3998641,1.2336291,-0.3850443
216,1438346758326,-1.3656557,1.1942283,-0.33373162
217,1438346758366,-1.3125104,1.1404722,-0.42444512
218,1438346758367,-1.2871594,1.0900759,-0.54386926
219,1438346758382,-1.2773856,1.0549511,-0.4552938
220,1438346758402,-1.2505076,1.0244077,-0.25065395
221,1438346758422,-1.1778146,0.9584343,-0.10007567
222,1438346758444,-1.1634592,0.92056066,-0.14986119
223,1438346758467,-1.198584,0.98958844,-0.27508855
224,1438346758483,-1.2101904,1.0091362,-0.30776986
225,1438346758503,-1.1692624,0.9272801,-0.062202025
226,1438346758524,-1.1112303,0.79472244,0.15740404
227,1438346758547,-1.0599176,0.7092013,0.09601208
228,1438346758565,-1.0345666,0.6233747,0.073715486
229,1438346758585,-1.0070777,0.59588575,0.13999438
230,1438346758605,-0.9575977,0.5705349,0.33486038
231,1438346758623,-0.86291355,0.5100592,0.5651566
232,1438346758644,-0.75143063,0.3921622,0.6296029
233,1438346758665,-0.6924821,0.33596265,0.5175091
234,1438346758684,-0.66254973,0.3368789,0.27591187
235,1438346758706,-0.62742496,0.3197747,0.14549217
236,1438346758724,-0.5779449,0.30969542,0.034009248
237,1438346758745,-0.5122769,0.27487612,-0.055482507
238,1438346758766,-0.4618805,0.19821252,-0.03960001
239,1438346758783,-0.39499077,0.1288793,0.115254335
240,1438346758803,-0.34245634,0.017090961,0.20077544
241,1438346758823,-0.34978673,-0.007954508,0.12502816
242,1438346758843,-0.3861332,0.011593178,-0.094883315
243,1438346758868,-0.37635937,-0.092559345,-0.36549664
244,1438346758887,-0.35070303,-0.24130502,-0.70116705
245,1438346758905,-0.29083824,-0.33262938,-0.70269424
246,1438346758923,-0.17569014,-0.3891344,-0.52584875
247,1438346758943,-0.07367564,-0.39585394,-0.39848334
248,1438346758963,-0.024500988,-0.38088775,-0.40306485
249,1438346758985,-0.039772622,-0.3524825,-0.5310411
250,1438346759010,-0.080089726,-0.32865876,-0.70055616
251,1438346759131,-0.1314024,-0.29597747,-0.72163105
252,1438346759132,-0.17966077,-0.23428008,-0.6736781
253,1438346759133,-0.1848531,-0.17105553,-0.6217546
254,1438346759134,-0.16958149,-0.14692634,-0.6278632
255,1438346759135,-0.14270341,-0.17502615,-0.6568793
256,1438346759136,-0.12376659,-0.2636016,-0.61228615
257,1438346759144,-0.13659476,-0.33354568,-0.59487647
258,1438346759164,-0.15553159,-0.37600082,-0.56005716
259,1438346759183,-0.16347283,-0.37447366,-0.5105771
260,1438346759210,-0.13842736,-0.36195093,-0.52615416
261,1438346759225,-0.1323187,-0.35034448,-0.5218781
262,1438346759244,-0.13384587,-0.32835335,-0.43238637
263,1438346759264,-0.119490534,-0.36256176,-0.41253325
264,1438346759284,-0.09261246,-0.43678188,-0.45223948
265,1438346759305,-0.054433383,-0.4786262,-0.45865357
266,1438346759326,-0.004647866,-0.5106966,-0.3483924
267,1438346759344,0.045443088,-0.520165,-0.20025757
268,1438346759365,0.050329998,-0.44930464,0.06119276
269,1438346759387,-0.0067858994,-0.30636218,0.32294852
270,1438346759407,-0.13201328,-0.16861206,0.38617307
271,1438346759425,-0.22730824,-0.010092534,0.014156133
272,1438346759445,-0.2996958,0.02747567,-0.42383426
273,1438346759467,-0.2810644,0.023199618,-0.81173366
274,1438346759487,-0.17385754,-0.11974285,-0.94856745
275,1438346759510,-0.1396491,-0.15853278,-1.0130138
276,1438346759526,-0.21234205,0.020145297,-2.010862
277,1438346759544,0.102253556,0.065654755,-3.598501
278,1438346759565,0.15051189,-0.14753722,-0.4992761
279,1438346759585,-0.27129054,0.0021247715,2.1326368
280,1438346759607,-0.44538715,0.03450063,2.5483305
281,1438346759626,-0.27281773,-0.16005996,0.9066303
282,1438346759646,-0.35100847,-0.0818692,-0.69750184
283,1438346759665,-0.39102012,-0.079731174,-0.41589302
284,1438346759687,-0.3693344,0.322829,-0.21400204
285,1438346759707,-0.40445918,0.47676706,-0.6562685
286,1438346759725,-0.29939035,0.11299682,-0.8813723
287,1438346759744,-0.22272676,-0.13470905,-0.9058069
288,1438346759765,-0.19890302,-0.20190422,-0.8954222
289,1438346759784,-0.14759034,-0.1567002,-0.6064829
290,1438346759834,-0.07092675,-0.11913198,0.13083139
291,1438346759835,0.11477628,-0.13409819,0.33669296
292,1438346759865,0.3255248,-0.36531067,0.32264307
293,1438346759866,0.40493727,-0.5696451,0.58623147
294,1438346759888,0.3966906,-0.570256,0.6922166
295,1438346759905,0.3725614,-0.5256628,0.54316545
296,1438346759928,0.34415618,-0.46824145,0.43840203
297,1438346759944,0.2870403,-0.39463222,0.8327156
298,1438346759964,0.2161799,-0.2532169,1.399904
299,1438346759990,0.1776954,-0.098362565,1.5055836
300,1438346760008,0.13676745,-0.030556522,1.4979478
301,1438346760024,0.05094087,0.02258876,1.8052131
302,1438346760049,-0.036718294,0.14354007,1.7954392
303,1438346760064,-0.047103003,0.27793044,1.1357048
304,1438346760086,-0.04771387,0.3209964,0.49826685
305,1438346760105,-0.21783984,0.27640325,0.031565793
306,1438346760126,-0.34825957,0.22356342,-0.17490667
307,1438346760144,-0.4401948,0.28556627,-0.556392
308,1438346760182,-0.50341934,0.2525795,-0.8376954
309,1438346760190,-0.5800829,0.24311112,-0.859992
310,1438346760204,-0.6695747,0.20340486,-0.760421
311,1438346760224,-0.66804755,0.035111487,-0.8193695
312,1438346760244,-0.5886351,-0.18052393,-1.1709224
313,1438346760264,-0.46310222,-0.4050169,-1.4519204
314,1438346760284,-0.3326825,-0.59805036,-1.5545458
315,1438346760328,-0.19157264,-0.6573043,-1.669083
316,1438346760329,-0.072759345,-0.64966846,-1.8572295
317,1438346760344,0.07384832,-0.63378596,-2.1739633
318,1438346760364,0.17158675,-0.5913308,-2.3630261
319,1438346760384,0.20304632,-0.51008576,-2.2952201
320,1438346760404,0.2244266,-0.4468612,-2.0053644
321,1438346760425,0.24000368,-0.37508452,-1.7359728
322,1438346760445,0.2638274,-0.34790102,-1.3416593
323,1438346760465,0.29681414,-0.31338713,-0.891757
324,1438346760485,0.30200648,-0.2727646,-0.6571848
325,1438346760505,0.27543384,-0.25260603,-0.43513528
326,1438346760524,0.23756021,-0.23092031,-0.22805193
327,1438346760544,0.20274088,-0.21931389,-0.12481572
328,1438346760564,0.16547811,-0.22297907,-0.20483905
329,1438346760584,0.13768372,-0.25230062,-0.22560847
330,1438346760604,0.0830113,-0.29414487,-0.18987286
331,1438346760624,0.0035988092,-0.30514044,-0.34136745
332,1438346760644,-0.048019297,-0.31399798,-0.45834816
333,1438346760664,-0.11857424,-0.28467646,-0.41344956
334,1438346760684,-0.16805433,-0.16922294,-0.3117405
335,1438346760704,-0.20837143,-0.04582815,-0.23263344
336,1438346760724,-0.23250061,0.039998412,-0.12848091
337,1438346760744,-0.22639196,0.12521411,-0.09610505
338,1438346760764,-0.19187807,0.16064431,-0.12848091
339,1438346760784,-0.16774888,0.1850789,-0.19964671
340,1438346760804,-0.13628933,0.22875579,-0.24057469
341,1438346760824,-0.074286506,0.24524914,-0.28089178
342,1438346760844,0.0014607906,0.24402742,-0.26317668
343,1438346760864,0.08514932,0.2290612,-0.2735614
344,1438346760884,0.13096422,0.21837108,-0.3465598
345,1438346760904,0.14379239,0.23791875,-0.44551998
346,1438346760924,0.1532608,0.24891432,-0.5701364
347,1438346760944,0.14226523,0.25624472,-0.5667767
348,1438346760964,0.11874691,0.31885839,-0.44399282
349,1438346760987,0.10652961,0.38177752,-0.24821049
350,1438346761006,0.094006866,0.4804322,-0.06892154
351,1438346761026,0.060409278,0.5690077,0.07463179
352,1438346761046,0.044221357,0.6936242,0.12472274
353,1438346761065,0.05155173,0.7672335,0.16962135
354,1438346761087,0.045748517,0.7522673,0.19252878
355,1438346761105,0.03963986,0.6572777,0.14243785
356,1438346761126,0.02803342,0.55648494,0.07890784
357,1438346761145,0.033225775,0.3958274,0.10334245
358,1438346761167,0.0643799,0.23791875,0.15770945
359,1438346761200,0.107445896,0.10780446,0.24781209
360,1438346761206,0.115692586,0.04457991,0.31867245
361,1438346761225,0.120884925,0.027781114,0.35257548
362,1438346761245,0.12332839,0.03877668,0.32294852
363,1438346761265,0.09339601,0.077261195,0.31958875
364,1438346761285,0.034752935,0.139264,0.27866077
365,1438346761308,-0.023584694,0.16614209,0.19802657
366,1438346761327,-0.11521448,0.16522579,0.08715453
367,1438346761346,-0.2117312,0.18782781,0.008047476
368,1438346761365,-0.27709377,0.2290612,0.15832034
369,1438346761390,-0.33940202,0.29564553,0.31653443
370,1438346761405,-0.37422132,0.3041976,0.27102497
371,1438346761428,-0.4178982,0.27548695,0.13999438
372,1438346761447,-0.45638272,0.20432116,0.14365956
373,1438346761468,-0.477763,0.17347248,0.16717789
374,1438346761490,-0.47470868,0.2046266,0.06943943
375,1438346761506,-0.5351843,0.3958274,0.0074366108
376,1438346761528,-0.5583972,0.5286906,0.12655532
377,1438346761549,-0.54465276,0.60229987,0.32294852
378,1438346761568,-0.53793323,0.6077976,0.3397473
379,1438346761588,-0.563895,0.57969785,0.22368291
380,1438346761613,-0.5901622,0.47585076,0.15862575
381,1438346761630,-0.61642945,0.3778069,0.16992676
382,1438346761651,-0.6723236,0.27793044,0.12899879
383,1438346761669,-0.713557,0.21104069,-0.01730343
384,1438346761686,-0.73829705,0.18263544,-0.12725917
