id,attr_time,attr_x,attr_y,attr_z
1,1436547648008,-7.85994,-5.8721,1.26946
2,1436547648029,-7.85344,-5.82388,1.32651
3,1436547648048,-7.92827,-5.89914,1.37411
4,1436547648068,-7.97339,-5.91016,1.26965
5,1436547648088,-7.91237,-5.86635,1.2549
6,1436547648108,-7.90422,-5.87117,1.31961
7,1436547648127,-7.85065,-5.91301,1.39822
8,1436547648148,-7.91496,-5.96668,1.33528
9,1436547648186,-7.99353,-5.88931,1.29993
10,1436547648207,-7.95349,-5.83466,1.29671
11,1436547648226,-7.92746,-5.91275,1.27342
12,1436547648245,-7.95503,-5.87003,1.37874
13,1436547648266,-7.9211,-5.93307,1.29298
14,1436547648284,-7.95749,-5.90959,1.29597
15,1436547648305,-7.94641,-5.85182,1.29674
16,1436547648326,-7.92699,-5.86801,1.32614
17,1436547648344,-7.94649,-5.84431,1.44211
18,1436547648365,-7.95892,-5.8847,1.34773
19,1436547648385,-8.00586,-5.89665,1.31796
20,1436547648405,-7.93883,-5.89728,1.30266
21,1436547648424,-7.8589,-5.86424,1.34219
22,1436547648444,-7.86082,-5.85287,1.35638
23,1436547648463,-7.9093,-5.89146,1.35127
24,1436547648483,-7.96542,-5.94911,1.33446
25,1436547648503,-7.96161,-5.91269,1.31366
26,1436547648523,-7.88969,-5.86629,1.29926
27,1436547648542,-7.85924,-5.90009,1.34113
28,1436547648562,-7.9026,-5.91185,1.3087
29,1436547648582,-7.9279,-5.92726,1.29012
30,1436547648601,-7.90684,-5.93178,1.30876
31,1436547648622,-7.89517,-5.8873,1.35646
32,1436547648641,-7.86485,-5.9075,1.31242
33,1436547648661,-7.8737,-5.89381,1.34624
34,1436547648681,-7.93846,-5.94171,1.32452
35,1436547648701,-7.8887,-5.94788,1.27093
36,1436547648721,-7.86801,-5.94553,1.25809
37,1436547648741,-7.87839,-5.93622,1.2993
38,1436547648760,-7.88559,-5.90718,1.32172
39,1436547648779,-7.96333,-5.90707,1.31659
40,1436547648800,-7.96371,-5.91919,1.25508
41,1436547648819,-7.94369,-5.89372,1.33781
42,1436547648839,-7.82246,-5.8503,1.34332
43,1436547648860,-7.89056,-5.89105,1.30032
44,1436547648877,-7.88083,-5.89828,1.25075
45,1436547648899,-7.91264,-5.90297,1.28346
46,1436547648918,-7.97586,-5.92197,1.34128
47,1436547648938,-7.89195,-5.90556,1.33629
48,1436547648958,-7.86285,-5.90904,1.33148
49,1436547648978,-7.88527,-5.93808,1.28706
50,1436547648997,-7.90366,-5.91476,1.35773
51,1436547649017,-7.89003,-5.94203,1.3355
52,1436547649037,-7.87607,-5.95227,1.29709
53,1436547649055,-7.92841,-5.94931,1.2597
54,1436547649077,-7.9478,-5.92734,1.30043
55,1436547649096,-7.93098,-5.84979,1.31677
56,1436547649116,-7.93036,-5.89633,1.30162
57,1436547649135,-7.93164,-5.88716,1.33289
58,1436547649156,-7.92805,-5.89415,1.32011
59,1436547649175,-7.87517,-5.92067,1.35355
60,1436547649194,-7.89136,-5.94012,1.37044
61,1436547649215,-7.86525,-5.94679,1.34546
62,1436547649255,-7.867,-5.94632,1.39487
63,1436547649274,-7.8804,-5.95865,1.33047
64,1436547649294,-7.86128,-5.95935,1.28893
65,1436547649313,-7.88414,-5.96288,1.36562
66,1436547649334,-7.88518,-5.88084,1.44926
67,1436547649353,-7.91155,-5.89661,1.37396
68,1436547649371,-7.89668,-5.94218,1.35419
69,1436547649393,-7.89464,-5.94096,1.35107
70,1436547649412,-7.90202,-5.90269,1.35245
71,1436547649432,-7.8913,-5.93462,1.43391
72,1436547649453,-7.89249,-5.96632,1.32809
73,1436547649471,-7.92929,-5.93292,1.27875
74,1436547649492,-7.89461,-5.91052,1.32545
75,1436547649511,-7.88545,-5.90324,1.39439
76,1436547649531,-7.87134,-5.89322,1.37115
77,1436547649551,-7.87253,-5.98238,1.3107
78,1436547649571,-7.86922,-5.95103,1.33173
79,1436547649591,-7.90529,-5.93835,1.34804
80,1436547649610,-7.92661,-5.8549,1.39027
81,1436547649630,-7.91621,-5.89427,1.36578
82,1436547649650,-7.91425,-5.88274,1.37436
83,1436547649669,-7.85876,-5.85695,1.36827
84,1436547649688,-7.87015,-5.92506,1.40295
85,1436547649709,-7.88699,-5.94664,1.35852
86,1436547649728,-7.84076,-5.92273,1.35526
87,1436547649749,-7.87605,-5.96724,1.37317
88,1436547649768,-7.89815,-6.03235,1.36786
89,1436547649788,-7.85886,-5.96828,1.43274
90,1436547649809,-7.87238,-5.99185,1.38213
91,1436547649828,-7.86185,-5.99208,1.38513
92,1436547649848,-7.86583,-5.94028,1.4155
93,1436547649867,-7.85561,-5.90564,1.44199
94,1436547649887,-7.90218,-6.10883,1.38159
95,1436547649906,-7.85294,-5.77539,1.39336
96,1436547649927,-7.88812,-5.90868,1.37613
97,1436547649945,-7.85762,-5.94884,1.43503
98,1436547649966,-7.86085,-5.98529,1.42148
99,1436547649987,-7.84685,-6.00137,1.41406
100,1436547650005,-7.85384,-5.98964,1.45493
101,1436547650026,-7.81633,-5.97086,1.38786
102,1436547650045,-7.74763,-5.94634,1.35158
103,1436547650065,-7.8037,-5.99435,1.4552
104,1436547650085,-7.88684,-6.00261,1.42648
105,1436547650105,-7.89833,-5.9848,1.4509
106,1436547650124,-7.87573,-5.96736,1.42253
107,1436547650144,-7.82365,-5.9567,1.4832
108,1436547650163,-7.80502,-5.987,1.51486
109,1436547650184,-7.84448,-5.97845,1.3701
110,1436547650204,-7.84936,-6.00587,1.42563
111,1436547650223,-7.8251,-5.98022,1.36639
112,1436547650243,-7.77927,-5.97133,1.42894
113,1436547650262,-7.79909,-6.00148,1.41995
114,1436547650283,-7.84865,-6.03465,1.39447
115,1436547650320,-7.91657,-6.02849,1.39888
116,1436547650343,-7.85701,-5.91895,1.45647
117,1436547650361,-7.79562,-5.91531,1.4684
118,1436547650382,-7.74832,-6.09627,1.45576
119,1436547650401,-7.81583,-6.06935,1.40466
120,1436547650421,-7.81705,-5.99298,1.39058
121,1436547650441,-7.82144,-5.97606,1.36052
122,1436547650461,-7.88178,-5.96039,1.40312
123,1436547650480,-7.90384,-5.99918,1.41626
124,1436547650499,-7.92274,-5.99904,1.4281
125,1436547650521,-7.86795,-5.93134,1.42734
126,1436547650539,-7.7896,-5.93411,1.40533
127,1436547650559,-7.75201,-5.9758,1.40347
128,1436547650580,-7.81465,-6.00291,1.3526
129,1436547650599,-7.90742,-6.04228,1.41127
130,1436547650619,-7.90703,-5.98709,1.39061
131,1436547650637,-7.83389,-5.95476,1.38123
132,1436547650658,-7.81763,-5.9528,1.39339
133,1436547650678,-7.83141,-5.95103,1.40453
134,1436547650698,-7.90294,-5.95668,1.49011
135,1436547650718,-7.88412,-6.01463,1.39523
136,1436547650737,-7.83003,-5.97043,1.34338
137,1436547650757,-7.84004,-5.9474,1.4222
138,1436547650777,-7.8439,-5.98968,1.38496
139,1436547650796,-7.88205,-5.97572,1.40323
140,1436547650818,-7.87396,-5.97199,1.36176
141,1436547650836,-7.88947,-5.95276,1.38274
142,1436547650855,-7.84868,-5.99527,1.37105
143,1436547650875,-7.84346,-5.94247,1.44627
144,1436547650895,-7.92195,-5.91931,1.43645
145,1436547650915,-7.82092,-5.9752,1.40105
146,1436547650936,-7.83995,-5.97086,1.43675
147,1436547650954,-7.82059,-5.92149,1.40637
148,1436547650975,-7.86331,-5.9454,1.46742
149,1436547650995,-7.88605,-5.98102,1.41072
150,1436547651014,-7.87561,-5.95486,1.39836
151,1436547651034,-7.83768,-5.94089,1.41869
152,1436547651054,-7.82974,-5.94423,1.42505
153,1436547651073,-7.79427,-5.94037,1.42711
154,1436547651091,-7.83723,-5.99979,1.43726
155,1436547651114,-7.89825,-5.97899,1.4182
156,1436547651131,-7.8808,-5.97318,1.3804
157,1436547651153,-7.83812,-5.96606,1.41644
158,1436547651171,-7.79045,-5.97383,1.49036
159,1436547651192,-7.84084,-5.98886,1.4791
160,1436547651211,-7.84303,-6.00836,1.37807
161,1436547651232,-7.80051,-5.96855,1.39107
162,1436547651251,-7.8477,-5.99858,1.34303
163,1436547651271,-7.83218,-5.99173,1.47868
164,1436547651291,-7.86252,-6.00923,1.41257
165,1436547651310,-7.90698,-5.96048,1.40849
166,1436547651331,-7.9144,-5.91473,1.42506
167,1436547651351,-7.82999,-5.9496,1.45592
168,1436547651370,-7.81444,-5.93176,1.39737
169,1436547651410,-7.82205,-5.94769,1.37917
170,1436547651429,-7.91472,-5.97386,1.44788
171,1436547651448,-7.90027,-6.01692,1.42169
172,1436547651469,-7.82919,-5.98108,1.4377
173,1436547651487,-7.75783,-5.96902,1.44667
174,1436547651509,-7.81892,-5.96445,1.45665
175,1436547651528,-7.90314,-5.89133,1.46574
176,1436547651548,-7.89873,-5.94293,1.37328
177,1436547651568,-7.88487,-5.99478,1.36668
178,1436547651588,-7.81868,-5.96956,1.4709
179,1436547651608,-7.78636,-5.93149,1.47331
180,1436547651627,-7.86818,-5.97096,1.44734
181,1436547651647,-7.92281,-6.01241,1.37926
182,1436547651666,-7.93861,-5.95938,1.39989
183,1436547651686,-7.85173,-5.9353,1.42914
184,1436547651707,-7.83868,-5.96725,1.41084
185,1436547651726,-7.82074,-5.98303,1.38675
186,1436547651746,-7.90663,-5.9623,1.44443
187,1436547651765,-7.87288,-5.91983,1.4196
188,1436547651786,-7.82008,-5.90851,1.38773
189,1436547651804,-7.81841,-5.9606,1.43077
190,1436547651825,-7.89859,-6.00168,1.45905
191,1436547651845,-7.91733,-5.97658,1.44252
192,1436547651864,-7.86736,-5.90932,1.39178
193,1436547651885,-7.82088,-5.948,1.40254
194,1436547651904,-7.81184,-6.00154,1.40294
195,1436547651923,-7.86989,-6.00143,1.47289
196,1436547651944,-7.8795,-5.92917,1.44394
197,1436547651963,-7.84331,-5.97861,1.41583
198,1436547651983,-7.79497,-6.00777,1.41853
199,1436547652003,-7.81276,-5.9832,1.49973
200,1436547652022,-7.81683,-6.00067,1.47029
201,1436547652043,-7.89157,-6.00374,1.34004
202,1436547652063,-7.9285,-5.94197,1.37915
203,1436547652080,-7.88847,-5.94743,1.45035
204,1436547652102,-7.86403,-5.89363,1.42258
205,1436547652120,-7.81877,-5.89668,1.34567
206,1436547652141,-7.88203,-5.96298,1.42366
207,1436547652160,-7.86134,-5.91969,1.45662
208,1436547652181,-7.84209,-5.91913,1.47702
209,1436547652201,-7.8781,-5.9951,1.40474
210,1436547652220,-7.84015,-6.04716,1.40102
211,1436547652241,-7.84415,-6.02879,1.41814
212,1436547652258,-7.86255,-5.99962,1.36627
213,1436547652280,-7.86498,-5.95328,1.33548
214,1436547652298,-7.84468,-5.91536,1.41513
215,1436547652318,-7.8392,-5.91246,1.38715
216,1436547652339,-7.87108,-5.9261,1.41524
217,1436547652358,-7.94005,-5.94698,1.40427
218,1436547652379,-7.89645,-5.92857,1.4005
219,1436547652397,-7.88629,-5.9947,1.40118
220,1436547652418,-7.82907,-5.99123,1.36446
221,1436547652437,-7.85614,-5.94887,1.41202
222,1436547652458,-7.9104,-5.96053,1.39285
223,1436547652477,-7.85341,-5.92764,1.38499
224,1436547652517,-7.83458,-5.9729,1.37039
225,1436547652537,-7.76634,-5.90916,1.46165
226,1436547652556,-7.81693,-5.88237,1.50696
227,1436547652575,-7.90509,-5.97501,1.54694
228,1436547652597,-7.96577,-5.98697,1.55997
229,1436547652615,-7.93707,-5.96315,1.45306
230,1436547652636,-7.84875,-5.88969,1.46532
231,1436547652655,-7.90125,-5.83311,1.55794
232,1436547652675,-8.02074,-5.76073,1.52344
233,1436547652695,-8.09073,-5.67401,1.51068
234,1436547652714,-8.13982,-5.53867,1.54819
235,1436547652735,-8.12436,-5.4615,1.5818
236,1436547652754,-7.98946,-5.45465,1.60707
237,1436547652775,-7.96626,-5.57007,1.71602
238,1436547652794,-7.96437,-5.57431,1.81662
239,1436547652813,-8.00346,-5.70824,1.76114
240,1436547652834,-7.97644,-5.71066,1.6925
241,1436547652853,-8.0287,-5.72348,1.67245
242,1436547652872,-8.02766,-5.72295,1.57831
243,1436547653010,-7.9939,-5.5938,1.22524
244,1436547653011,-7.98181,-5.51729,1.10146
245,1436547653012,-7.78616,-5.24956,1.08598
246,1436547653013,-8.25942,-5.17149,1.65268
247,1436547653014,-8.14967,-5.65094,1.97096
248,1436547653015,-8.28534,-5.57272,1.54022
249,1436547653016,-8.15254,-5.63178,1.70764
250,1436547653031,-7.98166,-5.66563,1.49448
251,1436547653051,-7.7887,-5.82437,1.61781
252,1436547653072,-7.76212,-6.28365,1.66856
253,1436547653091,-7.6037,-6.28313,1.4454
254,1436547653110,-7.52591,-6.4312,1.3308
255,1436547653131,-7.37148,-6.56258,1.18176
256,1436547653149,-7.38449,-6.48723,1.16171
257,1436547653170,-7.64865,-6.48792,1.12022
258,1436547653190,-8.11812,-6.37109,1.19798
259,1436547653208,-8.38171,-6.2148,1.06923
260,1436547653229,-8.32443,-6.04587,0.974777
261,1436547653248,-8.23712,-5.92838,0.94841
262,1436547653269,-7.93497,-5.84067,1.0278
263,1436547653288,-7.7271,-6.00429,1.29074
264,1436547653308,-7.59961,-6.0209,1.44797
265,1436547653328,-7.74348,-5.8799,1.40961
266,1436547653347,-7.98578,-5.69307,1.33015
267,1436547653368,-8.15344,-5.6653,1.25078
268,1436547653387,-8.37627,-5.75916,1.27983
269,1436547653407,-8.31987,-5.74307,1.17744
270,1436547653427,-8.1486,-5.72459,1.08073
271,1436547653446,-8.28726,-5.84924,1.21613
272,1436547653466,-8.47269,-6.23238,0.934174
273,1436547653486,-8.35121,-6.20314,0.49765
274,1436547653506,-8.47159,-6.09084,0.53923
275,1436547653524,-8.21866,-5.97324,0.708618
276,1436547653545,-7.58119,-5.40253,1.11488
277,1436547653584,-7.37904,-4.61575,2.07401
278,1436547653605,-7.44659,-4.21689,2.56287
279,1436547653624,-7.77669,-4.73261,2.17226
280,1436547653644,-8.22626,-5.26668,1.81227
281,1436547653664,-8.5867,-5.76418,1.67844
282,1436547653683,-8.43597,-5.84824,1.50206
283,1436547653703,-8.05348,-5.72229,1.30933
284,1436547653724,-7.79613,-5.41779,1.41185
285,1436547653742,-8.05284,-5.44902,1.70886
286,1436547653763,-8.44011,-6.22522,2.26721
287,1436547653783,-9.14821,-6.95988,2.54697
288,1436547653803,-9.7476,-7.06297,2.40691
289,1436547653821,-9.8344,-6.67029,1.99298
290,1436547653841,-9.43597,-5.96147,2.297
291,1436547653861,-9.13417,-4.8521,3.0271
292,1436547653880,-8.39835,-4.29286,3.89926
293,1436547653902,-7.5955,-4.25533,4.38422
294,1436547653921,-6.98167,-3.90439,5.07167
295,1436547653941,-6.89119,-4.67906,5.02098
296,1436547653961,-6.65471,-5.25265,4.69737
297,1436547653980,-6.66693,-5.34503,4.71324
298,1436547654000,-6.53514,-5.85718,4.52014
299,1436547654020,-6.24524,-5.49858,4.53992
300,1436547654040,-6.24055,-5.11893,4.72882
301,1436547654059,-6.1196,-4.78017,5.01495
302,1436547654079,-6.12137,-5.22313,4.745
303,1436547654099,-5.9071,-5.55302,4.52077
304,1436547654119,-5.83838,-5.30925,4.72284
305,1436547654139,-5.64799,-5.17223,4.77515
306,1436547654157,-5.60277,-5.16959,4.86867
307,1436547654178,-5.90218,-5.39668,4.86978
308,1436547654198,-5.94417,-5.46816,4.26118
309,1436547654218,-5.98003,-5.4554,3.94234
310,1436547654237,-6.21451,-5.19914,3.89301
311,1436547654258,-6.30946,-5.13675,4.21237
312,1436547654276,-6.51849,-4.80463,4.58356
313,1436547654297,-6.83278,-4.86742,4.6602
314,1436547654316,-6.78827,-4.89049,4.46638
315,1436547654334,-6.8633,-4.81873,4.41109
316,1436547654356,-6.80766,-4.98733,4.18909
317,1436547654375,-6.59172,-5.18208,3.94162
318,1436547654396,-6.80568,-5.41341,4.02693
319,1436547654415,-7.39015,-6.01247,4.03098
320,1436547654435,-8.05243,-6.95113,3.9843
321,1436547654455,-8.89017,-7.48653,4.31734
322,1436547654474,-9.6631,-7.12505,4.16104
323,1436547654494,-9.59833,-6.10779,3.4565
324,1436547654514,-8.86562,-4.75197,2.94753
325,1436547654534,-7.8699,-4.00542,2.72871
326,1436547654554,-7.13327,-3.6357,2.69739
327,1436547654573,-6.94557,-3.80821,2.69627
328,1436547654594,-6.82774,-4.54942,2.76363
329,1436547654614,-7.04611,-5.02979,2.91837
330,1436547654651,-7.44531,-5.54086,3.04901
331,1436547654673,-7.79903,-5.96849,2.84326
332,1436547654691,-8.19228,-6.14543,2.82997
333,1436547654712,-8.51192,-6.06702,2.83929
334,1436547654732,-8.68468,-5.87579,2.93065
335,1436547654752,-8.6933,-5.71451,3.02603
336,1436547654771,-8.43968,-5.44687,3.24113
337,1436547654791,-8.08751,-5.61671,2.98882
338,1436547654810,-7.69435,-5.32617,2.83997
339,1436547654831,-7.62175,-5.32251,2.70427
340,1436547654851,-7.59587,-5.71802,2.67825
341,1436547654870,-7.65335,-5.85739,2.64365
342,1436547654890,-7.68485,-5.92865,2.64511
343,1436547654910,-7.71692,-5.98172,2.75816
344,1436547654930,-7.70595,-5.88562,2.86594
345,1436547654949,-7.65688,-5.85216,2.77504
346,1436547654968,-7.60132,-5.77046,2.64821
347,1436547654989,-7.68137,-5.65224,2.59142
348,1436547655008,-7.66908,-5.67757,2.57605
349,1436547655029,-7.63878,-5.71632,2.55923
350,1436547655048,-7.66866,-5.75264,2.57074
351,1436547655068,-7.68008,-5.75786,2.5416
352,1436547655088,-7.65895,-5.76752,2.45802
353,1436547655107,-7.66928,-5.8579,2.35645
354,1436547655127,-7.72173,-5.93864,2.3988
355,1436547655147,-7.80791,-5.97733,2.37993
356,1436547655166,-7.68485,-6.01189,2.44325
357,1436547655186,-7.55778,-6.03275,2.3748
358,1436547655206,-7.60248,-5.94695,2.42882
359,1436547655226,-7.59892,-5.90248,2.42923
360,1436547655246,-7.59096,-5.98657,2.37973
361,1436547655266,-7.57562,-6.0087,2.45184
362,1436547655284,-7.56432,-6.01958,2.47014
363,1436547655304,-7.53246,-6.02789,2.49771
364,1436547655324,-7.42433,-6.12065,2.56335
365,1436547655345,-7.4014,-6.22482,2.57979
366,1436547655364,-7.45045,-6.27393,2.52632
367,1436547655385,-7.60706,-6.21529,2.58488
368,1436547655404,-7.71494,-6.0508,2.66684
369,1436547655424,-7.57953,-5.95807,2.57443
370,1436547655443,-7.38759,-6.00664,2.49643
371,1436547655464,-7.33051,-6.09459,2.54535
372,1436547655482,-7.43085,-6.15244,2.64571
373,1436547655502,-7.55524,-6.07292,2.73918
374,1436547655523,-7.53508,-6.0332,2.617
375,1436547655543,-7.44003,-6.16682,2.45625
376,1436547655563,-7.32291,-6.21155,2.51271
377,1436547655582,-7.28194,-6.35219,2.69044
378,1436547655600,-7.2097,-6.40253,2.81429
379,1436547655622,-7.13589,-6.34155,2.7113
380,1436547655641,-7.19414,-6.27408,2.61121
381,1436547655661,-7.27434,-6.19835,2.62781
382,1436547655681,-7.42178,-6.10956,2.58879
383,1436547655700,-7.46257,-6.0963,2.57726
384,1436547655740,-7.3969,-6.04009,2.54846
385,1436547655760,-7.41655,-6.07896,2.46928
386,1436547655778,-7.50072,-6.13847,2.60686
387,1436547655800,-7.41211,-6.24118,2.59979
388,1436547655817,-7.31706,-6.28744,2.53058
389,1436547655839,-7.35567,-6.24049,2.48898
390,1436547655858,-7.28131,-6.22365,2.60881
391,1436547655879,-7.2711,-6.17136,2.60602
392,1436547655898,-7.28853,-6.19328,2.66582
393,1436547655917,-7.37222,-6.28996,2.62512
394,1436547655937,-7.40379,-6.25491,2.64996
395,1436547655958,-7.44104,-6.28934,2.56293
396,1436547655978,-7.37688,-6.34233,2.49675
397,1436547655997,-7.43523,-6.25061,2.48495
398,1436547656017,-7.3951,-6.18144,2.47723
399,1436547656037,-7.44553,-6.15175,2.47865
400,1436547656057,-7.50459,-6.0421,2.50655
401,1436547656076,-7.45653,-6.01228,2.51228
402,1436547656094,-7.43544,-6.06226,2.51256
403,1436547656116,-7.4664,-6.14258,2.51767
404,1436547656134,-7.51599,-6.13617,2.53812
405,1436547656155,-7.48961,-6.17152,2.52155
406,1436547656175,-7.45967,-6.15192,2.51801
407,1436547656195,-7.45432,-6.15158,2.4895
408,1436547656215,-7.43384,-6.11258,2.51027
409,1436547656234,-7.49779,-6.04726,2.56631
410,1436547656254,-7.51421,-6.02983,2.54895
411,1436547656274,-7.49658,-6.01126,2.45076
412,1436547656294,-7.49225,-6.05208,2.42909
413,1436547656313,-7.4888,-6.08702,2.46672
414,1436547656333,-7.48984,-6.14093,2.48682
415,1436547656353,-7.48473,-6.1683,2.48798
416,1436547656373,-7.53291,-6.14561,2.46156
417,1436547656393,-7.48659,-6.07953,2.45953
418,1436547656411,-7.51482,-6.04343,2.45311
419,1436547656430,-7.45815,-6.09306,2.46591
420,1436547656451,-7.38232,-6.19731,2.49706
421,1436547656471,-7.3847,-6.22852,2.51477
422,1436547656492,-7.37126,-6.22363,2.52188
423,1436547656512,-7.37852,-6.21075,2.48909
424,1436547656531,-7.35089,-6.22049,2.50462
425,1436547656551,-7.36513,-6.20247,2.46988
426,1436547656571,-7.36005,-6.19193,2.51964
427,1436547656591,-7.3448,-6.19991,2.54594
428,1436547656610,-7.33279,-6.1487,2.54942
429,1436547656630,-7.3625,-6.25012,2.53529
430,1436547656650,-7.35959,-6.31575,2.5369
431,1436547656669,-7.3371,-6.34587,2.54367
432,1436547656689,-7.27954,-6.32483,2.57454
433,1436547656709,-7.28142,-6.36552,2.51045
434,1436547656727,-7.3058,-6.3795,2.53308
435,1436547656749,-7.29655,-6.30655,2.5015
436,1436547656785,-7.37483,-6.30815,2.47769
437,1436547656810,-7.35844,-6.26613,2.53923
438,1436547656828,-7.34302,-6.26215,2.55157
439,1436547656845,-7.33374,-6.2729,2.47128
440,1436547656867,-7.29924,-6.27356,2.48433
441,1436547656885,-7.36092,-6.25813,2.56563
442,1436547656907,-7.3492,-6.31934,2.61057
443,1436547656926,-7.34853,-6.29515,2.57814
444,1436547656945,-7.31862,-6.32735,2.5658
445,1436547656966,-7.32832,-6.23245,2.56416
446,1436547656986,-7.36177,-6.17722,2.57976
447,1436547657006,-7.44522,-6.17209,2.59921
448,1436547657026,-7.47192,-6.13815,2.53828
449,1436547657044,-7.38925,-6.1433,2.54501
450,1436547657065,-7.37857,-6.15305,2.53465
451,1436547657085,-7.41716,-6.05357,2.53241
452,1436547657105,-7.4646,-6.0679,2.52632
453,1436547657124,-7.47957,-6.04538,2.56326
454,1436547657143,-7.49026,-6.1143,2.58852
455,1436547657163,-7.48773,-6.10704,2.56042
456,1436547657184,-7.4655,-6.09042,2.55215
457,1436547657203,-7.47327,-5.98923,2.56174
458,1436547657224,-7.47641,-6.01898,2.52773
459,1436547657243,-7.42317,-6.12219,2.56978
