id,attr_time,attr_x,attr_y,attr_z
1,1436982010005,4.297592,8.625112,0.93852705
2,1436982010026,4.3101616,8.627506,0.96546185
3,1436982010045,4.305373,8.598776,0.90979666
4,1436982010065,4.301782,8.628104,0.92775315
5,1436982010087,4.320337,8.624513,0.9283517
6,1436982010104,4.2760444,8.624513,0.9528923
7,1436982010126,4.280234,8.623316,0.9451111
8,1436982010148,4.288614,8.608353,0.9271546
9,1436982010166,4.301183,8.620922,0.9576807
10,1436982010187,4.2640734,8.613739,0.93852705
11,1436982010208,4.279037,8.623316,0.91937345
12,1436982010225,4.2658687,8.64666,0.90740246
13,1436982010248,4.26946,8.640674,0.9271546
14,1436982010269,4.262876,8.62152,0.919972
15,1436982010287,4.259285,8.60117,0.9391256
16,1436982010306,4.2850223,8.610746,0.92057055
17,1436982010325,4.2664676,8.637681,0.94331545
18,1436982010344,4.2999864,8.647857,0.90979666
19,1436982010364,4.2754455,8.631097,0.9115923
20,1436982010389,4.2940006,8.587403,0.8798691
21,1436982010404,4.284424,8.592192,0.9235633
22,1436982010429,4.2999864,8.635885,0.94930094
23,1436982010447,4.3155484,8.649054,0.9247604
24,1436982010469,4.301782,8.617331,0.9211691
25,1436982010531,4.305373,8.567651,0.95109665
26,1436982010542,4.2622776,8.556278,0.91817635
27,1436982010544,4.2479124,8.6813755,0.9020155
28,1436982010545,4.2239704,8.668207,0.9552865
29,1436982010565,4.2999864,8.626907,0.93613285
30,1436982010587,4.361038,8.602366,0.8900445
31,1436982010604,4.346673,8.588001,0.8996213
32,1436982010624,4.2904096,8.580819,0.8972271
33,1436982010646,4.300585,8.598776,0.93613285
34,1436982010665,4.3221326,8.57184,0.9175778
35,1436982010685,4.350863,8.599973,0.9044097
36,1436982010704,4.362834,8.599973,0.9115923
37,1436982010725,4.3544545,8.594585,0.93014735
38,1436982010747,4.31076,8.571242,0.89603
39,1436982010767,4.270657,8.607754,0.92176765
40,1436982010786,4.2742486,8.63828,0.9211691
41,1436982010806,4.2730513,8.665813,0.9008184
42,1436982010826,4.2957964,8.616134,0.9032126
43,1436982010846,4.3077674,8.617331,0.8810662
44,1436982010867,4.268263,8.630499,0.8834604
45,1436982010886,4.284424,8.656237,0.92296475
46,1436982010906,4.259285,8.642469,0.91697925
47,1436982010927,4.31495,8.613739,0.91578215
48,1436982010945,4.3209357,8.574833,0.8750807
49,1436982010967,4.317344,8.583213,0.8738836
50,1436982010987,4.32333,8.598177,0.89662856
51,1436982011006,4.3275194,8.695142,0.9032126
52,1436982011024,4.3526587,8.7125,0.9091981
53,1436982011046,4.402937,8.613739,0.92775315
54,1436982011068,4.4035354,8.494029,0.8888474
55,1436982011086,4.3185415,8.550293,0.84575176
56,1436982011106,4.256292,8.626308,0.89064306
57,1436982011124,4.219182,8.6574335,0.90021986
58,1436982011146,4.2239704,8.632295,0.9295488
59,1436982011165,4.282628,8.561067,0.91458505
60,1436982011185,4.3305125,8.59279,0.88944596
61,1436982011205,4.309563,8.632295,0.8924387
62,1436982011269,4.295198,8.650849,0.89603
63,1436982011270,4.284424,8.590994,0.93254155
64,1436982011271,4.3287168,8.569447,0.89303726
65,1436982011310,4.3807907,8.613141,0.8888474
66,1436982011311,4.38917,8.590994,0.8900445
67,1436982011325,4.3448777,8.595782,0.88286185
68,1436982011345,4.3047748,8.572439,0.90021986
69,1436982011365,4.295198,8.613141,0.88765025
70,1436982011385,4.3275194,8.635287,0.87807345
71,1436982011405,4.3556514,8.564658,0.86370826
72,1436982011426,4.3155484,8.545505,0.9127894
73,1436982011445,4.289212,8.619724,0.8798691
74,1436982011466,4.2515035,8.684368,0.9211691
75,1436982011486,4.2383356,8.677185,0.98700964
76,1436982011507,4.283227,8.632893,0.97144735
77,1436982011528,4.357447,8.60117,0.9139865
78,1436982011545,4.3598413,8.583213,0.8631097
79,1436982011566,4.31495,8.6095495,0.84455466
80,1436982011588,4.331111,8.590994,0.9044097
81,1436982011608,4.3424835,8.583213,0.9247604
82,1436982011628,4.3640313,8.615535,0.9163807
83,1436982011645,4.361637,8.616134,0.9367314
84,1436982011666,4.3580456,8.589199,0.9091981
85,1436982011688,4.281431,8.546701,0.87687635
86,1436982011707,4.27365,8.631696,0.89423436
87,1436982011726,4.2730513,8.656237,0.90620536
88,1436982011746,4.283227,8.639477,0.919972
89,1436982011765,4.285621,8.57184,0.8726865
90,1436982011788,4.3047748,8.599973,0.8738836
91,1436982011806,4.2796354,8.622718,0.8846575
92,1436982011826,4.2718544,8.660426,0.931943
93,1436982011847,4.27365,8.6334915,0.943914
94,1436982011866,4.2730513,8.620323,0.8900445
95,1436982011888,4.332308,8.585009,0.9044097
96,1436982011908,4.301183,8.591593,0.89184016
97,1436982011928,4.293402,8.642469,0.89423436
98,1436982011948,4.270657,8.635287,0.8996213
99,1436982011968,4.305373,8.611345,0.92895025
100,1436982011990,4.279037,8.598177,0.9032126
101,1436982012047,4.2969937,8.626907,0.9451111
102,1436982012058,4.2610803,8.616134,0.8996213
103,1436982012059,4.2916064,8.66701,0.9032126
104,1436982012068,4.2880154,8.614338,0.943914
105,1436982012085,4.279037,8.636484,0.9103952
106,1436982012106,4.3077674,8.611345,0.94930094
107,1436982012125,4.286818,8.618527,0.9379285
108,1436982012146,4.2796354,8.649054,0.93373865
109,1436982012166,4.2658687,8.611943,0.93373865
110,1436982012186,4.2664676,8.612542,0.90740246
111,1436982012206,4.26527,8.627506,0.94690675
112,1436982012228,4.2969937,8.65025,0.93373865
113,1436982012247,4.3059716,8.626907,0.91219085
114,1436982012268,4.257489,8.586804,0.908001
115,1436982012285,4.2515035,8.620323,0.88286185
116,1436982012311,4.2263646,8.670602,0.9127894
117,1436982012325,4.279037,8.696339,0.9163807
118,1436982012346,4.244321,8.579621,0.93852705
119,1436982012366,4.2251673,8.628104,0.8972271
120,1436982012387,4.2155905,8.6712,0.93493575
121,1436982012409,4.2479124,8.701726,0.9756372
122,1436982012426,4.26946,8.66282,0.9271546
123,1436982012453,4.259285,8.573038,0.8810662
124,1436982012466,4.2538977,8.652046,0.8996213
125,1436982012486,4.2461166,8.639477,0.95468795
126,1436982012508,4.2640734,8.650849,0.9427169
127,1436982012526,4.245518,8.597578,0.91458505
128,1436982012546,4.24492,8.6496525,0.88166475
129,1436982012569,4.282628,8.676587,0.98940384
130,1436982012586,4.2700586,8.624513,0.93134445
131,1436982012606,4.249708,8.572439,0.8846575
132,1436982012626,4.214992,8.606557,0.8882488
133,1436982012649,4.2281604,8.664616,0.91458505
134,1436982012667,4.2293572,8.68796,0.9391256
135,1436982012687,4.262876,8.656835,0.9163807
136,1436982012713,4.261679,8.620922,0.908001
137,1436982012768,4.2239704,8.640674,0.9283517
138,1436982012769,4.1922474,8.660426,0.9259575
139,1436982012770,4.2012253,8.670602,0.9283517
140,1436982012790,4.225766,8.623316,0.9259575
141,1436982012810,4.247314,8.652046,0.9187749
142,1436982012834,4.2538977,8.604162,0.9355343
143,1436982012846,4.2538977,8.62152,0.92057055
144,1436982012867,4.245518,8.6095495,0.9624691
145,1436982012889,4.207211,8.671799,0.96306765
146,1436982012907,4.2155905,8.664018,0.95349085
147,1436982012928,4.2521024,8.636484,0.9139865
148,1436982012947,4.2263646,8.585608,0.8702923
149,1436982012967,4.2221746,8.661623,0.90620536
150,1436982012989,4.209605,8.690353,0.9900024
151,1436982013009,4.209605,8.69155,0.97025025
152,1436982013028,4.2341456,8.650849,0.9600749
153,1436982013049,4.238934,8.585009,0.91219085
154,1436982013066,4.23235,8.613739,0.931943
155,1436982013088,4.2419267,8.690353,0.9271546
156,1436982013109,4.250905,8.69993,0.8972271
157,1436982013130,4.1892543,8.645462,0.9068039
158,1436982013148,4.1425676,8.630499,0.9403227
159,1436982013169,4.1695023,8.677784,0.94092125
160,1436982013190,4.234744,8.716091,0.92535895
161,1436982013208,4.2461166,8.629301,0.93134445
162,1436982013231,4.176685,8.558673,0.91458505
163,1436982013250,4.174889,8.673594,0.9355343
164,1436982014819,4.183269,8.760384,0.95468795
165,1436982014820,4.1802764,8.635885,0.9900024
166,1436982014821,4.19943,8.602366,0.9163807
167,1436982014822,4.1916485,8.646061,0.8882488
168,1436982014823,4.2155905,8.673594,0.9403227
169,1436982014824,4.247314,8.695142,0.96426475
170,1436982014825,4.221576,8.593987,0.94211835
171,1436982014826,4.19105,8.602366,0.88405895
172,1436982014827,4.224569,8.668806,0.90620536
173,1436982014828,4.2461166,8.681973,0.98700964
174,1436982014829,4.2173862,8.6299,0.8996213
175,1436982014830,4.1922474,8.670602,0.8900445
176,1436982014831,4.1677065,8.6712,0.90620536
177,1436982014832,4.1796775,8.674791,0.9295488
178,1436982014833,4.2395325,8.66701,0.90381116
179,1436982014834,4.2395325,8.634089,0.9163807
180,1436982014835,4.2491093,8.663419,0.93373865
181,1436982014836,4.219182,8.626907,0.90261406
182,1436982014837,4.211401,8.670003,0.90859956
183,1436982014838,4.223372,8.667608,0.9415198
184,1436982014839,4.211401,8.613739,0.91099375
185,1436982014840,4.238934,8.625112,0.9127894
186,1436982014841,4.226963,8.659827,0.8996213
187,1436982014842,4.226963,8.661623,0.9056068
188,1436982014843,4.1814733,8.644265,0.91697925
189,1436982014844,4.1276035,8.641273,0.89782566
190,1436982014845,4.1419687,8.676587,0.92895025
191,1436982014846,4.1892543,8.717288,0.91937345
192,1436982014847,4.1802764,8.664018,0.89064306
193,1436982014848,4.156933,8.698733,0.88525605
194,1436982014849,4.183269,8.709507,0.90381116
195,1436982014850,4.161721,8.686164,0.90141696
196,1436982014851,4.1599255,8.668207,0.8972271
197,1436982014852,4.203021,8.731653,0.8984242
198,1436982014853,4.2515035,8.707711,0.89782566
199,1436982014854,4.2221746,8.592192,0.87927055
200,1436982014855,4.223372,8.574833,0.82121116
201,1436982014856,4.243124,8.640076,0.8858546
202,1436982014857,4.220978,8.632295,0.94570965
203,1436982014858,4.2251673,8.682572,0.9056068
204,1436982014859,4.268862,8.711902,0.87567925
205,1436982014860,4.2754455,8.617929,0.8948329
206,1436982014861,4.203021,8.561666,0.90141696
207,1436982014862,4.185065,8.677185,0.88525605
208,1436982014863,4.146757,8.687361,0.97264445
209,1436982014864,4.1401734,8.704121,1.033098
210,1436982014865,4.196437,8.705916,0.9684546
211,1436982014866,4.167108,8.628104,0.89064306
212,1436982014867,4.172495,8.624513,0.88405895
213,1436982014868,4.1539397,8.656237,0.95349085
214,1436982014869,4.1611223,8.714295,0.9708488
215,1436982014870,4.1641154,8.681973,0.94690675
216,1436982014871,4.175488,8.628703,0.92176765
217,1436982014872,4.185663,8.620323,0.9624691
218,1436982014873,4.132392,8.717887,0.95708215
219,1436982014874,4.1156325,8.729858,0.98581254
220,1436982014875,4.100669,8.693346,0.9780314
221,1436982014876,4.14975,8.670003,0.9600749
222,1436982014877,4.1425676,8.623915,0.94930094
223,1436982014878,4.1437645,8.690353,0.92416185
224,1436982014879,4.1659107,8.684967,0.9995792
225,1436982014880,4.1317935,8.647857,0.9684546
226,1436982014881,4.1437645,8.702923,0.97144735
227,1436982014882,4.1461587,8.685565,0.97862995
228,1436982014883,4.1623197,8.648455,0.97025025
229,1436982014884,4.1258082,8.665813,0.9780314
230,1436982014885,4.1174283,8.704719,0.9792285
231,1436982014886,4.146757,8.711303,0.9947908
232,1436982014887,4.1437645,8.690952,1.0241197
233,1436982014888,4.140772,8.664616,0.98341835
234,1436982014889,4.1611223,8.635885,1.0001777
235,1436982014890,4.1557355,8.624513,0.9840169
236,1436982014891,4.1539397,8.670003,0.9816227
237,1436982014892,4.162918,8.723872,1.021127
238,1436982014893,4.172495,8.664018,1.0271125
239,1436982014894,4.1599255,8.610147,0.99778354
240,1436982014895,4.2012253,8.684967,1.0253168
241,1436982014896,4.19105,8.663419,1.0366893
242,1436982014897,4.1916485,8.631696,0.99778354
243,1436982014898,4.233547,8.652046,1.01574
244,1436982014899,4.222773,8.545505,1.0336965
245,1436982014900,4.2143936,8.613141,1.0019734
246,1436982014907,4.173094,8.639477,1.055843
247,1436982014927,4.0521865,8.653243,1.1605892
248,1436982014947,4.074931,8.740632,1.1450269
249,1436982014967,4.0934863,8.738237,1.1180922
250,1436982014988,4.073136,8.659229,1.1258733
251,1436982015007,4.055179,8.656237,1.1492168
252,1436982015027,4.10845,8.6496525,1.1923125
253,1436982015047,4.1018662,8.649054,1.1785458
254,1436982015067,4.11683,8.640076,1.1821371
255,1436982015089,4.1282024,8.588001,1.2114661
256,1436982015108,4.084508,8.631696,1.1288661
257,1436982015131,4.0617633,8.6813755,1.2018893
258,1436982015149,4.0462008,8.666411,1.2503718
259,1436982015171,4.095282,8.647258,1.2138603
260,1436982015191,4.109049,8.520366,1.1923125
261,1436982015211,4.0557775,8.628104,1.0929531
262,1436982015231,3.99293,8.736442,1.2030864
263,1436982015250,3.9636009,8.75799,1.3006501
264,1436982015272,4.021062,8.7532015,1.2485762
265,1436982015292,4.097078,8.647857,1.1198878
266,1436982015312,4.1539397,8.6334915,1.1109096
267,1436982015332,4.2305546,8.55987,1.1623849
268,1436982015351,4.192846,8.476072,1.1659763
269,1436982015371,4.192846,8.622119,1.122282
270,1436982015429,4.18686,8.656835,1.2797008
271,1436982015442,4.2161894,8.622119,1.1857284
272,1436982015443,4.2461166,8.584411,1.2174516
273,1436982015456,4.1940427,8.488044,1.0630256
274,1436982015479,4.10845,8.459911,1.0684125
275,1436982015492,4.0396166,8.595782,0.98700964
276,1436982015508,4.1701007,8.734647,1.0121487
277,1436982015529,4.4448357,8.89805,1.0761937
278,1436982015548,4.4993033,8.678383,1.1073183
279,1436982015570,4.4167037,8.39886,1.0737995
280,1436982015595,4.2161894,8.261193,1.0426749
281,1436982015609,4.127005,8.454525,0.96426475
282,1436982015631,4.039018,8.522161,0.94570965
283,1436982015652,4.0426097,8.656835,0.8631097
284,1436982015672,4.1533413,8.612542,0.8283938
285,1436982015692,4.1718965,8.542512,0.7428011
286,1436982015710,4.2730513,8.590994,0.6997054
287,1436982015732,4.343082,8.516774,0.8206126
288,1436982015752,4.309563,8.394072,0.90859956
289,1436982015772,4.2503066,8.412027,0.9684546
290,1436982015792,4.189853,8.529344,0.9379285
291,1436982015812,4.0743327,8.606557,0.92057055
292,1436982015831,4.0521865,8.744822,0.82121116
293,1436982015852,4.1653123,8.8328085,0.7529764
294,1436982015869,4.3406878,8.790312,0.8355764
295,1436982015891,4.359243,8.617331,0.7787141
296,1436982015909,4.0815153,8.3551655,0.45130703
297,1436982015934,3.685275,8.316858,0.25019407
298,1436982015955,3.435081,8.626907,0.038905777
299,1436982015975,3.465607,9.15842,-0.01616086
300,1436982015992,3.6966474,9.594764,0.31543607
301,1436982016009,3.9707835,9.1829605,0.20231004
302,1436982016029,4.2060137,8.902241,0.5231331
303,1436982016050,4.1395745,8.567052,0.6027403
304,1436982016072,3.6727054,8.486847,-0.09636662
305,1436982016089,3.459023,9.062054,0.3321955
306,1436982016142,3.3883939,9.522339,0.45250413
307,1436982016143,3.620033,9.194333,-0.037110128
308,1436982016161,3.8271315,8.58022,0.22984336
309,1436982016169,3.8774097,8.282143,0.030526072
310,1436982016198,3.8001966,8.513782,-0.1400608
311,1436982016212,3.7044287,9.039907,-0.046088383
312,1436982016229,3.678691,8.956709,0.25617957
313,1436982016249,3.8672342,8.699332,0.2825158
314,1436982016269,3.8145618,8.631696,0.05746084
315,1436982016292,3.762488,8.535329,-0.0053869537
316,1436982016310,3.5182793,8.438962,-0.05207389
317,1436982016329,3.247136,8.482059,-0.15143326
318,1436982016354,3.1370027,8.838196,0.1400608
319,1436982016373,3.2620997,9.2787285,0.045489833
320,1436982016393,3.4596214,9.41041,0.076015905
321,1436982016413,3.7134068,9.455899,0.39683893
322,1436982016433,3.5344403,9.136872,0.5770026
323,1436982016453,3.2860417,9.306262,0.5955577
324,1436982016473,3.1250317,9.484032,0.45130703
325,1436982016493,3.1435869,9.435549,0.8110358
326,1436982016513,3.5571852,9.619903,1.0307038
327,1436982016533,3.7313633,9.630676,1.027711
328,1436982016587,3.37762,10.011354,0.30226797
329,1436982016588,3.1717186,10.899005,-1.0785879
330,1436982016592,3.5613751,11.01632,-1.8010383
331,1436982016613,3.6499605,8.634089,-0.59376204
332,1436982016634,4.8123455,7.091625,0.99898064
333,1436982016654,5.957372,6.944382,2.473809
334,1436982016673,7.0610995,7.89907,3.2489316
335,1436982016694,7.191583,9.381081,3.739743
336,1436982016713,7.005434,11.216236,0.6147113
337,1436982016732,6.2099605,11.66515,-2.3092074
338,1436982016753,4.1802764,11.675324,1.1330559
339,1436982016774,3.6134489,12.898762,3.6978445
340,1436982016794,3.6882677,15.18283,5.549161
341,1436982016813,4.8338933,15.248072,3.9474401
342,1436982016838,5.026028,11.108498,3.027468
343,1436982016896,3.3464954,8.845977,3.9390604
344,1436982016897,1.2108675,7.833828,2.6509798
345,1436982016908,-0.29807812,7.57286,1.5215151
346,1436982016915,-1.429937,7.3591776,1.7292122
347,1436982016932,-1.8489223,7.3843164,2.8149827
348,1436982016953,-2.1296425,7.3537903,2.7263973
349,1436982016970,-2.3127987,6.5744777,1.3395559
350,1436982016995,-1.508347,5.3887496,-0.7272388
351,1436982017012,-0.9947908,4.267066,-1.8100165
352,1436982017032,-1.2228385,2.944868,-0.5243302
353,1436982017051,-1.5334862,0.9211691,1.8010383
354,1436982017071,-0.5315128,-0.61530983,1.3790601
355,1436982017094,2.5701754,0.5327099,-0.30885202
356,1436982017114,9.31524,11.726201,6.777985
357,1436982017133,19.26255,19.528307,0.59256494
358,1436982017152,13.178285,17.086819,3.8031895
359,1436982017173,2.697667,8.084022,1.2240356
360,1436982017194,1.4802152,6.6564794,-3.2980127
361,1436982017214,2.4049757,6.854001,-5.45878
362,1436982017234,4.5567646,8.558074,-1.240795
363,1436982017254,9.23264,15.502456,3.0005333
364,1436982017273,7.474099,18.350958,9.045294
365,1436982017291,-0.8583213,17.030556,0.27473465
366,1436982017314,-3.681085,13.734937,-0.5303157
367,1436982017334,2.3720553,12.975376,0.58119243
368,1436982017354,5.01705,11.508329,3.153762
369,1436982017373,3.1411927,12.676101,5.685032
370,1436982017395,4.1156325,12.039842,2.8604724
371,1436982017413,3.4644098,9.573814,1.9686323
372,1436982017434,1.4341269,6.4392056,0.21667525
373,1436982017455,0.28431144,3.3967736,-1.8100165
374,1436982017471,-0.59495914,1.146224,-2.0099323
375,1436982017493,-0.47764325,-0.34237084,-1.5664065
376,1436982017513,-0.48482585,-1.0342951,-1.6645688
377,1436982017532,0.077213004,0.034715924,0.6853402
378,1436982017551,3.0310593,6.029797,4.815338
379,1436982017618,6.8007298,13.03583,0.92176765
380,1436982017619,14.614806,19.54327,2.31639
381,1436982017631,15.468937,19.608511,1.6609775
382,1436982017632,12.776059,19.589357,11.845313
383,1436982017651,5.81372,14.251486,3.9306808
384,1436982017672,5.878962,13.949218,6.108207
385,1436982017692,3.2309752,13.2985935,4.277241
386,1436982017711,-0.80564886,11.628039,0.44771573
387,1436982017732,-1.1282675,10.129868,1.5927427
388,1436982017752,-1.6436194,7.8912888,2.795829
389,1436982017771,-2.818574,5.3396683,4.4184995
390,1436982017792,-2.566584,4.7022123,0.33877954
391,1436982017814,-1.7663223,3.7594953,-3.4237084
392,1436982017834,-1.5526398,1.4670471,-3.513491
393,1436982017854,-0.9451111,-1.7010803,-1.501763
394,1436982017874,-0.5363012,-3.7373488,3.0071173
395,1436982017893,2.2984335,-3.2878375,4.271256
396,1436982017914,2.759916,-0.65660983,1.970428
397,1436982017934,6.381745,5.020641,1.4335283
398,1436982017954,12.066776,12.275671,-0.943914
399,1436982017974,16.781559,19.608511,9.877279
400,1436982017991,4.987122,18.614319,-2.110489
401,1436982018012,-0.7906851,10.703877,-7.7943234
402,1436982018032,0.94570965,7.3448124,-7.119757
403,1436982018054,3.3961751,8.512584,-2.3187842
404,1436982018074,11.204864,17.435774,6.6079965
405,1436982018093,7.97748,19.608511,8.39886
406,1436982018113,-3.530849,17.176601,0.2777274
407,1436982018134,-1.1683705,12.16853,2.9652188
408,1436982018153,4.313154,10.565014,-0.5243302
409,1436982018175,4.619014,11.227609,2.1332338
410,1436982018195,4.3239284,12.645575,5.5192337
411,1436982018213,3.196858,8.801684,1.3928268
412,1436982018234,0.05327099,4.5920787,-2.0033484
413,1436982018255,-1.8620903,1.246182,-1.7280151
414,1436982018272,-2.3133974,-0.33877954,-0.2825158
415,1436982018294,-1.9901801,-0.08319851,-0.60812724
416,1436982018364,-1.4173675,0.03172317,-1.5167267
417,1436982018365,-0.4950012,0.64942724,1.228824
418,1436982018366,3.6822822,6.563704,4.69084
419,1436982018371,6.3697734,12.443265,-2.3241713
420,1436982018391,11.930905,19.562424,4.7626657
421,1436982018416,14.089877,19.608511,5.903503
422,1436982018432,16.185402,19.608511,12.002133
423,1436982018453,10.373477,17.714699,4.279037
424,1436982018481,5.390545,13.38658,3.8552632
425,1436982018513,4.197036,11.960235,3.887585
