id,attr_time,attr_x,attr_y,attr_z
1,1436293824046,0.12517427,-0.0007702317,0.043703444
2,1436293824067,0.1254797,-0.011765805,0.04523061
3,1436293824088,0.13036662,-0.011460372,0.04064912
4,1436293824104,0.13158835,-0.016041862,0.037900224
5,1436293824124,0.126396,-0.017569024,0.031791575
6,1436293824148,0.11967648,-0.018790755,0.03362417
7,1436293824167,0.11937105,-0.011460372,0.040954553
8,1436293824187,0.11967648,-0.0074897483,0.045841474
9,1436293824207,0.12089821,-0.01695816,0.041259985
10,1436293824227,0.120287344,-0.012376671,0.035456765
11,1436293824246,0.11967648,-0.012376671,0.030569844
12,1436293824265,0.12609057,-0.009627777,0.025377488
13,1436293824287,0.106848314,-0.0074897483,0.03728936
14,1436293824307,0.11295696,0.0007569324,0.04645234
15,1436293824328,0.11814932,0.005338421,0.047063205
16,1436293824346,0.13372639,-0.0038245562,0.0488958
17,1436293824370,0.13464268,-0.008100614,0.040954553
18,1436293824435,0.13128293,-0.014209266,0.038816523
19,1436293824436,0.12975577,-0.002297394,0.042481713
20,1436293824437,0.12364711,0.0019786619,0.047674067
21,1436293824445,0.13128293,0.016028564,0.053477287
22,1436293824474,0.12578513,0.019999187,0.04523061
23,1436293824486,0.11723302,0.020915486,0.03942739
24,1436293824504,0.11723302,0.007476449,0.037594795
25,1436293824526,0.1300612,0.0010623652,0.040038254
26,1436293824544,0.12670143,0.0025895275,0.037900224
27,1436293824567,0.119981915,-0.0026028268,0.03973282
28,1436293824593,0.112651534,-0.0016865283,0.040343687
29,1436293824614,0.11295696,-0.0019919612,0.04064912
30,1436293824630,0.11295696,0.0025895275,0.03973282
31,1436293824644,0.115705855,0.0065601524,0.04156542
32,1436293824667,0.12089821,0.0047275573,0.040038254
33,1436293824687,0.12700686,0.0019786619,0.03942739
34,1436293824707,0.13097748,-0.0038245562,0.03973282
35,1436293824727,0.12883946,-0.0050462876,0.043398015
36,1436293824747,0.13189378,-0.0047408547,0.038816523
37,1436293824766,0.1300612,-0.005962586,0.03148614
38,1436293824787,0.121509075,-0.01115494,0.029958978
39,1436293824807,0.12181451,-0.010544075,0.030875277
40,1436293824825,0.11906561,-0.004435422,0.027820949
41,1436293824846,0.11478956,-0.0032136925,0.027820949
42,1436293824866,0.108070046,-0.0019919612,0.027820949
43,1436293824897,0.102572255,-0.009933209,0.030264411
44,1436293824904,0.11784389,-0.01817989,0.028126381
45,1436293824924,0.12578513,-0.020928783,0.031180708
46,1436293824946,0.13800244,-0.02642657,0.033318736
47,1436293824967,0.14014047,-0.028564598,0.034540467
48,1436293824987,0.13983503,-0.023066813,0.03362417
49,1436293825008,0.13250466,-0.009933209,0.029958978
50,1436293825027,0.1273123,0.008087315,0.03148614
51,1436293825045,0.13250466,0.0145014,0.036678497
52,1436293825065,0.12792316,0.017861158,0.036678497
53,1436293825084,0.12364711,0.0145014,0.03698393
54,1436293825176,0.11662216,0.005643854,0.034235034
55,1436293825177,0.11937105,-0.004129989,0.03270787
56,1436293825178,0.11937105,-0.007795181,0.032097004
57,1436293825179,0.121509075,-0.00657345,0.037900224
58,1436293825187,0.112651534,-0.010238642,0.037900224
59,1436293825205,0.11204067,-0.0050462876,0.03606763
60,1436293825225,0.11295696,-0.0068788826,0.036373064
61,1436293825245,0.114484124,0.0032003932,0.037900224
62,1436293825268,0.121509075,0.008087315,0.03820566
63,1436293825285,0.11631672,0.0032003932,0.042176284
64,1436293825305,0.120287344,0.0038112588,0.04523061
65,1436293825328,0.12609057,-0.013292968,0.049506664
66,1436293825345,0.1254797,-0.018790755,0.04278715
67,1436293825369,0.1300612,-0.022150515,0.032097004
68,1436293825387,0.118454754,-0.012987535,0.02659922
69,1436293825408,0.12822859,0.005338421,0.025072055
70,1436293825428,0.13219921,0.0019786619,0.024766624
71,1436293825448,0.12822859,0.0022840947,0.015603645
72,1436293825469,0.12425797,0.0044221245,0.019268837
73,1436293825487,0.10776461,0.0025895275,0.025988353
74,1436293825508,0.097074464,-0.005657153,0.023544893
75,1436293825528,0.10532115,-0.013292968,0.022628594
76,1436293825549,0.119981915,-0.015125564,0.022628594
77,1436293825584,0.12792316,-0.024288543,0.021712298
78,1436293825585,0.12700686,-0.028564598,0.024155758
79,1436293825606,0.120287344,-0.015430997,0.026293786
80,1436293825625,0.11753845,0.003505826,0.030875277
81,1436293825645,0.11295696,0.016333997,0.023544893
82,1436293825665,0.118454754,0.022137217,0.03148614
83,1436293825690,0.12609057,0.027024139,0.037594795
84,1436293825711,0.114178695,0.014195967,0.040038254
85,1436293825731,0.11204067,0.005643854,0.038816523
86,1436293825748,0.121509075,0.0068655834,0.03698393
87,1436293825765,0.11387326,0.0019786619,0.034235034
88,1436293825785,0.11081894,-0.0010756627,0.02904268
89,1436293825805,0.10776461,0.0019786619,0.021712298
90,1436293825826,0.10501572,0.0032003932,0.008273262
91,1436293825845,0.112651534,0.012668803,0.015298212
92,1436293825919,0.11478956,0.014806833,0.031180708
93,1436293825920,0.11295696,0.01816659,0.042176284
94,1436293825921,0.118454754,0.007171016,0.04645234
95,1436293825928,0.12211994,-0.00015936606,0.04523061
96,1436293825945,0.12273081,-0.0074897483,0.04156542
97,1436293825969,0.126396,-0.0071843155,0.04523061
98,1436293825985,0.11784389,-0.007795181,0.04431431
99,1436293826005,0.11173523,-0.0050462876,0.043703444
100,1436293826028,0.108680904,-0.005962586,0.04309258
101,1436293826047,0.11478956,-0.008100614,0.040954553
102,1436293826066,0.1123461,-0.0090169115,0.039121956
103,1436293826086,0.10776461,-0.013903834,0.042481713
104,1436293826107,0.097074464,-0.014209266,0.039121956
105,1436293826126,0.09585273,-0.02398311,0.03973282
106,1436293826149,0.11081894,-0.028564598,0.041870847
107,1436293826169,0.12883946,-0.028564598,0.044925176
108,1436293826186,0.13922417,-0.030091763,0.040038254
109,1436293826235,0.14747085,-0.029480897,0.024461191
110,1436293826236,0.1431948,-0.022455947,0.016519941
111,1436293826247,0.13036662,-0.0090169115,0.0046080705
112,1436293826269,0.11814932,0.0123633705,0.009494992
113,1436293826291,0.12700686,0.038019713,0.015603645
114,1436293826372,0.12273081,0.037408847,0.023544893
115,1436293826373,0.12181451,0.031605627,0.02904268
116,1436293826374,0.11753845,0.017555725,0.026904652
117,1436293826375,0.12395254,0.010530777,0.039121956
118,1436293826388,0.11662216,0.009309046,0.043703444
119,1436293826408,0.10471028,0.013890535,0.046146907
120,1436293826428,0.10715374,0.01083621,0.04400888
121,1436293826448,0.10898634,0.0123633705,0.040954553
122,1436293826468,0.11204067,0.016333997,0.03362417
123,1436293826489,0.120287344,0.021220919,0.040038254
124,1436293826507,0.11081894,0.030383896,0.044619743
125,1436293826528,0.0992125,0.035881683,0.04645234
126,1436293826552,0.09279841,0.041684907,0.043398015
127,1436293826573,0.09127125,0.046571825,0.037594795
128,1436293826591,0.09890706,0.047488127,0.039121956
129,1436293826707,0.11876018,0.041684907,0.039121956
130,1436293826708,0.13128293,0.03404909,0.042176284
131,1436293826709,0.12945032,0.017555725,0.04064912
132,1436293826710,0.13433725,0.014806833,0.03728936
133,1436293826711,0.14105676,0.0145014,0.041870847
134,1436293826712,0.13433725,0.020610053,0.03942739
135,1436293826728,0.12211994,0.030383896,0.034540467
136,1436293826747,0.11173523,0.041684907,0.041259985
137,1436293826766,0.11631672,0.041684907,0.039121956
138,1436293826787,0.1273123,0.038019713,0.04156542
139,1436293826811,0.13311552,0.024886109,0.035151333
140,1436293826827,0.12822859,0.012974236,0.034540467
141,1436293826853,0.12883946,0.005643854,0.03270787
142,1436293826867,0.12670143,0.0050329883,0.033013303
143,1436293826888,0.120287344,0.009003613,0.024155758
144,1436293826909,0.120287344,0.011141643,0.02659922
145,1436293826926,0.10929177,0.015723132,0.0198797
146,1436293826948,0.09890706,0.021220919,0.010716722
147,1436293826969,0.09890706,0.018472023,0.014687346
148,1436293826989,0.10196139,0.013890535,0.022628594
149,1436293827009,0.108070046,0.0065601524,0.027515516
150,1436293827026,0.11020807,-0.005962586,0.03606763
151,1436293827048,0.11906561,-0.009322344,0.04400888
152,1436293827069,0.120287344,-0.0108495075,0.049506664
153,1436293827088,0.11753845,-0.011460372,0.051950127
154,1436293827109,0.10929177,0.0004514996,0.05469902
155,1436293827127,0.11081894,0.005338421,0.059585944
156,1436293827149,0.10929177,0.009919912,0.053477287
157,1436293827168,0.10776461,0.0065601524,0.04278715
158,1436293827188,0.115400426,-0.0050462876,0.035456765
159,1436293827209,0.10929177,-0.006268019,0.026293786
160,1436293827231,0.114484124,-0.0050462876,0.02201773
161,1436293827248,0.114178695,-0.005962586,0.0198797
162,1436293827270,0.109902635,-0.002297394,0.024155758
163,1436293827290,0.11814932,0.0013677981,0.021101432
164,1436293827307,0.11387326,0.011141643,0.011938453
165,1436293827327,0.10165596,0.018777456,0.0033863392
166,1436293827357,0.09249298,0.016944863,0.007356964
167,1436293827429,0.08760606,0.015112266,0.016519941
168,1436293827430,0.10165596,0.01663943,0.041870847
169,1436293827431,0.10501572,0.005643854,0.050728396
170,1436293827432,0.11478956,0.0010623652,0.05133926
171,1436293827448,0.11204067,0.0016732309,0.04736864
172,1436293827471,0.10287769,0.0010623652,0.042176284
173,1436293827487,0.08882779,0.010530777,0.027515516
174,1436293827507,0.084857166,0.019082889,0.01743624
175,1436293827529,0.085468024,0.010225344,0.0058298
176,1436293827551,0.084857166,0.0050329883,0.007051531
177,1436293827568,0.080581106,-0.011460372,0.010105858
178,1436293827593,0.08699519,-0.028870031,0.013465616
179,1436293827609,0.095241874,-0.031618927,0.016825374
180,1436293827628,0.096463606,-0.024288543,0.03148614
181,1436293827648,0.09890706,-0.016041862,0.043398015
182,1436293827668,0.09890706,-0.009933209,0.04859037
183,1436293827690,0.10593201,-0.008100614,0.048284933
184,1436293827710,0.11173523,0.0004514996,0.052560993
185,1436293827730,0.11173523,-0.0013810955,0.055309884
186,1436293827747,0.112651534,-0.0013810955,0.053477287
187,1436293827768,0.11387326,-0.006268019,0.05225556
188,1436293827790,0.12089821,-0.012376671,0.04523061
189,1436293827810,0.12211994,-0.010544075,0.040343687
190,1436293827829,0.120287344,-0.014209266,0.03240244
191,1436293827847,0.114178695,-0.015736429,0.032097004
192,1436293827867,0.11112437,-0.011460372,0.036678497
193,1436293827888,0.1123461,-0.015125564,0.032097004
194,1436293827910,0.108375475,-0.008406047,0.031791575
195,1436293827928,0.10135052,-0.0074897483,0.03148614
196,1436293827951,0.09340928,-0.0068788826,0.031180708
197,1436293827969,0.09890706,-0.005657153,0.024461191
198,1436293827988,0.11204067,-0.014514699,0.02201773
199,1436293828010,0.12486884,-0.013598401,0.0198797
200,1436293828030,0.126396,-0.02031792,0.021406865
201,1436293828048,0.12334167,-0.025815707,0.023544893
202,1436293828067,0.11356783,-0.0148201315,0.03148614
203,1436293828098,0.10501572,0.009309046,0.03148614
204,1436293828173,0.109597206,0.019388322,0.03606763
205,1436293828174,0.11723302,0.025191542,0.05317186
206,1436293828175,0.12242538,0.024886109,0.05469902
207,1436293828176,0.1123461,0.013585102,0.05011753
208,1436293828187,0.11356783,0.0025895275,0.03973282
209,1436293828209,0.11081894,-0.0050462876,0.031791575
210,1436293828230,0.10715374,-0.010544075,0.022628594
211,1436293828247,0.10898634,-0.014209266,0.016214509
212,1436293828268,0.115400426,-0.007795181,0.015909078
213,1436293828287,0.112651534,-0.0050462876,0.022323161
214,1436293828313,0.10562658,-0.009933209,0.032097004
215,1436293828330,0.101045094,-0.004129989,0.041870847
216,1436293828349,0.10715374,0.0041166916,0.04278715
217,1436293828369,0.12211994,0.003505826,0.04736864
218,1436293828388,0.12945032,-0.0010756627,0.053477287
219,1436293828411,0.13830787,-0.014209266,0.057447914
220,1436293828431,0.13739157,-0.01817989,0.055615317
221,1436293828448,0.1300612,-0.026732003,0.045841474
222,1436293828469,0.126396,-0.029175464,0.040954553
223,1436293828488,0.13097748,-0.03558955,0.024461191
224,1436293828508,0.12853403,-0.041087337,0.018352538
225,1436293828531,0.11295696,-0.041698202,0.016519941
226,1436293828551,0.10165596,-0.034062386,0.022323161
227,1436293828576,0.096769035,-0.03925474,0.025377488
228,1436293828594,0.10073966,-0.04475253,0.02659922
229,1436293828608,0.11478956,-0.053610075,0.03362417
230,1436293828631,0.12211994,-0.06521651,0.027210085
231,1436293828649,0.12914489,-0.067354545,0.02568292
232,1436293828668,0.12670143,-0.05788613,0.029348113
233,1436293828691,0.11631672,-0.04505796,0.023544893
234,1436293828708,0.114484124,-0.027953735,0.023850325
235,1436293828731,0.12883946,-0.017263591,0.02659922
236,1436293828751,0.13250466,-0.01817989,0.032097004
237,1436293828769,0.11967648,-0.020012487,0.04278715
238,1436293828789,0.12364711,-0.019096188,0.04645234
239,1436293828808,0.12578513,-0.019401621,0.03851109
240,1436293828838,0.13311552,-0.019401621,0.028737247
241,1436293828894,0.12334167,-0.012071238,0.015909078
242,1436293828895,0.12059278,-0.0029082596,0.007967829
243,1436293828896,0.121203646,0.0050329883,0.009189559
244,1436293828913,0.12517427,0.009919912,0.015298212
245,1436293828930,0.13158835,0.012668803,0.02659922
246,1436293828948,0.14075133,0.007781882,0.0357622
247,1436293828971,0.14136219,0.0007569324,0.033318736
248,1436293828988,0.1358644,-0.0013810955,0.040038254
249,1436293829011,0.1404459,-0.0029082596,0.0488958
250,1436293829029,0.14869258,-0.0068788826,0.05500445
251,1436293829049,0.14869258,-0.008100614,0.05928051
252,1436293829073,0.13739157,-0.0032136925,0.054088153
253,1436293829089,0.13616985,-0.005962586,0.045841474
254,1436293829110,0.13830787,-0.00871148,0.0348459
255,1436293829130,0.12700686,-0.0071843155,0.03698393
256,1436293829151,0.13250466,-0.004435422,0.0348459
257,1436293829169,0.12273081,-0.017874457,0.040038254
258,1436293829190,0.12975577,-0.02276138,0.03698393
259,1436293829212,0.12242538,-0.035894983,0.028126381
260,1436293829231,0.1123461,-0.041087337,0.0067460984
261,1436293829249,0.10226682,-0.027037436,0.016825374
262,1436293829272,0.08791149,-0.015736429,0.034235034
263,1436293829289,0.0543139,0.0025895275,0.06355657
264,1436293829313,0.016440257,0.030078463,0.072719544
265,1436293829333,0.045761786,0.09208129,0.09684872
266,1436293829353,0.108375475,0.15530583,0.07485758
267,1436293829373,0.08302457,0.15133521,0.009800425
268,1436293829392,0.08119197,0.09085956,-0.056783885
269,1436293829411,0.07538875,-0.03192436,-0.098628156
270,1436293829430,0.10348855,-0.1259976,-0.043344855
271,1436293829449,0.109902635,-0.17975375,-0.03051668
272,1436293829468,0.114484124,-0.18922216,-0.03479274
273,1436293829493,0.10348855,-0.17608856,-0.047926344
274,1436293829514,0.10501572,-0.14859962,-0.04120682
275,1436293829536,0.11723302,-0.12233241,-0.019826539
276,1436293829552,0.12089821,-0.09270544,-0.027156923
277,1436293829656,0.11204067,-0.06979801,-0.027767789
278,1436293829657,0.08180284,-0.04933402,0.03698393
279,1436293829658,0.10348855,-0.012376671,0.102957375
280,1436293829659,0.086689755,0.022137217,0.07607931
281,1436293829660,0.10562658,0.056651104,0.05225556
282,1436293829692,0.121509075,0.07986398,0.041870847
283,1436293829693,0.1349481,0.08169657,0.044925176
284,1436293829711,0.14869258,0.053902205,0.03973282
285,1436293829729,0.13739157,0.009614479,0.043703444
286,1436293829755,0.11692759,-0.04139277,0.0348459
287,1436293829769,0.11692759,-0.063078485,0.046757773
288,1436293829790,0.12792316,-0.07193603,0.05133926
289,1436293829809,0.108375475,-0.0716306,0.06752719
290,1436293829832,0.11906561,-0.058191564,0.08493685
291,1436293829849,0.1254797,-0.03314609,0.09043464
292,1436293829871,0.12517427,0.009919912,0.107233435
293,1436293829892,0.14197306,0.0444338,0.098681316
294,1436293829911,0.121509075,0.049015287,0.08096623
295,1436293829932,0.14258394,0.05268048,0.073941275
296,1436293829953,0.1105135,0.019082889,0.05928051
297,1436293829971,0.109597206,-0.01817989,0.11242579
298,1436293829993,0.096463606,-0.061856754,0.1050954
299,1436293830011,0.11204067,-0.083542466,0.08004993
300,1436293830031,0.10929177,-0.08262618,0.06661089
301,1436293830050,0.108680904,-0.06949257,0.07058152
302,1436293830072,0.09035495,-0.05177748,0.061418537
303,1436293830090,0.106848314,-0.026732003,0.057753347
304,1436293830109,0.115400426,-0.020623352,0.056531616
305,1436293830129,0.12059278,-0.027037436,0.04278715
306,1436293830149,0.11478956,-0.019096188,0.014381914
307,1436293830169,0.11478956,-0.023066813,0.026904652
308,1436293830189,0.13464268,-0.021539649,0.04156542
309,1436293830209,0.1563284,-0.012071238,0.04859037
310,1436293830229,0.14655456,0.011752505,0.020796
311,1436293830250,0.14136219,0.030994762,0.014381914
312,1436293830269,0.14227849,0.031300195,0.0021646097
313,1436293830291,0.14227849,0.03679798,-0.00944183
314,1436293830360,0.1273123,0.040463176,0.019268837
315,1436293830361,0.09157668,0.03313279,0.05683705
316,1436293830362,0.084857166,0.018472023,0.074246705
317,1436293830380,0.126396,0.0065601524,0.07058152
318,1436293830390,0.1349481,-0.0029082596,0.07577387
319,1436293830414,0.13464268,-0.031313494,0.032097004
320,1436293830431,0.11478956,-0.046890557,-0.0036386102
321,1436293830463,0.12975577,-0.047806855,-0.02104827
322,1436293830469,0.12181451,-0.0426145,-0.053424127
323,1436293830490,0.12792316,-0.02398311,-0.0793859
324,1436293830510,0.12761773,-0.0148201315,-0.11970301
325,1436293830530,0.13372639,-0.016652727,-0.13253118
326,1436293830550,0.15877186,-0.027648302,-0.12856056
327,1436293830570,0.12975577,-0.005657153,-0.15452233
328,1436293830596,0.05675736,0.022748083,-0.194534
329,1436293830610,-0.032428965,0.029467598,-0.20644587
330,1436293830629,-0.0076889247,0.008087315,-0.15849295
331,1436293830649,0.04087487,-0.008100614,-0.14749737
332,1436293830669,0.034460783,0.0062547196,-0.12031387
333,1436293830689,0.04270746,0.023664378,-0.061059944
334,1436293830709,0.043318324,0.007781882,-0.033265576
335,1436293830729,0.04942698,-0.04230907,0.012243886
336,1436293830749,0.098296195,-0.0865968,0.02904268
337,1436293830772,0.070501834,-0.11775093,0.0015537441
338,1436293830793,0.050037846,-0.10919881,2.6579946e-05
339,1436293830813,0.042096592,-0.10034126,-0.009747263
340,1436293830833,0.056451928,-0.09117828,0.011938453
341,1436293830853,0.08180284,-0.080793574,0.044925176
342,1436293830873,0.07874851,-0.07376863,0.043703444
343,1436293830892,0.09371471,-0.06613281,0.018047106
344,1436293830911,0.07599962,-0.056969833,0.025988353
345,1436293830932,0.10226682,-0.03436782,0.08829661
346,1436293830953,0.114484124,-0.016652727,0.18603505
347,1436293830973,0.10501572,-0.02398311,0.27277792
348,1436293830993,0.10135052,-0.031008061,0.32011998
349,1436293831013,0.12914489,-0.035284117,0.3268395
350,1436293831029,0.13433725,-0.040781904,0.2523139
351,1436293831059,0.097990766,-0.07682295,0.13991472
352,1436293831074,0.11692759,-0.15287568,0.08829661
353,1436293831092,0.13342094,-0.23534249,0.04553604
354,1436293831109,0.1441111,-0.26344228,0.037594795
355,1436293831133,0.13189378,-0.25824994,0.049201235
356,1436293831153,0.13800244,-0.22037628,0.07577387
357,1436293831172,0.12975577,-0.18189178,0.08799118
358,1436293831191,0.1431948,-0.13363342,0.041259985
359,1436293831214,0.15693927,-0.08140445,-0.032960143
360,1436293831233,0.11692759,-0.02031792,-0.033265576
361,1436293831254,0.080581106,0.014195967,0.043398015
362,1436293831269,0.084857166,-0.023372244,0.13960929
363,1436293831294,0.09860163,-0.10889338,0.16801453
364,1436293831314,0.11509499,-0.18311352,0.15457548
365,1436293831333,0.13983503,-0.27688134,0.11792357
366,1436293831354,0.15846643,-0.36148617,0.09501613
367,1436293831370,0.16274248,-0.40455216,0.06172397
368,1436293831405,0.1798467,-0.4152423,0.007356964
369,1436293831411,0.19817266,-0.403025,-0.030822113
370,1436293831433,0.20458674,-0.39752722,-0.055256724
371,1436293831454,0.23940606,-0.4216564,-0.04151226
372,1436293831474,0.26048094,-0.4638061,-0.0069983695
373,1436293831494,0.2858318,-0.52061653,0.037900224
374,1436293831514,0.2687276,-0.5642934,0.021712298
375,1436293831532,0.22657791,-0.53894246,-0.03998509
376,1436293831550,0.1441111,-0.42501613,-0.07205552
