id,attr_time,attr_x,attr_y,attr_z
1,1437992082018,-0.86969376,10.092757,0.30166942
2,1437992082041,-0.87448215,10.086173,0.2741361
3,1437992082105,-0.94092125,10.118495,0.26755205
4,1437992082106,-0.9588778,10.109517,0.29388827
5,1437992082107,-0.99778354,10.107721,0.27952304
6,1437992082117,-0.961272,10.102933,0.2896984
7,1437992082141,-0.9451111,10.113707,0.2837129
8,1437992082158,-0.93732995,10.122087,0.30226797
9,1437992082178,-0.95827925,10.126276,0.29987377
10,1437992082197,-0.9888053,10.107122,0.30226797
11,1437992082218,-1.0366893,10.104729,0.26276365
12,1437992082241,-1.0636241,10.101735,0.24959552
13,1437992082257,-1.067814,10.0987425,0.28491
14,1437992082280,-1.0576386,10.095152,0.29508537
15,1437992082297,-1.0307038,10.120889,0.30406362
16,1437992082320,-1.0133458,10.084976,0.28790274
17,1437992082340,-1.0019734,10.071808,0.28670564
18,1437992082360,-1.0175357,10.089765,0.29807812
19,1437992082380,-1.0235212,10.09994,0.30047232
20,1437992082400,-0.96905315,10.118495,0.27952304
21,1437992082420,-0.9355343,10.163386,0.2777274
22,1437992082440,-0.95827925,10.15381,0.2885013
23,1437992082461,-0.98820674,10.058042,0.36990416
24,1437992082481,-0.95229375,10.097546,0.32680854
25,1437992082498,-0.9498995,10.13286,0.2136825
26,1437992082520,-0.9648633,10.137649,0.22744916
27,1437992082541,-0.9295488,10.118495,0.31483752
28,1437992082559,-0.931943,10.135853,0.3184288
29,1437992082580,-0.93493575,10.140641,0.32920274
30,1437992082600,-0.90381116,10.139444,0.29269117
31,1437992082620,-0.91338795,10.128671,0.29867667
32,1437992082639,-0.9498995,10.123283,0.30945057
33,1437992082658,-0.9672575,10.151415,0.32022446
34,1437992082684,-0.9708488,10.09575,0.29747957
35,1437992082702,-0.9498995,10.105327,0.31184477
36,1437992082722,-0.9487024,10.128671,0.3226187
37,1437992082739,-0.97982705,10.136452,0.29149407
38,1437992082758,-0.99658644,10.086173,0.31603462
39,1437992082828,-0.9959879,10.088568,0.29628247
40,1437992082829,-1.0187328,10.103531,0.29328972
41,1437992082830,-1.033098,10.073005,0.29927522
42,1437992082838,-1.0295067,10.101137,0.3172317
43,1437992082859,-1.0007763,10.0825815,0.30107087
44,1437992082879,-0.985214,10.10413,0.31603462
45,1437992082897,-0.9684546,10.105926,0.29688102
46,1437992082919,-0.98820674,10.109517,0.30585927
47,1437992082938,-1.0139444,10.094553,0.32621
48,1437992082962,-1.0271125,10.119094,0.29448682
49,1437992082981,-1.0444705,10.116699,0.32680854
50,1437992082998,-1.0145429,10.1226845,0.33758244
51,1437992083021,-1.003769,10.1065235,0.32321724
52,1437992083039,-1.0115502,10.083779,0.29568392
53,1437992083061,-1.062427,10.096947,0.2885013
54,1437992083081,-1.0684125,10.110714,0.2908955
55,1437992083101,-1.0271125,10.09994,0.29149407
56,1437992083121,-0.96067345,10.129269,0.31304187
57,1437992083141,-0.9576807,10.156802,0.31064767
58,1437992083160,-0.9804256,10.117298,0.3537433
59,1437992083181,-0.93972415,10.089765,0.3764882
60,1437992083202,-0.94331545,10.122087,0.29568392
61,1437992083218,-0.9768343,10.092757,0.27712885
62,1437992083241,-1.0013748,10.133459,0.2741361
63,1437992083261,-1.021127,10.11251,0.32800564
64,1437992083281,-1.0121487,10.127473,0.34117374
65,1437992083302,-0.97862995,10.1143055,0.3286042
66,1437992083321,-0.97144735,10.15381,0.30585927
67,1437992083340,-0.96067345,10.125677,0.34356794
68,1437992083361,-0.9744401,10.135853,0.31663316
69,1437992083381,-0.985214,10.09575,0.3238158
70,1437992083401,-0.97264445,10.098145,0.29927522
71,1437992083422,-0.96426475,10.114903,0.31902736
72,1437992083438,-0.9792285,10.114903,0.2837129
73,1437992083461,-0.99299514,10.090961,0.30705637
74,1437992083484,-0.97503865,10.098145,0.3537433
75,1437992083545,-0.985214,10.087969,0.338181
76,1437992083546,-1.0073603,10.105327,0.3196259
77,1437992083547,-1.0127473,10.116699,0.28790274
78,1437992083561,-1.003769,10.094553,0.29628247
79,1437992083579,-1.002572,10.086772,0.2861071
80,1437992083600,-1.0223241,10.095152,0.31004912
81,1437992083619,-1.0259154,10.104729,0.29987377
82,1437992083680,-1.0378864,10.09994,0.28790274
83,1437992083681,-1.043872,10.128671,0.32142156
84,1437992083682,-1.0648212,10.110115,0.30526072
85,1437992083704,-1.0414777,10.0825815,0.33399114
86,1437992083719,-1.0247183,10.103531,0.2825158
87,1437992083741,-0.99060094,10.073005,0.2837129
88,1437992083760,-0.9720459,10.078392,0.26635495
89,1437992083782,-0.9504981,10.101735,0.30825347
90,1437992083802,-0.9151836,10.126276,0.29029694
91,1437992083822,-0.9020155,10.128072,0.28790274
92,1437992083842,-0.9516952,10.149021,0.28431144
93,1437992083862,-1.0043676,10.0987425,0.350152
94,1437992083882,-0.96187055,10.110714,0.32621
95,1437992083902,-0.8774749,10.1304655,0.2705448
96,1437992083922,-0.8810662,10.140042,0.23822308
97,1437992083939,-0.9211691,10.108319,0.28790274
98,1437992083962,-0.96905315,10.084377,0.31364042
99,1437992083982,-0.98461545,10.092757,0.31004912
100,1437992084002,-0.97982705,10.135853,0.27832595
101,1437992084022,-0.9540894,10.163386,0.2765303
102,1437992084041,-0.9516952,10.140042,0.27114335
103,1437992084062,-0.9427169,10.152014,0.29747957
104,1437992084082,-0.96785605,10.109517,0.30885202
105,1437992084102,-0.94810385,10.084377,0.29807812
106,1437992084122,-0.9600749,10.10413,0.26276365
107,1437992084141,-0.9660604,10.105926,0.24361002
108,1437992084159,-0.9487024,10.1161,0.2837129
109,1437992084180,-0.95708215,10.097546,0.2908955
110,1437992084199,-0.9540894,10.105327,0.28670564
111,1437992084222,-0.9696517,10.108319,0.25677812
112,1437992084287,-0.9367314,10.09994,0.25617957
113,1437992084288,-0.9091981,10.104729,0.29987377
114,1437992084289,-0.91458505,10.078991,0.31364042
115,1437992084303,-0.93134445,10.1143055,0.30226797
116,1437992084319,-0.9403227,10.13286,0.2813187
117,1437992084360,-0.97025025,10.13286,0.27353755
118,1437992084361,-0.97264445,10.123283,0.29867667
119,1437992084389,-0.99060094,10.1226845,0.30466217
120,1437992084443,-0.9888053,10.099341,0.27234045
121,1437992084444,-1.0013748,10.078392,0.28311434
122,1437992084445,-0.9624691,10.1065235,0.31064767
123,1437992084459,-0.90021986,10.131064,0.2885013
124,1437992084480,-0.90381116,10.134656,0.28790274
125,1437992084500,-0.92176765,10.157999,0.31124622
126,1437992084520,-0.97982705,10.072407,0.3441665
127,1437992084541,-0.931943,10.109517,0.31902736
128,1437992084561,-0.87687635,10.136452,0.24600422
129,1437992084582,-0.85652566,10.157999,0.25079262
130,1437992084602,-0.8996213,10.120889,0.3321955
131,1437992084622,-0.8870517,10.117298,0.3477578
132,1437992084640,-0.8972271,10.120291,0.31364042
133,1437992084665,-0.8888474,10.149021,0.28790274
134,1437992084680,-0.8714894,10.146626,0.2896984
135,1437992084702,-0.8678981,10.144831,0.29688102
136,1437992084721,-0.8738836,10.156802,0.31783026
137,1437992084740,-0.8996213,10.118495,0.3513491
138,1437992084761,-0.90261406,10.095152,0.3309984
139,1437992084781,-0.90141696,10.102334,0.26396075
140,1437992084803,-0.91219085,10.126875,0.2765303
141,1437992084822,-0.90381116,10.111312,0.31004912
142,1437992084840,-0.89782566,10.108319,0.31902736
143,1437992084859,-0.89423436,10.1143055,0.3184288
144,1437992084882,-0.90141696,10.131064,0.32321724
145,1437992084900,-0.88525605,10.13286,0.2777274
146,1437992084922,-0.9211691,10.1226845,0.3250129
147,1437992084941,-0.94690675,10.128072,0.30945057
148,1437992084961,-0.96665895,10.122087,0.29688102
149,1437992084981,-0.9588778,10.135853,0.28790274
150,1437992085000,-0.9528923,10.142437,0.29628247
151,1437992085070,-0.9187749,10.111911,0.3369839
152,1437992085071,-0.8948329,10.120889,0.30885202
153,1437992085072,-0.93134445,10.113707,0.30226797
154,1437992085088,-0.9624691,10.132261,0.3184288
155,1437992085100,-0.97862995,10.125079,0.31543607
156,1437992085124,-0.93014735,10.151415,0.31124622
157,1437992085140,-0.9008184,10.122087,0.32800564
158,1437992085175,-0.93852705,10.132261,0.32321724
159,1437992085180,-0.90979666,10.059238,0.35314476
160,1437992085200,-0.8678981,10.126875,0.31304187
161,1437992085221,-0.88525605,10.140042,0.2645593
162,1437992085243,-0.91817635,10.121488,0.2657564
163,1437992085263,-0.92895025,10.109517,0.33399114
164,1437992085281,-0.93134445,10.111911,0.35075054
165,1437992085303,-0.91937345,10.129868,0.32142156
166,1437992085323,-0.8690952,10.162787,0.30526072
167,1437992085342,-0.85054016,10.153211,0.34596214
168,1437992085362,-0.8762778,10.13286,0.33758244
169,1437992085383,-0.8948329,10.155605,0.3274071
170,1437992085403,-0.9271546,10.084976,0.3286042
171,1437992085423,-0.90740246,10.095152,0.29388827
172,1437992085441,-0.92057055,10.12448,0.27832595
173,1437992085463,-0.9564836,10.149021,0.29628247
174,1437992085483,-0.94092125,10.13705,0.30945057
175,1437992085501,-0.8774749,10.076596,0.3549404
176,1437992085523,-0.8595184,10.111911,0.3585317
177,1437992085543,-0.9211691,10.131663,0.320823
178,1437992085560,-0.91817635,10.125677,0.30107087
179,1437992085581,-0.9403227,10.119692,0.3184288
180,1437992085602,-0.9271546,10.104729,0.35314476
181,1437992085621,-0.9247604,10.128671,0.33997664
182,1437992085640,-0.9271546,10.122087,0.3196259
183,1437992085662,-0.9175778,10.146626,0.3196259
184,1437992085680,-0.9068039,10.140042,0.3477578
185,1437992085759,-0.9295488,10.125677,0.35075054
186,1437992085764,-0.96187055,10.101735,0.31902736
187,1437992085769,-0.94930094,10.131064,0.32202014
188,1437992085770,-0.91219085,10.137649,0.3238158
189,1437992085786,-0.8678981,10.1382475,0.32202014
190,1437992085800,-0.87448215,10.164583,0.35434186
191,1437992085821,-0.9391256,10.101137,0.3429694
192,1437992085840,-0.9163807,10.055647,0.3537433
193,1437992085868,-0.8810662,10.114903,0.2896984
194,1437992085880,-0.9139865,10.12448,0.25079262
195,1437992085903,-0.90859956,10.103531,0.33518824
196,1437992085928,-0.91099375,10.109517,0.3573346
197,1437992085941,-0.9091981,10.105327,0.3549404
198,1437992085961,-0.9020155,10.129868,0.3417723
199,1437992086009,-0.908001,10.134057,0.31423897
200,1437992086010,-0.9139865,10.110115,0.3393781
201,1437992086021,-0.9091981,10.155605,0.3184288
202,1437992086044,-0.92895025,10.143634,0.33399114
203,1437992086064,-0.9163807,10.079589,0.3537433
204,1437992086084,-0.9008184,10.134057,0.3597288
205,1437992086104,-0.9175778,10.128072,0.30107087
206,1437992086124,-0.9259575,10.133459,0.3250129
207,1437992086141,-0.90381116,10.096947,0.3561375
208,1437992086167,-0.8882488,10.103531,0.33159694
209,1437992086184,-0.8631097,10.092158,0.3172317
210,1437992086202,-0.85891986,10.110115,0.29508537
211,1437992086227,-0.8559271,10.09994,0.29508537
212,1437992086241,-0.8678981,10.099341,0.3238158
213,1437992086264,-0.85652566,10.1143055,0.3537433
214,1437992086281,-0.85293436,10.125079,0.30705637
215,1437992086301,-0.87807345,10.125079,0.29867667
216,1437992086321,-0.87328506,10.1065235,0.30286652
217,1437992086341,-0.88525605,10.093356,0.32680854
218,1437992086361,-0.90500826,10.097546,0.31783026
219,1437992086382,-0.8858546,10.126875,0.31423897
220,1437992086401,-0.8571242,10.152613,0.2753332
221,1437992086421,-0.85173726,10.123283,0.30526072
222,1437992086441,-0.85532856,10.126875,0.35553896
223,1437992086468,-0.9056068,10.068216,0.3645172
224,1437992086484,-0.85413146,10.128072,0.30107087
225,1437992086501,-0.8146271,10.159795,0.2220622
226,1437992086521,-0.8194155,10.150218,0.2705448
227,1437992086542,-0.82899237,10.108918,0.3429694
228,1437992086562,-0.8463503,10.09994,0.3369839
229,1437992086583,-0.85891986,10.144831,0.30765492
230,1437992086603,-0.87448215,10.167576,0.2873042
231,1437992086623,-0.87567925,10.168773,0.30346507
232,1437992086641,-0.8714894,10.152613,0.32202014
233,1437992086663,-0.92176765,10.111911,0.36272156
234,1437992086681,-0.92535895,10.092757,0.3465607
235,1437992086702,-0.9271546,10.113108,0.27952304
236,1437992086722,-0.93732995,10.104729,0.25378537
237,1437992086742,-0.92895025,10.1382475,0.2705448
238,1437992086765,-0.9271546,10.111312,0.3274071
239,1437992086783,-0.9056068,10.090961,0.3429694
240,1437992086802,-0.92057055,10.113108,0.3172317
241,1437992086824,-0.91937345,10.120889,0.30466217
242,1437992086842,-0.90859956,10.10413,0.28670564
243,1437992086865,-0.92535895,10.114903,0.3196259
244,1437992086885,-0.9355343,10.128072,0.3184288
245,1437992086904,-0.9139865,10.144233,0.31603462
246,1437992086923,-0.89603,10.117298,0.32321724
247,1437992086945,-0.8619126,10.1226845,0.30047232
248,1437992086962,-0.89543146,10.108918,0.33877954
249,1437992086985,-0.9139865,10.126875,0.35913026
250,1437992087005,-0.87687635,10.125677,0.3274071
251,1437992087024,-0.82480246,10.134057,0.3321955
252,1437992087042,-0.8026561,10.149619,0.3309984
253,1437992087063,-0.84335756,10.136452,0.3609259
254,1437992087083,-0.87448215,10.051457,0.362123
255,1437992087105,-0.8379706,10.134656,0.31483752
256,1437992087124,-0.87807345,10.137649,0.2669535
257,1437992087144,-0.89064306,10.120889,0.29149407
258,1437992087164,-0.9068039,10.1143055,0.3405752
259,1437992087194,-0.90859956,10.1143055,0.3477578
260,1437992087203,-0.9103952,10.134656,0.30047232
261,1437992087269,-0.90021986,10.12448,0.30406362
262,1437992087270,-0.9211691,10.125079,0.3453636
263,1437992087271,-0.96426475,10.147824,0.32441434
264,1437992087282,-0.99179804,10.116699,0.32920274
265,1437992087304,-0.97503865,10.086173,0.3286042
266,1437992087323,-0.95947635,10.09575,0.31543607
267,1437992087342,-0.9672575,10.114903,0.30885202
268,1437992087363,-0.96785605,10.138845,0.3238158
269,1437992087383,-0.95947635,10.129269,0.32142156
270,1437992087408,-0.95349085,10.120889,0.3345897
271,1437992087423,-0.9744401,10.120889,0.32441434
272,1437992087445,-0.97743285,10.117298,0.29688102
273,1437992087465,-0.95588505,10.117298,0.28072014
274,1437992087484,-0.94092125,10.101137,0.31184477
275,1437992087505,-0.9211691,10.119094,0.32441434
276,1437992087525,-0.91458505,10.146626,0.30466217
277,1437992087544,-0.8619126,10.140042,0.31184477
278,1437992087562,-0.86490536,10.140042,0.33159694
279,1437992087584,-0.8655039,10.1226845,0.3357868
280,1437992087604,-0.8678981,10.101137,0.350152
281,1437992087625,-0.89303726,10.105926,0.3681085
282,1437992087652,-0.9068039,10.1161,0.33279404
283,1437992087665,-0.8870517,10.135853,0.2861071
284,1437992087684,-0.90979666,10.152613,0.30466217
285,1437992087704,-0.9888053,10.080787,0.350152
286,1437992087724,-0.9804256,10.038289,0.3812766
287,1437992087743,-0.98940384,10.114903,0.2861071
288,1437992087764,-1.0390835,10.14543,0.23642741
289,1437992087788,-1.0684125,10.085575,0.29688102
290,1437992087802,-1.1198878,10.081984,0.31483752
291,1437992087826,-1.158195,10.12448,0.32321724
292,1437992087843,-1.1360487,10.169372,0.3309984
293,1437992087865,-1.1665748,10.141838,0.34835634
294,1437992087884,-1.2814964,10.016143,0.3489549
295,1437992087911,-1.4036007,10.023325,0.31663316
296,1437992087978,-1.5251064,9.970055,0.29508537
297,1437992087979,-1.5346833,9.939528,0.26755205
298,1437992087980,-1.4568717,9.993997,0.24660277
299,1437992087990,-1.3521254,9.98442,0.23044191
300,1437992088006,-1.2312182,9.922769,0.23882163
301,1437992088023,-1.1599907,9.870096,0.22565351
302,1437992088043,-1.0241197,9.81503,0.18136078
303,1437992088068,-0.90141696,9.656414,0.1328782
304,1437992088083,-0.7092823,9.6528225,0.109534726
305,1437992088104,-0.5710171,9.723452,0.022146367
306,1437992088124,-0.48722005,9.6767645,0.074220255
307,1437992088145,-0.45908818,9.540296,0.1400608
308,1437992088169,-0.3609259,9.504981,0.16579847
309,1437992088183,-0.25917232,9.39365,-0.060453594
310,1437992088205,-0.23822308,9.448717,-0.46267948
311,1437992088227,-0.17178397,9.560047,-0.79248077
312,1437992088245,0.107140526,9.557653,-0.37110126
313,1437992088266,0.52073884,9.458294,-0.08259996
314,1437992088287,0.58418524,9.267356,-0.27952304
315,1437992088306,0.33159694,9.142858,-0.4770447
316,1437992088326,0.18255788,8.995016,-0.5614403
317,1437992088345,0.33997664,8.859145,-0.53211135
318,1437992088366,0.7529764,9.051279,-0.6667852
319,1437992088387,1.1150994,9.409213,-0.8810662
320,1437992088408,1.2360066,9.498397,-0.6356605
321,1437992088428,1.3640964,8.892664,-0.15382746
322,1437992088448,1.5053543,8.143278,-0.110133275
323,1437992088466,1.5652094,8.086416,-0.42078096
324,1437992088484,1.2042835,8.640076,-0.931943
325,1437992088504,0.49440265,8.814852,-1.3311762
326,1437992088523,0.15981296,8.052299,-1.2952632
327,1437992088548,0.6775591,7.5387425,-1.1216835
328,1437992088563,1.3676877,8.028357,-1.1827357
329,1437992088590,1.4227544,9.129689,-1.5245079
330,1437992088605,0.7918822,9.382876,-1.7142484
331,1437992088718,0.64703304,9.046491,-1.4401124
332,1437992088719,1.1097125,9.244612,-1.1563994
333,1437992088720,1.3521254,9.497798,-1.1569979
334,1437992088721,1.513734,10.035296,-1.484405
335,1437992088722,1.2725182,10.1382475,-1.7525556
336,1437992088746,0.89902276,9.645041,-2.0057425
337,1437992088747,0.8619126,9.458294,-2.5408466
338,1437992088765,1.0450691,9.87668,-3.104681
339,1437992088783,1.3377602,10.4488945,-3.1196449
340,1437992088813,1.6915035,10.362703,-2.6138697
341,1437992088823,2.2224178,9.9233675,-2.2882583
342,1437992088844,2.4343045,9.656414,-2.5384524
343,1437992088870,2.0620062,10.053851,-3.3632548
344,1437992088884,1.22224,10.147824,-4.38498
345,1437992088910,0.55365914,9.228451,-4.634576
346,1437992088927,0.55365914,8.114548,-4.1575313
347,1437992088947,0.6835446,7.6590514,-3.6421793
348,1437992088967,0.3788824,8.066066,-3.667917
349,1437992088987,0.053869538,8.590994,-4.1156325
350,1437992089007,0.49320555,9.148245,-4.5034933
351,1437992089027,1.560421,9.982624,-4.6680946
352,1437992089046,2.4103625,11.567586,-4.9302597
353,1437992089067,2.8963854,13.533824,-5.1200004
354,1437992089088,3.5685577,15.695189,-4.6178164
355,1437992089104,3.7738605,16.329653,-2.9604304
356,1437992089127,3.3063924,14.888343,-0.5931635
357,1437992089147,2.6390088,14.296377,0.6434417
358,1437992089166,1.5340848,14.838065,0.15382746
359,1437992089187,0.09636662,14.892533,-0.9624691
360,1437992089206,-1.5245079,13.405135,-1.472434
361,1437992089227,-2.9783869,11.807604,-1.5640123
362,1437992089247,-4.144962,10.458471,-1.3012487
363,1437992089267,-4.8787847,9.5013895,-0.66020113
364,1437992089287,-4.9135003,8.938752,0.39504328
365,1437992089308,-4.1305966,8.813056,0.6655881
366,1437992089328,-3.6888664,8.569447,0.6464345
367,1437992089350,-3.128623,7.6626425,0.7553706
368,1437992089516,-2.767697,6.8587894,1.2569559
369,1437992089517,-2.7952304,6.616975,1.1450269
370,1437992089518,-3.1148565,6.8121023,0.46208093
371,1437992089519,-3.240552,7.0186024,-0.06943185
372,1437992089520,-3.3081882,6.9467764,0.19273324
373,1437992089521,-3.5835214,6.7839704,0.85772276
374,1437992089522,-3.9001546,7.231686,1.2228385
375,1437992089523,-4.3263226,7.9086466,1.1552023
376,1437992089537,-4.8147397,8.104971,1.1713632
377,1437992089561,-5.3887496,8.019978,0.86490536
378,1437992089564,-5.995081,7.9409685,0.52073884
379,1437992089584,-6.1507044,8.41921,0.38606504
380,1437992089604,-6.163274,8.663419,0.58418524
381,1437992089624,-6.271013,8.47727,1.2234371
382,1437992089648,-6.4386067,8.157643,1.4957775
383,1437992089664,-6.815694,7.629722,1.6154876
384,1437992089685,-6.8887167,7.499837,1.2904748
385,1437992089704,-6.9838862,7.6770077,0.599149
386,1437992089727,-7.0371575,8.080431,0.08678981
387,1437992089748,-6.7989345,8.1797905,-0.54767364
388,1437992089768,-6.1117983,7.961319,-1.0109516
389,1437992089787,-4.9464207,7.9942393,-1.049259
390,1437992089807,-3.6415808,8.24563,-0.62368953
391,1437992089827,-2.8137856,7.9852614,0.4321534
392,1437992089848,-2.1841104,7.340024,0.58119243
393,1437992089868,-1.8830396,6.8144965,0.1945289
394,1437992089886,-1.922544,6.609792,-0.05566519
395,1437992089908,-2.0260932,6.6905966,-0.44711718
396,1437992089928,-2.3546975,6.691794,-0.83856916
397,1437992089948,-2.8191724,6.381745,-0.3693056
398,1437992089968,-2.8742392,6.315904,-0.109534726
399,1437992089987,-2.9071593,6.3099184,-0.3573346
400,1437992090008,-4.0378213,8.236053,-1.2497733
401,1437992090028,-8.38629,14.917672,-4.2036195
402,1437992090048,-18.950705,14.773421,-6.955156
403,1437992090068,-19.199104,7.8308353,-5.195418
404,1437992090088,-12.61026,4.253299,-4.4963107
