id,attr_time,attr_x,attr_y,attr_z
1,1436965110616,0.30047232,10.164583,-0.19512744
2,1436965110636,0.28491,10.201694,-0.16220717
3,1436965110656,0.2681506,10.248979,-0.16759412
4,1436965110675,0.28072014,10.259154,-0.1412579
5,1436965110701,0.30047232,10.208876,-0.15801731
6,1436965110759,0.25139117,10.184336,-0.19512744
7,1436965110770,0.21308395,10.166978,-0.19692309
8,1436965110773,0.20410569,10.178948,-0.21308395
9,1436965110775,0.2088941,10.201694,-0.17417817
10,1436965110794,0.17477672,10.199299,-0.18136078
11,1436965110814,0.142455,10.209475,-0.15682021
12,1436965110833,0.0664391,10.216059,-0.18255788
13,1436965110859,0.06284779,10.1861315,-0.18734628
14,1436965110875,0.14664486,10.218452,-0.17657238
15,1436965110894,0.23044191,10.195708,-0.19393034
16,1436965110914,0.2160767,10.207679,-0.18255788
17,1436965110935,0.22026655,10.150817,-0.16340427
18,1436965110958,0.22864626,10.209475,-0.15322891
19,1436965110976,0.26396075,10.264542,-0.19871874
20,1436965110993,0.25438392,10.237008,-0.19692309
21,1436965111013,0.22385786,10.177153,-0.14844051
22,1436965111036,0.22026655,10.158598,-0.14844051
23,1436965111056,0.2669535,10.234015,-0.17717093
24,1436965111076,0.32800564,10.232818,-0.16340427
25,1436965111096,0.29927522,10.21127,-0.12928689
26,1436965111116,0.25019407,10.198102,-0.12509704
27,1436965111136,0.23463176,10.198102,-0.12689269
28,1436965111155,0.20231004,10.225037,-0.14784196
29,1436965111174,0.14544775,10.192117,-0.14305355
30,1436965111197,0.12509704,10.209475,-0.15442601
31,1436965111213,0.12090719,10.216658,-0.18854338
32,1436965111235,0.12988544,10.255563,-0.20649989
33,1436965111257,0.17178397,10.2417965,-0.17357962
34,1436965111278,0.22445641,10.21127,-0.16579847
35,1436965111298,0.24061728,10.143036,-0.15622166
36,1436965111319,0.25318682,10.126276,-0.110133275
37,1436965111337,0.24480712,10.19092,-0.15741876
38,1436965111353,0.20051439,10.236409,-0.18315643
39,1436965111375,0.21068975,10.208876,-0.1921347
40,1436965111396,0.2184709,10.1861315,-0.15981296
41,1436965111416,0.26156655,10.216059,-0.10594343
42,1436965111434,0.3238158,10.25676,-0.12808979
43,1436965111486,0.31304187,10.231621,-0.1592144
44,1436965111487,0.23942018,10.180145,-0.093972415
45,1436965111503,0.15382746,10.114903,-0.08259996
46,1436965111514,0.15143326,10.160992,-0.1316811
47,1436965111536,0.16519992,10.206482,-0.15562311
48,1436965111555,0.19033903,10.225037,-0.15562311
49,1436965111574,0.20051439,10.202292,-0.12689269
50,1436965111596,0.18794483,10.205285,-0.1436521
51,1436965111615,0.20290859,10.175956,-0.15502456
52,1436965111635,0.22984336,10.1699705,-0.1316811
53,1436965111656,0.19871874,10.1621895,-0.14604631
54,1436965111674,0.16220717,10.155605,-0.20111294
55,1436965111694,0.13826515,10.118495,-0.20171149
56,1436965111717,0.1376666,10.140042,-0.23044191
57,1436965111737,0.17836803,10.216059,-0.25498247
58,1436965111757,0.20649989,10.26095,-0.21906945
59,1436965111777,0.26396075,10.2417965,-0.15562311
60,1436965111797,0.2813187,10.229825,-0.12509704
61,1436965111817,0.28790274,10.24419,-0.142455
62,1436965111837,0.25977087,10.2495775,-0.17238252
63,1436965111857,0.26635495,10.26514,-0.18076223
64,1436965111878,0.24361002,10.221446,-0.1436521
65,1436965111894,0.24899697,10.204087,-0.107140526
66,1436965111917,0.32321724,10.245986,-0.12749124
67,1436965111934,0.32800564,10.213664,-0.16998832
68,1436965111956,0.33159694,10.212467,-0.108936176
69,1436965111974,0.29987377,10.196905,-0.02873042
70,1436965111999,0.34596214,10.187328,-0.0688333
71,1436965112019,0.33399114,10.191518,-0.18614918
72,1436965112039,0.2717419,10.207679,-0.16220717
73,1436965112057,0.2184709,10.217256,-0.10474633
74,1436965112074,0.17238252,10.206482,-0.08798691
75,1436965112096,0.19931729,10.237606,-0.095768064
76,1436965112117,0.19871874,10.2178545,-0.1352724
77,1436965112136,0.17238252,10.183139,-0.13706805
78,1436965112158,0.15741876,10.165182,-0.107739076
79,1436965112223,0.16998832,10.189722,-0.11851298
80,1436965112224,0.17178397,10.209475,-0.15382746
81,1436965112225,0.17537527,10.195708,-0.14903906
82,1436965112235,0.20171149,10.180145,-0.11611878
83,1436965112259,0.23044191,10.202292,-0.12150574
84,1436965112275,0.2657564,10.205883,-0.11851298
85,1436965112296,0.30645782,10.231023,-0.10055647
86,1436965112317,0.31064767,10.222643,-0.10235212
87,1436965112335,0.3172317,10.185533,-0.12928689
88,1436965112357,0.2777274,10.198701,-0.1364695
89,1436965112376,0.25857377,10.18254,-0.090979666
90,1436965112398,0.28491,10.247782,-0.089782566
91,1436965112414,0.26276365,10.207679,-0.20290859
92,1436965112438,0.23223756,10.188525,-0.17357962
93,1436965112458,0.23104046,10.1861315,-0.11133038
94,1436965112478,0.2825158,10.2178545,-0.11192893
95,1436965112498,0.3453636,10.217256,-0.20590134
96,1436965112518,0.32142156,10.204686,-0.18794483
97,1436965112538,0.23882163,10.16578,-0.14724341
98,1436965112557,0.20470424,10.172963,-0.1448492
99,1436965112574,0.20829555,10.220248,-0.17357962
100,1436965112596,0.21906945,10.261548,-0.18974048
101,1436965112618,0.2100912,10.225636,-0.19572599
102,1436965112655,0.18495208,10.179547,-0.18076223
103,1436965112656,0.19273324,10.199898,-0.1604115
104,1436965112692,0.23942018,10.250774,-0.20231004
105,1436965112695,0.24480712,10.221446,-0.17477672
106,1436965112715,0.19871874,10.189722,-0.16519992
107,1436965112736,0.19632454,10.1460285,-0.19273324
108,1436965112755,0.17776948,10.163984,-0.20709845
109,1436965112775,0.16879122,10.198102,-0.24480712
110,1436965112795,0.19632454,10.22384,-0.2208651
111,1436965112815,0.23403321,10.216059,-0.18914193
112,1436965112836,0.23642741,10.129269,-0.16759412
113,1436965112855,0.25318682,10.126276,-0.15562311
114,1436965112875,0.26635495,10.228029,-0.24241292
115,1436965112904,0.1933318,10.21127,-0.24600422
116,1436965112920,0.14903906,10.216059,-0.11971009
117,1436965112936,0.1448492,10.204087,-0.12330139
118,1436965112955,0.24959552,10.195708,-0.24600422
119,1436965112975,0.29388827,10.219051,-0.31244332
120,1436965112995,0.23223756,10.171766,-0.2088941
121,1436965113028,0.19512744,10.150817,-0.16220717
122,1436965113050,0.17597382,10.148422,-0.17357962
123,1436965113055,0.21428105,10.207679,-0.24839842
124,1436965113075,0.27114335,10.260351,-0.2669535
125,1436965113094,0.25198972,10.224439,-0.24540567
126,1436965113116,0.24301147,10.228628,-0.15562311
127,1436965113136,0.24061728,10.211869,-0.15322891
128,1436965113157,0.24839842,10.23222,-0.23882163
129,1436965113175,0.23283611,10.201095,-0.25258827
130,1436965113195,0.2148796,10.192716,-0.20350714
131,1436965113216,0.19512744,10.204087,-0.18435353
132,1436965113239,0.21547815,10.201095,-0.17417817
133,1436965113258,0.21906945,10.220248,-0.22864626
134,1436965113278,0.24361002,10.19451,-0.19692309
135,1436965113296,0.25498247,10.211869,-0.2088941
136,1436965113314,0.22565351,10.210073,-0.18794483
137,1436965113336,0.26396075,10.216059,-0.1592144
138,1436965113358,0.31244332,10.256162,-0.18435353
139,1436965113378,0.25558102,10.213664,-0.23104046
140,1436965113398,0.2136825,10.221446,-0.17776948
141,1436965113417,0.20231004,10.198701,-0.1340753
142,1436965113435,0.28491,10.236409,-0.16639702
143,1436965113456,0.30705637,10.202292,-0.2184709
144,1436965113479,0.23582886,10.177153,-0.20111294
145,1436965113498,0.17657238,10.168175,-0.16759412
146,1436965113519,0.15801731,10.22384,-0.16280572
147,1436965113537,0.22146365,10.239402,-0.12749124
148,1436965113556,0.24301147,10.214862,-0.16879122
149,1436965113576,0.23582886,10.201694,-0.15741876
150,1436965113630,0.25378537,10.168175,-0.14784196
151,1436965113631,0.25977087,10.19451,-0.1340753
152,1436965113638,0.2705448,10.192716,-0.15682021
153,1436965113658,0.24720132,10.208876,-0.15322891
154,1436965113677,0.2136825,10.20289,-0.16879122
155,1436965113709,0.1933318,10.196306,-0.15801731
156,1436965113716,0.21068975,10.173561,-0.1945289
157,1436965113736,0.24121583,10.191518,-0.18016368
158,1436965113756,0.260968,10.207679,-0.1412579
159,1436965113777,0.24959552,10.1861315,-0.18614918
160,1436965113801,0.18076223,10.155605,-0.16879122
161,1436965113819,0.1448492,10.166978,-0.1604115
162,1436965113839,0.1945289,10.266935,-0.16101007
163,1436965113859,0.23463176,10.277111,-0.19512744
164,1436965113879,0.2657564,10.226832,-0.11432313
165,1436965113897,0.260968,10.141838,-0.09816227
166,1436965113918,0.30526072,10.197504,-0.1352724
167,1436965113936,0.31423897,10.216658,-0.18614918
168,1436965113960,0.25079262,10.230424,-0.17298107
169,1436965113976,0.2124854,10.206482,-0.15622166
170,1436965114003,0.20350714,10.203489,-0.15562311
171,1436965114022,0.28550854,10.214263,-0.15861586
172,1436965114036,0.2753332,10.2178545,-0.15981296
173,1436965114056,0.26396075,10.20289,-0.16819267
174,1436965114076,0.22924481,10.216658,-0.16101007
175,1436965114099,0.22924481,10.199299,-0.12389994
176,1436965114116,0.19752164,10.220847,-0.14844051
177,1436965114136,0.18136078,10.208876,-0.18136078
178,1436965114157,0.17597382,10.218452,-0.19093758
179,1436965114182,0.21188685,10.204686,-0.15023616
180,1436965114202,0.24959552,10.201694,-0.13108255
181,1436965114222,0.29269117,10.201694,-0.15562311
182,1436965114239,0.2657564,10.210671,-0.17118542
183,1436965114331,0.23223756,10.199898,-0.18016368
184,1436965114332,0.15622166,10.184336,-0.16160862
185,1436965114333,0.17956513,10.207081,-0.13347675
186,1436965114334,0.23702596,10.2495775,-0.15622166
187,1436965114348,0.24480712,10.214263,-0.21428105
188,1436965114358,0.23822308,10.198102,-0.130484
189,1436965114382,0.23523031,10.169372,-0.08200141
190,1436965114396,0.28431144,10.228628,-0.1340753
191,1436965114417,0.29209262,10.229825,-0.20410569
192,1436965114439,0.26036942,10.204686,-0.20949265
193,1436965114457,0.2088941,10.164583,-0.15562311
194,1436965114479,0.2112883,10.195109,-0.15682021
195,1436965114496,0.24181437,10.24419,-0.13108255
196,1436965114519,0.30645782,10.258555,-0.10414778
197,1436965114540,0.27114335,10.189722,-0.13108255
198,1436965114560,0.24839842,10.159196,-0.15562311
199,1436965114580,0.21787235,10.168773,-0.1448492
200,1436965114599,0.23223756,10.239402,-0.14544775
201,1436965114619,0.24241292,10.250176,-0.15263036
202,1436965114640,0.23523031,10.20289,-0.130484
203,1436965114660,0.2208651,10.1544075,-0.15562311
204,1436965114680,0.20231004,10.157401,-0.16519992
205,1436965114699,0.23343466,10.197504,-0.15382746
206,1436965114718,0.24600422,10.223241,-0.13826515
207,1436965114738,0.25258827,10.188525,-0.1364695
208,1436965114758,0.19812019,10.168175,-0.1592144
209,1436965114778,0.17357962,10.140641,-0.14724341
210,1436965114798,0.22804771,10.21546,-0.12749124
211,1436965114819,0.22325931,10.256162,-0.16460137
212,1436965114840,0.19033903,10.250774,-0.107739076
213,1436965114859,0.1436521,10.224439,-0.0664391
214,1436965114879,0.13227965,10.207679,-0.074220255
215,1436965114902,0.09995792,10.177153,-0.16400282
216,1436965114920,0.08379706,10.172963,-0.1352724
217,1436965114940,0.038905777,10.203489,-0.10295067
218,1436965114958,-0.095768064,10.191518,-0.12749124
219,1436965114978,-0.13347675,10.196306,-0.16519992
220,1436965115032,-0.08020575,10.213664,-0.18674773
221,1436965115033,0.035314474,10.246585,-0.12629414
222,1436965115041,0.22026655,10.201694,-0.08020575
223,1436965115057,0.40521863,10.127473,-0.055066638
224,1436965115077,0.5009867,10.047267,-0.09756372
225,1436965115105,0.5201403,9.987412,-0.11492168
226,1436965115127,0.4441244,9.962872,-0.095768064
227,1436965115138,0.36511576,9.968259,-0.10534488
228,1436965115158,0.3441665,9.983223,-0.09696517
229,1436965115191,0.3561375,10.088568,-0.044891283
230,1436965115198,0.39743748,10.196306,-0.010773907
231,1436965115218,0.44651863,10.229825,-0.092176765
232,1436965115238,0.4758476,10.13286,-0.12928689
233,1436965115259,0.5315128,10.061034,-0.08559271
234,1436965115280,0.4985925,10.102933,-0.11492168
235,1436965115301,0.5470751,9.965864,-0.04249708
236,1436965115319,0.65780693,9.845556,-0.110731825
237,1436965115339,0.81163436,9.6923275,-0.25498247
238,1436965115360,0.89543146,9.582193,-0.46088383
239,1436965115380,1.0833763,9.657013,-0.7918822
240,1436965115400,1.3628993,9.977836,-1.1683705
241,1436965115419,1.702876,10.455479,-1.2934675
242,1436965115439,1.9267339,10.9103775,-1.0887632
243,1436965115458,1.9434932,11.23539,-0.736217
244,1436965115479,1.8297687,11.138425,-0.40821138
245,1436965115501,1.6436194,10.96664,-0.46926352
246,1436965115519,1.3311762,10.646417,-0.53689975
247,1436965115539,0.9343372,10.642226,-0.8900445
248,1436965115561,0.56443304,10.617686,-1.2515689
249,1436965115579,0.31543607,10.523115,-1.4616601
250,1436965115599,0.35434186,10.516531,-1.5155296
251,1436965115621,0.5363012,10.516531,-1.4532804
252,1436965115639,0.86610246,10.375273,-1.2437878
253,1436965115661,1.1851299,10.254965,-1.0929531
254,1436965115679,1.5047557,10.20289,-1.0869676
255,1436965115699,1.638831,10.141838,-1.2030864
256,1436965115724,1.5065514,9.962274,-1.1617863
257,1436965115793,1.2791022,9.600749,-1.1025299
258,1436965115797,0.98341835,9.273342,-1.1677719
259,1436965115798,0.789488,9.021352,-1.3742718
260,1436965115799,0.7158663,8.829816,-1.496376
261,1436965115818,0.8678981,8.90643,-1.4574703
262,1436965115838,1.0295067,9.120711,-1.4293385
263,1436965115858,1.0887632,9.196728,-1.4580688
264,1436965115878,1.0785879,9.452907,-1.5185224
265,1436965115899,1.2270284,10.175357,-1.6609775
266,1436965115923,1.5981296,11.901577,-1.7208325
267,1436965115940,1.5490485,13.826515,-1.3443443
268,1436965115959,0.3274071,12.4229145,0.11492168
269,1436965115979,-0.32321724,10.231023,1.3437457
270,1436965115999,-0.23283611,9.221867,1.0672154
271,1436965116019,-0.3681085,9.569026,-0.7613561
272,1436965116039,-1.0480618,10.307038,-0.9564836
273,1436965116061,-0.41120413,10.483012,-0.29568392
274,1436965116081,0.4914099,10.342952,0.44891283
275,1436965116101,1.608305,10.173561,1.1797429
276,1436965116121,2.40318,9.941324,1.763928
277,1436965116139,3.103484,9.573814,1.9063832
278,1436965116161,3.259107,9.523536,1.8195933
279,1436965116180,2.8742392,9.755774,1.5346833
280,1436965116199,2.0398598,9.73662,1.1306617
281,1436965116221,0.9175778,9.6528225,1.1007342
282,1436965116241,0.31902736,10.336966,1.1180922
283,1436965116261,0.25079262,10.970232,0.83138657
284,1436965116279,0.17657238,11.3167925,0.81881696
285,1436965116302,-0.05327099,11.701062,0.31783026
286,1436965116322,-0.57640404,11.333552,-0.36750996
287,1436965116342,-0.9816227,10.296863,-0.46627077
288,1436965116361,-0.7918822,9.57142,-0.022744916
289,1436965116381,-0.06703765,9.28232,0.56203884
290,1436965116399,1.0043676,9.356541,1.0283096
291,1436965116421,1.9542671,9.660006,1.423353
292,1436965116440,2.1613655,9.871294,0.9355343
293,1436965116526,1.4676456,10.075399,0.39025488
294,1436965116527,0.63087213,10.214263,0.350152
295,1436965116528,0.2148796,9.930551,0.694917
296,1436965116529,0.3854665,9.290101,0.87567925
297,1436965116538,0.97025025,8.803479,0.5686229
298,1436965116562,1.2336124,8.678981,0.46028528
299,1436965116578,1.411382,8.349778,0.5955577
300,1436965116609,1.3365631,7.946954,0.9900024
301,1436965116618,0.9923966,7.5854297,0.86849666
302,1436965116639,0.9211691,8.121731,0.6512229
303,1436965116659,1.0007763,9.111135,0.38307226
304,1436965116679,0.59136784,8.99322,-0.18255788
305,1436965116702,0.062249243,8.41921,-1.3275849
306,1436965116719,0.28550854,9.190742,-1.5640123
307,1436965116739,1.0761937,9.745598,-0.40821138
308,1436965116762,1.9261353,9.109938,1.3958195
309,1436965116782,2.0799627,8.144476,0.9151836
310,1436965116802,2.372654,8.804078,-0.8882488
311,1436965116822,2.7455509,9.91439,-1.893215
312,1436965116840,3.0101101,9.560646,-0.6961141
313,1436965116862,3.1519666,8.713099,0.3788824
314,1436965116880,3.3979707,9.135675,0.02813187
315,1436965116910,3.241749,10.332776,-0.6206968
316,1436965116919,2.8772318,11.021708,-0.27234045
317,1436965116941,2.558803,10.913968,0.22385786
318,1436965116959,2.48159,11.016919,0.16819267
319,1436965116980,2.4779987,11.3880205,0.18435353
320,1436965116999,2.154183,10.699687,1.3533225
321,1436965117023,1.5562311,9.916184,2.1601684
322,1436965117039,0.7673417,10.088568,0.770933
323,1436965117062,0.05865794,11.292253,-1.4574703
324,1436965117289,-0.581791,12.145186,-2.1883004
325,1436965117290,-0.85473,12.149377,-1.4131776
326,1436965117291,-0.6548142,11.902774,-0.51235914
327,1436965117292,-0.14963761,11.9746,-0.4782418
328,1436965117293,0.49559975,12.11466,-1.1947067
329,1436965117294,0.82240826,11.956643,-1.5849615
330,1436965117295,0.9271546,12.08174,-1.5316905
331,1436965117296,1.0348936,12.238561,-1.1911154
332,1436965117297,1.1378443,11.8261595,-0.39324763
333,1436965117298,0.8182184,11.516708,0.39983168
334,1436965117299,0.43035775,10.852917,0.5494693
335,1436965117351,-0.5955577,10.279505,0.20530279
336,1436965117352,-1.6843209,9.903017,-0.46806642
337,1436965117353,-2.5270798,9.651626,-0.6218939
338,1436965117359,-2.7575219,9.706693,-0.2837129
339,1436965117379,-2.4103625,10.261548,0.11192893
340,1436965117402,-1.8477252,10.953473,0.14425065
341,1436965117419,-1.4676456,11.136629,0.20709845
342,1436965117440,-1.1599907,10.989386,0.4345476
343,1436965117459,-0.94810385,10.869077,0.5231331
344,1436965117479,-0.86011696,10.418967,0.4189853
345,1436965117500,-0.801459,9.713276,0.4381389
346,1436965117520,-0.6877344,9.327211,0.3357868
347,1436965117540,-0.5243302,9.399037,0.08619126
348,1436965117559,-0.51834464,9.687539,0.0011971008
349,1436965117579,-0.64463884,9.919776,0.19093758
350,1436965117601,-0.75716627,10.019135,0.45789108
351,1436965117620,-0.94930094,10.235212,0.56443304
352,1436965117638,-1.4161704,10.439917,0.29867667
353,1436965117658,-2.0452468,10.530896,-0.12449849
354,1436965117678,-2.5791538,10.451887,-0.3393781
355,1436965117698,-2.7030537,10.024523,-0.34117374
356,1436965117718,-2.6461914,9.667787,-0.4249708
357,1436965117739,-2.3068132,9.485827,-0.36152446
358,1436965117759,-1.8489223,9.157822,0.059855044
359,1436965117779,-1.489792,8.9842415,0.36272156
360,1436965117798,-1.4185646,9.278131,0.33039984
361,1436965117818,-1.6490064,9.64564,0.18734628
362,1436965117838,-2.0967221,9.846154,0.30406362
363,1436965117858,-2.3774424,10.111312,0.5189432
364,1436965117884,-2.6767175,10.157999,0.4818331
365,1436965117900,-3.0992942,10.324396,0.18854338
366,1436965117919,-3.4883518,10.429741,-0.14185645
367,1436965117939,-3.8606503,10.047866,-0.2124854
368,1436965117959,-4.0563765,9.188946,0.08798691
369,1436965117979,-4.096479,8.42759,0.38726214
370,1436965117999,-4.084508,8.293514,0.5674258
371,1436965118019,-3.8672342,8.430583,0.7799112
372,1436965118039,-3.0669725,9.200318,1.1264719
373,1436965118059,-2.1266496,9.64983,2.336741
374,1436965118079,-2.082357,9.415198,3.329736
375,1436965118099,-3.6355953,9.328408,2.2541409
376,1436965118119,-4.89315,9.487024,0.4357447
377,1436965118139,-5.573103,9.6288805,-0.6099229
378,1436965118159,-5.1601033,9.454702,-0.6584055
379,1436965118179,-4.19943,8.848969,0.26515785
380,1436965118201,-3.608062,8.65863,1.0043676
381,1436965118222,-3.2465374,9.418191,0.91817635
382,1436965118240,-3.2291796,10.532093,0.13108255
383,1436965118266,-3.5362358,10.979809,-0.6422446
384,1436965118281,-3.882198,10.557233,-0.59735334
385,1436965118302,-4.31914,9.77792,-0.17537527
386,1436965118320,-4.8201265,9.281123,-0.08559271
387,1436965118340,-4.8961425,9.273342,-0.59974754
388,1436965118361,-4.1718965,9.832388,-0.825401
389,1436965118387,-3.1202433,10.105926,-0.4854244
390,1436965118402,-2.3918076,9.48044,0.48722005
391,1436965118423,-2.1613655,8.598776,1.4556746
392,1436965118441,-2.3235726,8.395866,1.6041151
393,1436965118469,-2.6844985,8.674791,0.9103952
394,1436965118541,-3.0268695,9.109938,0.25977087
395,1436965118542,-3.1723173,9.630077,0.020949265
396,1436965118543,-3.3423057,9.661801,0.1436521
397,1436965118544,-3.6966474,9.23683,0.43873745
398,1436965118563,-4.1282024,9.04709,0.47644615
399,1436965118583,-4.4364557,9.135675,0.13467385
400,1436965118601,-4.542998,9.266159,-0.21308395
401,1436965118620,-4.449624,9.395446,-0.20649989
402,1436965118646,-4.2479124,9.356541,-0.110133275
