id,attr_time,attr_x,attr_y,attr_z
1,1436892348001,0.88944596,10.070012,-0.9283517
2,1436892348022,0.85413146,10.061034,-0.9187749
3,1436892348044,0.80924016,10.038888,-0.91338795
4,1436892348062,0.91099375,10.038289,-0.8774749
5,1436892348084,0.9187749,10.032304,-0.81881696
6,1436892348104,0.9283517,10.049662,-0.7918822
7,1436892348124,0.92296475,10.059238,-0.7954735
8,1436892348143,0.91219085,10.060435,-0.81283146
9,1436892348164,0.8900445,10.044274,-0.79607207
10,1436892348184,0.94092125,10.067019,-0.7835025
11,1436892348203,0.9403227,10.048465,-0.7721301
12,1436892348224,0.86131406,10.047267,-0.87567925
13,1436892348242,0.84096336,10.0508585,-0.91578215
14,1436892348264,0.81043726,10.052056,-0.93254155
15,1436892348284,0.7978677,10.028113,-0.96905315
16,1436892348303,0.87089086,10.022727,-0.94930094
17,1436892348324,0.8619126,10.046669,-0.9911995
18,1436892348344,0.8846575,10.078991,-0.96426475
19,1436892348363,0.85173726,10.050261,-0.85293436
20,1436892348384,0.8858546,10.044873,-0.84096336
21,1436892348404,0.79248077,10.027515,-0.9175778
22,1436892348424,0.91219085,10.031107,-0.9068039
23,1436892348443,1.0283096,10.065224,-0.7529764
24,1436892348462,0.9672575,10.065823,-0.6973112
25,1436892348483,0.8170213,10.05445,-0.7781156
26,1436892348592,0.8583213,10.03769,-0.88944596
27,1436892348593,0.9127894,10.049063,-0.86490536
28,1436892348594,0.92535895,10.043676,-0.8655039
29,1436892348595,0.88525605,10.039486,-0.90620536
30,1436892348596,0.86969376,10.033501,-0.8888474
31,1436892348606,0.88525605,10.060435,-0.8631097
32,1436892348636,0.8319851,10.053253,-0.8888474
33,1436892348641,0.8391677,10.052056,-0.8738836
34,1436892348661,0.8750807,10.045472,-0.8924387
35,1436892348684,0.93254155,10.048465,-0.82599956
36,1436892348708,0.8798691,10.047267,-0.8475474
37,1436892348724,0.8714894,10.046669,-0.8463503
38,1436892348754,0.91099375,10.065224,-0.88645315
39,1436892348762,0.9187749,10.058042,-0.8355764
40,1436892348783,0.9672575,10.067618,-0.81343
41,1436892348802,0.93613285,10.065823,-0.7691373
42,1436892348823,0.83258367,10.065224,-0.7727286
43,1436892348845,0.7290344,10.043676,-0.9223662
44,1436892348865,0.8026561,10.029909,-0.961272
45,1436892348885,0.85054016,10.022727,-0.91099375
46,1436892348902,0.8655039,10.047866,-0.93254155
47,1436892348921,0.80684596,10.032902,-0.9588778
48,1436892348941,0.81881696,10.044274,-0.94451255
49,1436892348962,0.87687635,10.078392,-0.91338795
50,1436892348982,0.8146271,10.048465,-0.8559271
51,1436892349003,0.7882909,10.023325,-0.89064306
52,1436892349027,0.7918822,10.053253,-0.90979666
53,1436892349042,0.85772276,10.060435,-0.89543146
54,1436892349062,0.7787141,10.052056,-0.92176765
55,1436892349083,0.7799112,10.032902,-1.0426749
56,1436892349106,0.7661445,10.029311,-0.87208796
57,1436892349123,0.82779527,10.0508585,-0.85891986
58,1436892349145,0.8523358,10.050261,-0.8846575
59,1436892349162,0.84335756,10.059238,-0.9259575
60,1436892349182,0.7942764,10.052654,-0.9708488
61,1436892349203,0.7954735,10.063428,-1.0043676
62,1436892349222,0.8379706,10.024523,-0.9223662
63,1436892349242,0.74878657,10.031107,-0.91219085
64,1436892349311,0.9295488,10.058042,-0.9115923
65,1436892349312,0.9008184,10.06283,-0.9343372
66,1436892349313,0.87328506,10.05445,-0.9756372
67,1436892349322,0.8535329,10.043676,-0.9463082
68,1436892349347,0.9008184,10.075998,-0.9259575
69,1436892349363,0.81881696,10.042479,-0.94211835
70,1436892349382,0.717662,10.031705,-0.99060094
71,1436892349403,0.7906851,10.032902,-1.0259154
72,1436892349423,0.84814596,10.022128,-1.033098
73,1436892349443,0.80924016,10.031705,-1.0702082
74,1436892349462,0.74998367,10.034698,-1.1192893
75,1436892349485,0.79128367,10.023325,-1.1504139
76,1436892349503,0.81283146,10.010158,-1.1414356
77,1436892349523,0.79966336,10.028113,-1.1043255
78,1436892349545,0.82719666,10.0341,-1.1282675
79,1436892349565,0.830788,10.01315,-1.1372458
80,1436892349585,0.7026982,10.005369,-1.1390414
81,1436892349603,0.83378077,10.03769,-1.18094
82,1436892349623,0.82360536,10.026319,-1.1875241
83,1436892349645,0.8050503,10.041881,-1.1468226
84,1436892349666,0.8511387,10.035296,-1.0833763
85,1436892349688,0.83018947,10.031705,-1.0785879
86,1436892349705,0.86131406,10.03769,-1.0761937
87,1436892349723,0.84216046,10.016143,-1.1013328
88,1436892349745,0.8331822,10.023325,-1.1432313
89,1436892349763,0.8810662,10.033501,-1.1079168
90,1436892349783,0.8535329,10.0269165,-1.1701661
91,1436892349803,0.8858546,10.014946,-1.1695676
92,1436892349829,0.79128367,10.03769,-1.1923125
93,1436892349843,0.87208796,10.063428,-1.1647792
94,1436892349866,0.80804306,9.986216,-1.1701661
95,1436892349883,0.7200562,10.015544,-1.1893197
96,1436892349904,0.7374141,10.012551,-1.2078748
97,1436892349923,0.92296475,10.065823,-1.1162965
98,1436892349944,0.84814596,10.023924,-1.2210429
99,1436892349968,0.866701,10.035296,-1.1707647
100,1436892350044,0.82360536,9.982025,-1.1911154
101,1436892350045,0.7918822,10.02572,-1.204882
102,1436892350046,0.8002619,9.986814,-1.2366052
103,1436892350047,0.7697359,10.00896,-1.2401965
104,1436892350065,0.88166475,10.041282,-1.2425907
105,1436892350085,0.7918822,10.022128,-1.22224
106,1436892350102,0.7637503,9.980229,-1.1839328
107,1436892350131,0.7966706,10.041282,-1.2246342
108,1436892350142,0.86011696,10.036493,-1.2234371
109,1436892350165,0.88645315,10.01734,-1.1731589
110,1436892350190,0.80924016,10.046669,-1.1031284
111,1436892350204,0.87328506,10.022727,-1.1300632
112,1436892350223,0.86969376,10.005369,-1.1534066
113,1436892350246,0.9068039,10.003573,-1.18094
114,1436892350263,0.9427169,9.993398,-1.2395979
115,1436892350286,0.75836337,10.027515,-1.2743138
116,1436892350303,0.8367735,10.041881,-1.1988965
117,1436892350324,0.81881696,10.008362,-1.2659341
118,1436892350346,0.92416185,9.986814,-1.1971009
119,1436892350363,0.8206126,10.010158,-1.2605472
120,1436892350386,0.78888947,10.010756,-1.323395
121,1436892350403,0.86131406,10.012551,-1.2689269
122,1436892350429,0.93852705,9.985018,-1.2779051
123,1436892350446,0.95588505,9.96766,-1.3431472
124,1436892350464,0.96187055,9.973047,-1.3742718
125,1436892350489,0.9475053,10.020332,-1.3802572
126,1436892350503,1.0229226,10.022727,-1.347337
127,1436892350524,0.97144735,9.998785,-1.2689269
128,1436892350543,0.81402856,9.987412,-1.323395
129,1436892350563,0.98341835,10.010756,-1.2114661
130,1436892350583,0.93732995,10.010158,-1.2084733
131,1436892350603,0.9367314,9.986814,-1.2611457
132,1436892350629,0.93972415,10.005369,-1.2880806
133,1436892350644,0.9175778,10.007165,-1.3449428
134,1436892350664,0.9235633,10.015544,-1.3569138
135,1436892350772,0.8882488,9.986814,-1.3377602
136,1436892350773,0.99538934,9.995792,-1.3467385
137,1436892350795,0.9211691,9.967062,-1.299453
138,1436892350796,0.8882488,9.998186,-1.3341689
139,1436892350797,0.98820674,9.986216,-1.3269863
140,1436892350798,0.9139865,9.991004,-1.3120226
141,1436892350809,0.83617496,10.0029745,-1.3569138
142,1436892350823,0.91937345,10.007165,-1.377863
143,1436892350843,0.9744401,10.007763,-1.3844471
144,1436892350876,0.9367314,9.989208,-1.365892
145,1436892350889,0.9259575,9.980229,-1.4059949
146,1436892350904,0.9660604,9.969456,-1.3664906
147,1436892350924,0.9115923,9.993398,-1.3443443
148,1436892350944,0.84575176,10.008362,-1.3784616
149,1436892350963,1.0103531,10.010158,-1.3084313
150,1436892350986,0.8702923,10.007165,-1.3491327
151,1436892351004,0.8912416,9.982624,-1.3347675
152,1436892351027,0.81283146,9.988011,-1.4036007
153,1436892351045,0.87328506,10.031705,-1.4329298
154,1436892351067,0.9044097,9.985617,-1.388637
155,1436892351087,0.7715315,9.964667,-1.4742297
156,1436892351104,0.7356185,10.016143,-1.4550761
157,1436892351127,0.82001406,10.018537,-1.3784616
158,1436892351147,0.7158663,10.004171,-1.4401124
159,1436892351166,0.664391,9.982025,-1.4987702
160,1436892351187,0.6135142,10.018537,-1.484405
161,1436892351205,0.7302315,9.993398,-1.4131776
162,1436892351227,0.80325466,9.9951935,-1.4185646
163,1436892351247,0.8948329,9.99639,-1.4341269
164,1436892351266,0.7422025,9.991602,-1.4670471
165,1436892351286,0.7787141,9.993997,-1.4903905
166,1436892351306,0.85652566,9.995792,-1.4443022
167,1436892351326,0.7116765,9.968858,-1.4149733
168,1436892351348,0.75716627,9.983821,-1.4173675
169,1436892351367,0.79846627,10.010158,-1.4036007
170,1436892351387,0.7823054,9.98442,-1.4317327
171,1436892351405,0.7398083,9.999982,-1.4688427
172,1436892351424,0.8182184,9.99639,-1.4796166
173,1436892351506,0.8936358,9.993997,-1.5023615
174,1436892351507,0.82240826,9.991602,-1.3982137
175,1436892351508,0.88405895,10.011953,-1.4275428
176,1436892351509,0.83138657,9.985018,-1.4574703
177,1436892351526,0.7457938,9.979631,-1.4377182
178,1436892351546,0.8026561,9.986216,-1.4993688
179,1436892351565,0.6901286,9.97185,-1.4927847
180,1436892351594,0.8110358,10.005369,-1.4526819
181,1436892351605,0.88166475,9.999383,-1.4945804
182,1436892351627,0.75477207,9.975441,-1.4808137
183,1436892351645,0.76315176,9.9790325,-1.4688427
184,1436892351665,0.8230068,9.97185,-1.4820108
185,1436892351690,0.8074445,9.988609,-1.4466964
186,1436892351707,0.75118077,9.97185,-1.4083891
187,1436892351732,0.7661445,10.016143,-1.4000094
188,1436892351747,0.8870517,10.0029745,-1.4065934
189,1436892351767,0.83018947,9.995792,-1.4221559
190,1436892351785,0.8924387,10.014347,-1.3760674
191,1436892351806,0.8834604,9.996989,-1.3904326
192,1436892351828,0.8631097,9.989208,-1.4694413
193,1436892351847,0.8631097,9.983223,-1.412579
194,1436892351867,0.86251116,9.989806,-1.3988123
195,1436892351886,0.83617496,10.007165,-1.423353
196,1436892351907,0.7727286,10.010756,-1.4053963
197,1436892351928,0.8619126,10.001179,-1.3814543
198,1436892351947,0.9008184,9.986814,-1.4137762
199,1436892351968,0.9947908,9.966463,-1.3736732
200,1436892351987,0.90381116,9.983821,-1.3545196
201,1436892352006,0.82779527,10.020931,-1.407192
202,1436892352028,0.91697925,9.999982,-1.365892
203,1436892352048,0.96785605,9.974244,-1.270124
204,1436892352068,0.9032126,10.01315,-1.3443443
205,1436892352087,0.9211691,10.007763,-1.3347675
206,1436892352108,0.95708215,10.002377,-1.3389573
207,1436892352127,0.92057055,9.982025,-1.3054385
208,1436892352154,0.8738836,9.998785,-1.353921
209,1436892352210,0.9331401,9.978435,-1.3533225
210,1436892352211,1.0319009,9.981427,-1.3186066
211,1436892352212,0.84694886,9.986814,-1.3299791
212,1436892352230,0.9259575,10.011354,-1.3371617
213,1436892352245,0.9888053,10.011953,-1.3120226
214,1436892352265,0.91219085,10.005967,-1.299453
215,1436892352286,0.82360536,10.010158,-1.3090298
216,1436892352306,0.96785605,10.007763,-1.3084313
217,1436892352333,0.98461545,10.004171,-1.3180081
218,1436892352346,0.95708215,9.996989,-1.3365631
219,1436892352368,0.88525605,10.004171,-1.340753
220,1436892352388,0.90859956,10.006566,-1.3395559
221,1436892352408,0.9744401,9.9928,-1.3239936
222,1436892352425,0.8415619,10.01315,-1.3461399
223,1436892352448,0.8834604,10.01734,-1.3012487
224,1436892352468,0.90859956,10.007165,-1.3180081
225,1436892352488,0.94570965,9.988609,-1.311424
226,1436892352507,0.8295909,10.00477,-1.2826935
227,1436892352528,0.91817635,10.018537,-1.3036429
228,1436892352548,0.93972415,10.01315,-1.316811
229,1436892352568,0.90740246,10.004171,-1.2826935
230,1436892352588,0.8655039,10.034698,-1.2922704
231,1436892352607,0.85473,9.99639,-1.2826935
232,1436892352628,0.8924387,10.01734,-1.287482
233,1436892352648,0.91338795,10.009559,-1.2952632
234,1436892352668,0.86251116,10.022128,-1.2970588
235,1436892352689,0.9187749,10.015544,-1.2802993
236,1436892352708,0.90620536,9.991004,-1.2755109
237,1436892352735,0.825401,10.00896,-1.2515689
238,1436892352752,0.91219085,10.01734,-1.2695254
239,1436892352769,0.9175778,10.017939,-1.2683283
240,1436892352788,0.86610246,10.006566,-1.2946646
241,1436892352808,0.85173726,10.011953,-1.2976574
242,1436892352834,0.83138657,10.004171,-1.2384008
243,1436892352845,0.9056068,10.025121,-1.1707647
244,1436892352865,0.79966336,9.988609,-1.1785458
245,1436892352885,0.8098387,10.014347,-1.2575544
246,1436892352921,0.9463082,10.043077,-1.2629414
247,1436892352930,0.8936358,10.025121,-1.1947067
248,1436892352945,0.7649474,10.014946,-1.1899183
249,1436892352965,0.8463503,10.018537,-1.1905168
250,1436892352985,0.9552865,10.02153,-1.2018893
251,1436892353007,0.87927055,10.025121,-1.1893197
252,1436892353025,0.8834604,10.034698,-1.2138603
253,1436892353058,0.8331822,10.019135,-1.2563573
254,1436892353065,0.89184016,10.016742,-1.2557588
255,1436892353086,0.81343,9.991004,-1.1587936
256,1436892353109,0.8086416,10.010158,-1.1402385
257,1436892353125,0.86490536,10.022128,-1.2228385
258,1436892353145,0.8726865,10.024523,-1.1599907
259,1436892353169,0.8158242,10.047866,-1.1264719
260,1436892353186,0.8319851,10.022727,-1.1611878
261,1436892353205,0.8822633,10.025121,-1.1647792
262,1436892353238,0.85413146,10.00477,-1.1013328
263,1436892353245,0.7918822,10.006566,-1.1228806
264,1436892353266,0.8834604,10.038888,-1.1803415
265,1436892353288,0.8655039,10.019734,-1.1288661
266,1436892353308,0.79367787,10.036493,-1.062427
267,1436892353330,0.7978677,10.043077,-1.0809821
268,1436892353348,0.8846575,10.0269165,-1.1204864
269,1436892353368,0.90021986,10.029909,-1.1234791
270,1436892353386,0.8391677,10.032902,-1.1312603
271,1436892353406,0.81283146,10.039486,-1.1779473
272,1436892353425,0.8858546,10.0269165,-1.1192893
273,1436892353449,0.8678981,10.020931,-1.0845734
274,1436892353468,0.7930793,10.02572,-1.1097125
275,1436892353488,0.88525605,10.033501,-1.1306617
276,1436892353506,0.90979666,10.029311,-1.1210849
277,1436892353526,0.89603,10.031107,-1.09834
278,1436892353548,0.7870938,10.023924,-1.1073183
279,1436892353566,0.81163436,10.011953,-1.1324574
280,1436892353587,0.9139865,10.025121,-1.103727
281,1436892353609,0.8523358,10.022128,-1.0845734
282,1436892353691,0.7649474,10.0341,-1.0672154
283,1436892353692,0.93493575,10.0341,-1.0690111
284,1436892353693,0.9295488,10.024523,-1.0324994
285,1436892353694,0.82719666,10.024523,-1.0714053
286,1436892353707,0.8242039,10.043676,-1.1067197
287,1436892353732,0.92176765,10.028113,-1.0702082
288,1436892353764,0.87448215,10.035296,-1.0528502
289,1436892353768,0.8331822,10.043676,-1.0313023
290,1436892353786,0.84575176,10.032304,-1.0821792
291,1436892353843,0.9271546,10.030508,-1.0301052
292,1436892353848,0.8403648,10.015544,-1.0570401
293,1436892353849,0.83018947,10.032902,-1.0468647
294,1436892353883,0.8595184,10.027515,-1.1192893
295,1436892353886,0.95468795,10.01734,-1.0067618
296,1436892353908,0.8367735,10.038888,-1.0378864
297,1436892353928,0.8265981,10.022128,-1.0821792
298,1436892353949,0.8750807,10.034698,-1.1025299
299,1436892353969,0.93254155,10.046669,-1.0307038
300,1436892353989,0.84934306,10.028712,-0.9876082
301,1436892354010,0.8379706,10.043077,-1.0600328
302,1436892354029,0.86969376,10.036493,-1.067814
303,1436892354050,0.93852705,10.024523,-1.0450691
304,1436892354070,0.83497787,10.027515,-1.0378864
305,1436892354090,0.78050977,10.06283,-1.0809821
306,1436892354110,0.84934306,10.036493,-1.0360907
307,1436892354129,0.8619126,10.020931,-0.97862995
308,1436892354150,0.7930793,10.019135,-1.0289081
309,1436892354169,0.85532856,10.041881,-1.0450691
310,1436892354190,0.8900445,10.029909,-1.050456
311,1436892354210,0.842759,10.033501,-1.0684125
312,1436892354230,0.8690952,10.043676,-1.0618285
313,1436892354250,0.84216046,10.029311,-1.0432734
314,1436892354269,0.75956047,10.019734,-1.0672154
315,1436892354290,0.8451532,10.041881,-1.0606314
316,1436892354310,0.8559271,10.027515,-1.0319009
317,1436892354330,0.80325466,10.027515,-1.0444705
318,1436892354350,0.83138657,10.034698,-1.0426749
319,1436892354368,0.8559271,10.026319,-1.0618285
320,1436892354400,0.8475474,10.035895,-1.0684125
321,1436892354468,0.87567925,10.029311,-1.1228806
322,1436892354469,0.8367735,10.031705,-1.049259
323,1436892354470,0.81283146,10.041282,-1.103727
324,1436892354471,0.8391677,10.052654,-1.0833763
325,1436892354490,0.82779527,10.016742,-1.0749966
326,1436892354507,0.8265981,10.02572,-1.0684125
327,1436892354576,0.8463503,10.023325,-1.0534488
328,1436892354577,0.78410107,10.0341,-1.0570401
329,1436892354578,0.7882909,10.041881,-1.1145009
330,1436892354588,0.8038532,10.031705,-1.0809821
331,1436892354612,0.86011696,10.034698,-1.0726024
332,1436892354628,0.8738836,10.032304,-1.0767922
333,1436892354651,0.8726865,10.0269165,-1.1121067
334,1436892354671,0.8571242,10.032902,-1.1198878
335,1436892354689,0.8846575,10.043676,-1.1270704
336,1436892354708,0.75716627,10.031705,-1.0857705
337,1436892354735,0.729633,10.024523,-1.0301052
338,1436892354751,0.84814596,10.028113,-1.073201
339,1436892354769,0.8798691,10.027515,-1.0989386
340,1436892354788,0.830788,10.034698,-1.1025299
341,1436892354808,0.7715315,10.033501,-1.1288661
342,1436892354829,0.7541735,10.007165,-1.1384429
343,1436892355001,0.7697359,10.049063,-1.0827777
344,1436892355002,0.81283146,10.043077,-1.0115502
345,1436892355003,0.8750807,10.029311,-1.0636241
346,1436892355004,0.8230068,10.036493,-1.115698
347,1436892355005,0.8511387,10.026319,-1.0827777
348,1436892355006,0.8074445,10.015544,-1.1168951
349,1436892355007,0.80564886,10.023325,-1.0803835
350,1436892355008,0.85473,10.011354,-1.0696096
351,1436892355009,0.7703344,10.014347,-1.1085154
352,1436892355059,0.85652566,10.022128,-1.1079168
353,1436892355060,0.8242039,10.037092,-1.0989386
354,1436892355073,0.7870938,10.025121,-1.1330559
355,1436892355088,0.79008657,10.023924,-1.1282675
356,1436892355162,0.878672,10.038888,-1.0833763
357,1436892355163,0.84814596,10.04607,-1.0546459
358,1436892355164,0.79128367,10.02153,-1.1031284
359,1436892355169,0.83138657,10.020931,-1.1306617
360,1436892355187,0.8655039,10.022727,-1.0857705
361,1436892355208,0.8110358,10.023325,-1.0851719
362,1436892355229,0.7338228,10.036493,-1.158195
363,1436892355272,0.8122329,10.030508,-1.1701661
364,1436892355273,0.85652566,10.031705,-1.0899603
365,1436892355289,0.8583213,10.031107,-1.0672154
366,1436892355309,0.8098387,10.023325,-1.0905589
367,1436892355329,0.83976626,10.019734,-1.146224
368,1436892355349,0.8242039,10.061633,-1.0941502
369,1436892355368,0.7553706,10.043676,-1.1216835
370,1436892355391,0.80564886,10.043077,-1.1300632
371,1436892355410,0.7739257,10.028712,-1.0959458
372,1436892355430,0.79726917,10.014347,-1.0959458
373,1436892355451,0.80445176,10.0269165,-1.1067197
374,1436892355471,0.7793127,10.0341,-1.1216835
375,1436892355491,0.6955156,10.028712,-1.0941502
376,1436892355511,0.8319851,10.029311,-1.1641805
377,1436892355530,0.842759,10.029311,-1.067814
378,1436892355548,0.7469909,10.031107,-1.0654198
379,1436892355570,0.7685388,10.0341,-1.0989386
380,1436892355591,0.81283146,10.029311,-1.1025299
381,1436892355608,0.7505822,10.016143,-1.0887632
382,1436892355629,0.7278373,10.019135,-1.1139023
383,1436892355648,0.8595184,10.022128,-1.1414356
384,1436892355673,0.81761986,10.014946,-1.0971429
385,1436892355694,0.75596917,10.037092,-1.0684125
386,1436892355714,0.7577648,10.032304,-1.1210849
387,1436892355732,0.81642276,10.016742,-1.0875661
388,1436892355748,0.7846996,10.048465,-1.027711
389,1436892355768,0.7793127,10.019734,-1.0468647
390,1436892355788,0.8295909,10.026319,-1.1414356
391,1436892355809,0.86011696,10.031107,-1.1145009
392,1436892355880,0.7799112,10.034698,-1.050456
393,1436892355892,0.79726917,10.037092,-1.073201
394,1436892355893,0.75237787,10.023924,-1.0899603
395,1436892355894,0.8319851,10.041881,-1.0636241
396,1436892355908,0.7565677,10.032304,-1.0636241
397,1436892355934,0.8230068,10.044274,-1.079785
398,1436892355950,0.83497787,10.0269165,-1.1336545
399,1436892355980,0.7685388,10.019734,-1.1043255
400,1436892355988,0.7661445,10.053851,-1.0672154
401,1436892356009,0.8559271,10.023924,-1.0791864
402,1436892356029,0.8170213,10.02153,-1.0510546
403,1436892356049,0.80564886,10.040684,-1.0809821
404,1436892356071,0.8206126,10.037092,-1.067814
405,1436892356088,0.80086046,10.029311,-1.091756
406,1436892356111,0.8678981,10.031107,-1.0606314
407,1436892356132,0.81043726,10.020931,-1.0546459
408,1436892356150,0.8295909,10.023325,-1.1210849
409,1436892356172,0.801459,10.042479,-1.0672154
