id,attr_time,attr_x,attr_y,attr_z
1,1436464501032,0.01740966,0.09621128,0.058643065
2,1436464501053,-0.00061086525,0.09437868,0.06780604
3,1436464501072,-0.002443461,0.106595986,0.07544186
4,1436464501093,-0.0027488936,0.11575896,0.08460484
5,1436464501113,0.005497787,0.07513642,0.081855945
6,1436464501136,0.01863139,0.053145275,0.0693332
7,1436464501152,0.020158553,0.0571159,0.064751714
8,1436464501170,0.027794369,0.03970624,0.057421334
9,1436464501198,0.036651913,0.040927973,0.05009095
10,1436464501210,0.0421497,0.04153884,0.03023783
11,1436464501232,0.050396383,0.036651913,0.015577064
12,1436464501253,0.07086037,0.05100725,0.004581489
13,1436464501275,0.08277224,0.081855945,0.008246681
14,1436464501296,0.07971791,0.042760566,0.0076358155
15,1436464501313,0.07727446,0.028099801,-0.003970624
16,1436464501330,0.07574729,0.038789943,-0.022907447
17,1436464501349,0.07391469,0.0290161,-0.040927973
18,1436464501370,0.07269296,0.013439035,-0.054061573
19,1436464501393,0.0711658,-0.01740966,-0.076358154
20,1436464501415,0.076052725,-0.06627888,-0.098043874
21,1436464501463,0.081855945,-0.09773844,-0.10293079
22,1436464501464,0.07452556,-0.111177474,-0.10476339
23,1436464501479,0.063224554,-0.11484267,-0.11178834
24,1436464501490,0.05222898,-0.089491755,-0.112399206
25,1436464501513,0.036651913,-0.08552113,-0.0983493
26,1436464501530,0.020158553,-0.0720821,-0.09193522
27,1436464501550,0.013744468,-0.059864793,-0.08155051
28,1436464501571,0.0033597588,-0.06352998,-0.06414085
29,1436464501592,0.005497787,-0.08582657,-0.049480084
30,1436464501610,0.008552114,-0.1337795,-0.047647487
31,1436464501630,0.01985312,-0.17592919,-0.040317107
32,1436464501653,0.015882496,-0.26511553,-0.025350908
33,1436464501670,0.023518313,-0.35216382,-0.01863139
34,1436464501693,0.042455133,-0.37293324,-0.007330383
35,1436464501714,0.052534413,-0.41416663,-0.00030543262
36,1436464501733,0.062308256,-0.49571714,0.010995574
37,1436464501753,0.056505036,-0.55833083,0.0030543262
38,1436464501772,0.04428773,-0.5864306,-0.02687807
39,1436464501793,0.03023783,-0.4447099,-0.047036625
40,1436464501813,0.025045475,-0.3051272,-0.035124753
41,1436464501833,0.0012217305,-0.2968805,0.0
42,1436464501855,-0.020463986,-0.3555236,0.007941248
43,1436464501870,-0.025961773,-0.34055737,-0.007330383
44,1436464501893,-0.01863139,-0.25870144,-0.041233405
45,1436464501914,-0.016798794,-0.1957823,-0.056199603
46,1436464501933,-0.025961773,-0.23304509,-0.04917465
47,1436464501983,-0.018936822,-0.2669481,-0.05222898
48,1436464501984,-0.020463986,-0.25900686,-0.05222898
49,1436464501994,-0.024129177,-0.25137106,-0.049785517
50,1436464502014,-0.036957346,-0.24648413,-0.022296581
51,1436464502032,-0.03481932,-0.2611449,-0.009468411
52,1436464502054,-0.032375857,-0.25411993,0.0015271631
53,1436464502074,-0.032986723,-0.24648413,0.01740966
54,1436464502094,-0.025350908,-0.23273966,0.0067195175
55,1436464502114,-0.014966198,-0.20433442,0.0036651916
56,1436464502137,0.00580322,-0.17562376,0.0
57,1436464502265,-0.009468411,-0.17379116,0.015577064
58,1436464502266,-0.0018325958,-0.20738874,0.012217305
59,1436464502267,-0.004886922,-0.19608775,0.01160644
60,1436464502268,-0.0030543262,-0.18081611,0.020158553
61,1436464502269,-0.019242255,-0.1704314,0.03481932
62,1436464502277,-0.03359759,-0.16554448,0.044593163
63,1436464502278,-0.051923547,-0.16126843,0.055283304
64,1436464502342,-0.059253927,-0.19303341,0.055588737
65,1436464502343,-0.073303826,-0.17348573,0.04734206
66,1436464502344,-0.087964594,-0.15515977,0.047647487
67,1436464502514,-0.10140363,-0.12705997,0.03726278
68,1436464502515,-0.109650314,-0.121256754,0.032986723
69,1436464502516,-0.115453534,-0.13713925,0.034208454
70,1436464502517,-0.11484267,-0.13988814,0.013133603
71,1436464502518,-0.12003502,-0.112399206,-0.013133603
72,1436464502519,-0.106595986,-0.076052725,-0.025350908
73,1436464502520,-0.09407325,-0.03604105,-0.04337143
74,1436464502521,-0.09162979,-0.029321533,-0.05467244
75,1436464502522,-0.09132435,-0.04550946,-0.06658431
76,1436464502539,-0.100792766,-0.046731193,-0.084910266
77,1436464502553,-0.12156218,-0.017104227,-0.09621128
78,1436464502572,-0.1459968,0.0030543262,-0.096516706
79,1436464502592,-0.18112154,0.027183503,-0.09773844
80,1436464502611,-0.2144137,0.06688975,-0.095294975
81,1436464502634,-0.23976462,0.118507855,-0.09254608
82,1436464502651,-0.28038713,0.1441642,-0.07849618
83,1436464502670,-0.31306845,0.13469578,-0.060170226
84,1436464502694,-0.3313944,0.11636983,-0.05009095
85,1436464502714,-0.34483343,0.14508049,-0.043676864
86,1436464502735,-0.3494149,0.22724187,-0.055283304
87,1436464502752,-0.35521814,0.30085114,-0.06566802
88,1436464502771,-0.37323865,0.31398472,-0.06536258
89,1436464502792,-0.37904188,0.28771752,-0.05955936
90,1436464502812,-0.38637227,0.27122417,-0.04886922
91,1436464502833,-0.3915646,0.34055737,-0.034513887
92,1436464502854,-0.37690386,0.3943135,-0.0036651916
93,1436464502874,-0.3680463,0.39492437,0.011911872
94,1436464502893,-0.3594942,0.3539964,0.01282817
95,1436464502916,-0.355829,0.33567044,0.015271631
96,1436464502945,-0.3585779,0.34269542,0.028099801
97,1436464502950,-0.34025195,0.35460728,0.041233405
98,1436464502975,-0.31245756,0.35613444,0.057421334
99,1436464502992,-0.2932153,0.3213151,0.050396383
100,1436464503012,-0.27855456,0.31642818,0.05131268
101,1436464503031,-0.27030787,0.36377025,0.051618114
102,1436464503055,-0.26419923,0.4538729,0.07086037
103,1436464503073,-0.25045475,0.4972443,0.09712757
104,1436464503093,-0.24923302,0.52015173,0.1459968
105,1436464503115,-0.26175576,0.5030475,0.204029
106,1436464503135,-0.2648101,0.4822781,0.23915374
107,1436464503151,-0.27152961,0.54000485,0.29993483
108,1436464503175,-0.2489276,0.6096435,0.35735616
109,1436464503195,-0.21502456,0.54305923,0.38545597
110,1436464503215,-0.18020524,0.41263947,0.37568212
111,1436464503235,-0.17470746,0.321926,0.31703907
112,1436464503255,-0.16371189,0.18051068,0.2312125
113,1436464503275,-0.14080444,-0.0076358155,0.18081611
114,1436464503295,-0.124311075,-0.10751228,0.086437434
115,1436464503313,-0.09621128,-0.17165314,-0.03145956
116,1436464503335,-0.07360926,-0.13225232,-0.1469131
117,1436464503355,-0.0693332,-0.06688975,-0.2660318
118,1436464503373,-0.044593163,-0.03604105,-0.36926803
119,1436464503394,-0.019547688,-0.043676864,-0.42638394
120,1436464503415,0.008246681,-0.090713486,-0.47219884
121,1436464503436,0.036651913,-0.1282817,-0.50335294
122,1436464503456,0.051618114,-0.081855945,-0.5216789
123,1436464503476,0.00030543262,0.0,-0.5571091
124,1436464503495,-0.005497787,0.122783914,-0.50671273
125,1436464503513,0.016798794,0.11148291,-0.37598756
126,1436464503532,0.04337143,0.022602014,-0.27030787
127,1436464503554,0.04428773,-0.04917465,-0.15485434
128,1436464503573,0.008552114,-0.006414085,-0.082161374
129,1436464503593,-0.017715093,0.10170906,-0.032375857
130,1436464503646,-0.04428773,0.2003638,0.01863139
131,1436464503647,-0.043982297,0.30268374,0.05955936
132,1436464503653,-0.04428773,0.3930918,0.084910266
133,1436464503675,-0.06963864,0.4700608,0.089186326
134,1436464503694,-0.087659165,0.5549711,0.0852157
135,1436464503713,-0.084910266,0.550695,0.06994407
136,1436464503732,-0.08246681,0.50915617,0.043676864
137,1436464503756,-0.05681047,0.43004912,0.0125227375
138,1436464503773,-0.03268129,0.33322698,-0.021685716
139,1436464503793,0.00030543262,0.24923302,-0.057726767
140,1436464503818,0.04550946,0.115453534,-0.093462385
141,1436464503833,0.074830994,-0.046731193,-0.12064589
142,1436464503855,0.12003502,-0.16554448,-0.16218472
143,1436464503872,0.14110987,-0.25411993,-0.20341812
144,1436464503895,0.14508049,-0.29749137,-0.204029
145,1436464503915,0.15118915,-0.2996294,-0.18417588
146,1436464503935,0.12064589,-0.2874121,-0.0870483
147,1436464503955,0.06688975,-0.23457226,0.016798794
148,1436464503975,0.03634648,-0.006414085,-0.03359759
149,1436464503995,0.032070424,0.25870144,-0.17195857
150,1436464504014,0.06261369,0.43279803,-0.17531833
151,1436464504035,0.10903945,0.22143865,-0.110872045
152,1436464504054,0.13988814,-0.06078109,-0.025045475
153,1436464504075,0.12095132,-0.36957347,0.026572637
154,1436464504096,0.12339478,-0.39278635,0.024740042
155,1436464504113,0.116980694,-0.258396,0.011301007
156,1436464504133,0.11026118,0.0012217305,0.004581489
157,1436464504155,0.10781772,0.22143865,0.02107485
158,1436464504178,0.090713486,0.31429017,0.048258353
159,1436464504198,0.084910266,0.34238997,0.06963864
160,1436464504218,0.08399397,0.301462,0.07880162
161,1436464504234,0.0870483,0.27122417,0.0852157
162,1436464504253,0.08093964,0.24495697,0.07849618
163,1436464504273,0.07880162,0.22357668,0.065973446
164,1436464504293,0.07360926,0.22785273,0.05131268
165,1436464504315,0.0711658,0.23762658,0.034208454
166,1436464504336,0.07360926,0.24801129,0.026572637
167,1436464504386,0.07666359,0.26511553,0.023518313
168,1436464504389,0.08155051,0.26389378,0.021380283
169,1436464504403,0.07788532,0.24709499,0.018020526
170,1436464504413,0.07422013,0.23151793,0.016187929
171,1436464504435,0.06841691,0.23701571,0.0076358155
172,1436464504454,0.06261369,0.27947086,-0.005497787
173,1436464504474,0.055283304,0.30757064,-0.012217305
174,1436464504495,0.06352998,0.3231477,-0.026572637
175,1436464504514,0.08307768,0.36163223,-0.059253927
176,1436464504534,0.08827003,0.4034765,-0.06872234
177,1436464504553,0.09315695,0.41080686,-0.08093964
178,1436464504576,0.08735373,0.4147775,-0.10842858
179,1436464504595,0.0870483,0.38973203,-0.113926366
180,1436464504616,0.07880162,0.32803464,-0.10903945
181,1436464504636,0.06291912,0.29749137,-0.09560041
182,1436464504656,0.05100725,0.2773328,-0.09010262
183,1436464504676,0.046731193,0.23335053,-0.06383542
184,1436464504696,0.03726278,0.18845193,-0.04062254
185,1436464504716,0.03573562,0.13255776,-0.021991149
186,1436464504736,0.025350908,0.10048734,-0.01863139
187,1436464504756,0.016187929,0.09712757,-0.01740966
188,1436464504777,0.0076358155,0.13988814,-0.0015271631
189,1436464504794,0.007330383,0.1731803,0.01740966
190,1436464504816,0.0009162979,0.16493362,0.042760566
191,1436464504836,-0.0036651916,0.1469131,0.05222898
192,1436464504856,-0.002443461,0.13775012,0.060170226
193,1436464504877,-0.0030543262,0.10995574,0.06780604
194,1436464504896,-0.010995574,0.063224554,0.06994407
195,1436464504914,-0.013439035,0.05497787,0.067500606
196,1436464504935,-0.013439035,0.05131268,0.06352998
197,1436464504956,-0.0030543262,0.06383542,0.0711658
198,1436464504976,-0.015577064,0.025350908,0.080634214
199,1436464504997,-0.02107485,-0.041233405,0.083383106
200,1436464505017,-0.018936822,-0.08155051,0.118202426
201,1436464505036,-0.03023783,-0.13469578,0.13194689
202,1436464505060,-0.022296581,-0.20555615,0.15821409
203,1436464505124,-0.013439035,-0.2678644,0.20738874
204,1436464505125,-0.05100725,-0.39675698,0.22540927
205,1436464505126,-0.08399397,-0.552833,0.1863139
206,1436464505133,-0.07574729,-0.5503896,0.12980886
207,1436464505159,-0.07422013,-0.38912117,0.073303826
208,1436464505175,-0.05955936,-0.24648413,0.04795292
209,1436464505194,-0.033292156,-0.23915374,0.036651913
210,1436464505216,-0.029321533,-0.32650748,0.008857546
211,1436464505235,-0.03359759,-0.42180246,-0.021380283
212,1436464505255,-0.03145956,-0.4196644,-0.06352998
213,1436464505275,-0.021991149,-0.28496864,-0.09682214
214,1436464505295,-0.020158553,-0.15271631,-0.089186326
215,1436464505313,0.0009162979,-0.16493362,-0.070249505
216,1436464505337,-0.005192355,-0.258396,-0.027488936
217,1436464505357,-0.034513887,-0.4025602,-0.004581489
218,1436464505377,-0.044898596,-0.45081854,-0.002443461
219,1436464505397,-0.052839845,-0.37323865,-0.00061086525
220,1436464505417,-0.05681047,-0.22968534,0.013744468
221,1436464505437,-0.056199603,-0.13408493,0.017715093
222,1436464505457,-0.046731193,-0.11911872,0.023518313
223,1436464505477,-0.033292156,-0.105374254,0.029626964
224,1436464505500,-0.03848451,-0.081855945,0.021685716
225,1436464505515,-0.061086524,-0.063224554,0.0125227375
226,1436464505537,-0.06352998,-0.006414085,0.0033597588
227,1436464505556,-0.059253927,0.0693332,-0.013744468
228,1436464505576,-0.06047566,0.13408493,-0.013744468
229,1436464505595,-0.055588737,0.13439035,-0.006414085
230,1436464505618,-0.04428773,0.083383106,-0.0012217305
231,1436464505637,-0.040927973,0.048258353,-0.00580322
232,1436464505658,-0.04550946,0.03145956,-0.009162978
233,1436464505677,-0.045814894,0.07238753,-0.017104227
234,1436464505696,-0.046731193,0.13225232,-0.02076942
235,1436464505715,-0.055283304,0.15760323,-0.02443461
236,1436464505737,-0.04550946,0.16432275,-0.021991149
237,1436464505755,-0.04153884,0.16218472,-0.021991149
238,1436464505820,-0.046120327,0.13744467,-0.02107485
239,1436464505821,-0.04917465,0.12064589,-0.017104227
240,1436464505822,-0.040011674,0.13103059,-0.02443461
241,1436464505844,-0.043066,0.15118915,-0.028710667
242,1436464505854,-0.041233405,0.19211712,-0.025350908
243,1436464505877,-0.03756821,0.19242255,-0.021991149
244,1436464505894,-0.049785517,0.1695151,-0.004276057
245,1436464505915,-0.03940081,0.1337795,-0.00030543262
246,1436464505937,-0.034208454,0.09987647,0.0018325958
247,1436464505955,-0.020463986,0.118202426,0.016187929
248,1436464505976,-0.008552114,0.10323623,0.043066
249,1436464505997,-0.01863139,0.03390302,0.046120327
250,1436464506015,-0.03970624,-0.016798794,0.04886922
251,1436464506038,-0.070554934,-0.007941248,0.047647487
252,1436464506058,-0.070249505,0.06841691,0.025350908
253,1436464506077,-0.054061573,0.18325958,-0.006414085
254,1436464506098,-0.03848451,0.28069258,-0.017715093
255,1436464506118,-0.019547688,0.2611449,-0.0018325958
256,1436464506138,-0.004886922,0.13225232,0.003970624
257,1436464506158,0.01160644,0.04428773,0.03145956
258,1436464506178,-0.010995574,-0.06047566,-0.013133603
259,1436464506198,-0.019547688,-0.06169739,-0.037873644
260,1436464506219,-0.037873644,-0.004276057,-0.06047566
261,1436464506236,-0.0421497,0.07544186,-0.064446285
262,1436464506258,-0.035124753,0.10598512,-0.058643065
263,1436464506275,-0.017104227,0.0711658,-0.032986723
264,1436464506295,-0.01038471,-0.022907447,-0.035430185
265,1436464506316,-0.017715093,-0.06352998,-0.038789943
266,1436464506339,-0.022296581,-0.041233405,-0.051923547
267,1436464506359,-0.021685716,0.010995574,-0.060170226
268,1436464506382,-0.020463986,0.03390302,-0.0571159
269,1436464506398,-0.013133603,0.0143553335,-0.05497787
270,1436464506415,-0.009162978,-0.0027488936,-0.05131268
271,1436464506449,-0.012217305,-0.0106901415,-0.04734206
272,1436464506456,-0.013439035,-0.005192355,-0.049785517
273,1436464506475,-0.01740966,0.0009162979,-0.040011674
274,1436464506506,-0.016493361,-0.0012217305,-0.032986723
275,1436464506543,-0.014966198,-0.01038471,-0.027488936
276,1436464506544,-0.025961773,-0.015577064,-0.021380283
277,1436464506555,-0.03023783,-0.011911872,-0.016493361
278,1436464506575,-0.035124753,0.003970624,-0.008246681
279,1436464506596,-0.036957346,0.011911872,-0.0027488936
280,1436464506615,-0.044593163,0.015882496,0.0027488936
281,1436464506635,-0.04734206,0.018020526,0.0070249503
282,1436464506655,-0.042760566,0.009773844,0.004581489
283,1436464506689,-0.044898596,-0.010995574,0.007330383
284,1436464506695,-0.04795292,-0.016187929,0.00061086525
285,1436464506721,-0.04917465,0.0036651916,-0.005497787
286,1436464506736,-0.054367006,0.019242255,-0.0012217305
287,1436464506756,-0.054367006,0.025961773,0.007330383
288,1436464506778,-0.057726767,0.022296581,0.013133603
289,1436464506798,-0.051923547,0.022602014,0.027488936
290,1436464506818,-0.05955936,0.020158553,0.042760566
291,1436464506838,-0.06291912,0.019547688,0.050701816
292,1436464506858,-0.0571159,0.01282817,0.06261369
293,1436464506878,-0.06169739,0.015577064,0.07147124
294,1436464506898,-0.06352998,0.006414085,0.07238753
295,1436464506918,-0.059864793,0.016493361,0.06780604
296,1436464506938,-0.06047566,0.03023783,0.06536258
297,1436464506957,-0.063224554,0.026572637,0.06078109
298,1436464506978,-0.06261369,0.01985312,0.046120327
299,1436464506998,-0.054061573,0.011911872,0.04642576
300,1436464507019,-0.05009095,0.007330383,0.03756821
301,1436464507038,-0.043676864,-0.0027488936,0.018325957
302,1436464507057,-0.03145956,-0.008552114,0.00030543262
303,1436464507078,-0.020463986,-0.025350908,0.0030543262
304,1436464507098,-0.020463986,-0.0852157,0.014966198
305,1436464507119,-0.039095376,-0.1282817,0.02107485
306,1436464507138,-0.0012217305,-0.124311075,-0.0033597588
307,1436464507158,0.020158553,-0.10476339,0.0027488936
308,1436464507176,0.032375857,-0.13347405,0.023823744
309,1436464507197,0.003970624,-0.16249016,0.032986723
310,1436464507216,-0.032986723,-0.12034045,0.013439035
311,1436464507287,-0.04520403,-0.025350908,-0.0076358155
312,1436464507299,-0.042455133,0.043066,-0.004276057
313,1436464507300,-0.028405234,0.05497787,0.0033597588
314,1436464507301,-0.011911872,0.01863139,0.02076942
315,1436464507316,-0.009773844,-0.03390302,0.028405234
316,1436464507358,-0.015577064,-0.026267206,0.030543262
317,1436464507359,-0.02107485,-0.009773844,0.03848451
318,1436464507418,-0.018936822,0.020463986,0.033292156
319,1436464507419,-0.01863139,0.03604105,0.029626964
320,1436464507420,-0.015882496,0.04153884,0.018325957
321,1436464507440,-0.022296581,0.038179077,0.017715093
322,1436464507457,-0.021380283,0.03970624,0.003970624
323,1436464507475,-0.018325957,0.042760566,0.0030543262
324,1436464507496,-0.018020526,0.05467244,-0.0009162979
325,1436464507516,-0.019242255,0.062002823,0.0018325958
326,1436464507536,-0.026267206,0.062308256,0.004276057
327,1436464507556,-0.02321288,0.055588737,0.013744468
328,1436464507576,-0.02076942,0.046731193,0.015577064
329,1436464507596,-0.021380283,0.053450707,0.018020526
330,1436464507616,-0.015882496,0.05131268,0.018936822
331,1436464507636,-0.017104227,0.05100725,0.02076942
332,1436464507657,-0.015577064,0.043066,0.025961773
333,1436464507676,-0.01160644,0.046731193,0.027488936
334,1436464507722,-0.0143553335,0.04520403,0.027488936
335,1436464507723,-0.014660766,0.04062254,0.023518313
336,1436464507737,-0.011911872,0.04184427,0.017104227
337,1436464507757,-0.010995574,0.058337633,0.008552114
338,1436464507775,-0.016493361,0.086437434,0.0036651916
339,1436464507797,-0.021380283,0.121256754,-0.0061086523
340,1436464507814,-0.02107485,0.15882497,-0.01740966
341,1436464507834,-0.015577064,0.18020524,-0.018325957
342,1436464507855,-0.01160644,0.16982053,-0.02321288
343,1436464507874,-0.004886922,0.15485434,-0.029321533
344,1436464507897,-0.014966198,0.14844026,-0.032986723
345,1436464507916,-0.022907447,0.13744467,-0.023823744
346,1436464507936,-0.04917465,0.12095132,-0.0033597588
347,1436464507956,-0.064751714,0.07727446,0.017715093
348,1436464507975,-0.06811147,0.0015271631,0.03848451
349,1436464507995,-0.07269296,-0.06047566,0.05222898
350,1436464508015,-0.07849618,-0.10323623,0.045814894
351,1436464508035,-0.087659165,-0.08827003,0.042760566
352,1436464508055,-0.08246681,-0.065973446,0.04734206
353,1436464508076,-0.08155051,-0.051923547,0.057726767
354,1436464508096,-0.069027774,-0.053145275,0.06841691
355,1436464508116,-0.07147124,-0.04550946,0.080634214
356,1436464508136,-0.06658431,-0.023518313,0.08399397
357,1436464508155,-0.058948494,0.0015271631,0.089491755
358,1436464508177,-0.05375614,0.027488936,0.09010262
359,1436464508196,-0.04520403,0.03756821,0.09254608
360,1436464508220,-0.037873644,0.061391957,0.09621128
361,1436464508240,-0.030543262,0.06566802,0.09254608
362,1436464508256,-0.019547688,0.06169739,0.089491755
363,1436464508277,-0.009468411,0.053450707,0.082161374
364,1436464508300,-0.0033597588,0.06811147,0.064446285
365,1436464508318,0.010079277,0.06658431,0.04337143
366,1436464508339,0.018020526,0.05955936,0.021685716
367,1436464508357,0.022602014,0.05375614,0.007330383
368,1436464508377,0.034208454,0.04062254,-0.0125227375
369,1436464508397,0.05375614,0.02687807,-0.04428773
370,1436464508417,0.06261369,0.02565634,-0.06536258
371,1436464508439,0.06719518,0.040011674,-0.09010262
372,1436464508458,0.07086037,0.05222898,-0.09865474
