id,attr_time,attr_x,attr_y,attr_z
1,1435990454113,-0.013744468,0.021380283,-0.018325957
2,1435990454133,-0.009773844,0.013744468,-0.018020526
3,1435990454158,-0.009773844,0.017104227,-0.018936822
4,1435990454178,-0.006414085,0.02321288,-0.018936822
5,1435990454199,-0.014660766,0.023823744,-0.016798794
6,1435990454215,-0.005497787,0.023823744,-0.018020526
7,1435990454236,-0.008857546,0.022907447,-0.019547688
8,1435990454259,-0.014660766,0.025045475,-0.021380283
9,1435990454277,-0.008857546,0.024740042,-0.022296581
10,1435990454295,-0.008246681,0.024740042,-0.022602014
11,1435990454317,-0.009773844,0.015271631,-0.020463986
12,1435990454366,-0.00580322,0.015271631,-0.025045475
13,1435990454367,-0.00580322,0.01985312,-0.022907447
14,1435990454384,-0.004581489,0.01863139,-0.021685716
15,1435990454393,-0.008246681,0.022907447,-0.02321288
16,1435990454418,-0.007330383,0.018325957,-0.01985312
17,1435990454434,-0.004581489,0.020158553,-0.026572637
18,1435990454453,-0.005497787,0.022602014,-0.020158553
19,1435990454475,-0.0070249503,0.022296581,-0.022296581
20,1435990454493,-0.0070249503,0.021380283,-0.021380283
21,1435990454515,-0.009773844,0.02107485,-0.020463986
22,1435990454533,-0.014966198,0.019242255,-0.018020526
23,1435990454555,-0.0143553335,0.021380283,-0.020158553
24,1435990454578,-0.017715093,0.020158553,-0.017104227
25,1435990454594,-0.013439035,0.016187929,-0.019547688
26,1435990454616,-0.009468411,0.011911872,-0.019547688
27,1435990454636,-0.009468411,0.014049901,-0.018936822
28,1435990454656,-0.010079277,0.014049901,-0.02076942
29,1435990454676,-0.013439035,0.01985312,-0.02076942
30,1435990454696,-0.015271631,0.01985312,-0.01740966
31,1435990454716,-0.011911872,0.015577064,-0.024129177
32,1435990454736,-0.0143553335,0.019242255,-0.019242255
33,1435990454757,-0.013133603,0.01863139,-0.019242255
34,1435990454776,-0.011301007,0.017104227,-0.01985312
35,1435990454796,-0.01160644,0.014966198,-0.02076942
36,1435990454815,-0.017715093,0.018325957,-0.019242255
37,1435990454835,-0.009162978,0.016187929,-0.022907447
38,1435990454855,-0.009162978,0.018936822,-0.020463986
39,1435990454877,-0.01282817,0.019547688,-0.018936822
40,1435990454896,-0.013133603,0.023823744,-0.023823744
41,1435990454917,-0.009162978,0.022602014,-0.023518313
42,1435990454936,-0.0061086523,0.020463986,-0.02076942
43,1435990454956,-0.014966198,0.016187929,-0.021380283
44,1435990454975,-0.004886922,0.020158553,-0.02321288
45,1435990454996,-0.008246681,0.020463986,-0.023823744
46,1435990455024,-0.0030543262,0.018325957,-0.024129177
47,1435990455078,-0.005192355,0.02107485,-0.02107485
48,1435990455079,-0.009468411,0.018020526,-0.021685716
49,1435990455080,-0.006414085,0.01740966,-0.018325957
50,1435990455099,-0.0076358155,0.018936822,-0.023518313
51,1435990455113,-0.0036651916,0.020158553,-0.024129177
52,1435990455135,-0.00580322,0.017715093,-0.019242255
53,1435990455154,-0.005192355,0.019242255,-0.020158553
54,1435990455175,-0.0106901415,0.022602014,-0.020158553
55,1435990455197,-0.004276057,0.018020526,-0.018936822
56,1435990455214,-0.008552114,0.018325957,-0.018325957
57,1435990455238,-0.00580322,0.018325957,-0.021380283
58,1435990455271,-0.01038471,0.016798794,-0.021380283
59,1435990455278,-0.007941248,0.01863139,-0.01985312
60,1435990455294,-0.007941248,0.020158553,-0.019242255
61,1435990455315,-0.0067195175,0.015882496,-0.02107485
62,1435990455336,-0.0076358155,0.020463986,-0.021991149
63,1435990455357,-0.008246681,0.019242255,-0.021380283
64,1435990455377,-0.0070249503,0.017715093,-0.02107485
65,1435990455397,-0.005192355,0.020158553,-0.020158553
66,1435990455417,-0.0018325958,0.017104227,-0.020463986
67,1435990455437,-0.00061086525,0.02076942,-0.021685716
68,1435990455457,-0.009468411,0.018020526,-0.020463986
69,1435990455477,-0.011911872,0.019547688,-0.019242255
70,1435990455495,-0.005192355,0.016798794,-0.02321288
71,1435990455515,-0.009162978,0.019547688,-0.02076942
72,1435990455537,-0.0076358155,0.02076942,-0.021380283
73,1435990455554,-0.009468411,0.020463986,-0.02076942
74,1435990455577,-0.01038471,0.018936822,-0.019242255
75,1435990455595,-0.007941248,0.021380283,-0.023823744
76,1435990455619,-0.013439035,0.026572637,-0.02107485
77,1435990455639,-0.013744468,0.020158553,-0.020463986
78,1435990455660,-0.0076358155,0.024740042,-0.02443461
79,1435990455677,-0.0021380284,0.022296581,-0.02321288
80,1435990455695,-0.009468411,0.015577064,-0.023518313
81,1435990455716,-0.0030543262,0.01282817,-0.01985312
82,1435990455737,-0.009468411,0.015271631,-0.02321288
83,1435990455756,-0.010995574,0.023823744,-0.022602014
84,1435990455826,-0.006414085,0.01985312,-0.019547688
85,1435990455827,-0.010079277,0.02321288,-0.021380283
86,1435990455828,-0.01038471,0.023518313,-0.025045475
87,1435990455840,-0.009162978,0.023823744,-0.020463986
88,1435990455855,-0.009773844,0.01985312,-0.022296581
89,1435990455877,-0.005192355,0.021685716,-0.02321288
90,1435990455911,-0.007941248,0.024740042,-0.016493361
91,1435990455914,-0.0125227375,0.02565634,-0.02076942
92,1435990455936,-0.00580322,0.018325957,-0.02107485
93,1435990455959,-0.004886922,0.02076942,-0.01740966
94,1435990455978,-0.0070249503,0.02321288,-0.02443461
95,1435990455995,-0.004581489,0.02076942,-0.022602014
96,1435990456017,-0.0012217305,0.022296581,-0.02076942
97,1435990456035,-0.0067195175,0.017715093,-0.022602014
98,1435990456057,-0.006414085,0.022296581,-0.020158553
99,1435990456077,-0.009468411,0.014966198,-0.020158553
100,1435990456097,-0.008552114,0.015271631,-0.018325957
101,1435990456117,-0.002443461,0.018936822,-0.02107485
102,1435990456138,-0.0061086523,0.02321288,-0.022602014
103,1435990456158,-0.0027488936,0.018020526,-0.022602014
104,1435990456177,-0.0070249503,0.018325957,-0.019547688
105,1435990456200,-0.006414085,0.023518313,-0.020158553
106,1435990456216,-0.004581489,0.01985312,-0.02076942
107,1435990456237,-0.005497787,0.015577064,-0.020463986
108,1435990456301,-0.0036651916,0.018325957,-0.020463986
109,1435990456302,-0.00580322,0.019242255,-0.021380283
110,1435990456303,-0.0076358155,0.020158553,-0.018936822
111,1435990456354,-0.0027488936,0.020158553,-0.017104227
112,1435990456355,-0.005192355,0.022602014,-0.023518313
113,1435990456356,-0.0125227375,0.020463986,-0.016493361
114,1435990456374,-0.005192355,0.020463986,-0.022602014
115,1435990456395,-0.0033597588,0.01740966,-0.023518313
116,1435990456416,-0.004886922,0.015271631,-0.023518313
117,1435990456437,-0.003970624,0.017715093,-0.021685716
118,1435990456455,-0.004581489,0.020158553,-0.019547688
119,1435990456528,-0.011911872,0.02107485,-0.018325957
120,1435990456529,-0.008857546,0.029626964,-0.01985312
121,1435990456541,-0.008246681,0.023823744,-0.024740042
122,1435990456542,0.00030543262,0.021685716,-0.021685716
123,1435990456556,-0.006414085,0.013744468,-0.01985312
124,1435990456579,-0.013439035,0.022907447,-0.015882496
125,1435990456615,-0.0027488936,0.027794369,-0.022296581
126,1435990456616,-0.0061086523,0.022602014,-0.02076942
127,1435990456639,-0.004276057,0.019242255,-0.021991149
128,1435990456658,-0.002443461,0.016493361,-0.021991149
129,1435990456680,-0.005497787,0.021991149,-0.02076942
130,1435990456695,-0.004886922,0.020158553,-0.02076942
131,1435990456718,-0.003970624,0.01740966,-0.023823744
132,1435990456760,-0.0076358155,0.018936822,-0.020463986
133,1435990456761,-0.008857546,0.016798794,-0.019547688
134,1435990456775,-0.0067195175,0.01863139,-0.021685716
135,1435990456798,-0.0018325958,0.021685716,-0.022296581
136,1435990456818,-0.008246681,0.017715093,-0.021380283
137,1435990456838,-0.00580322,0.018020526,-0.022602014
138,1435990456858,-0.0067195175,0.020158553,-0.01863139
139,1435990456878,-0.0012217305,0.013744468,-0.021991149
140,1435990456898,-0.0033597588,0.016493361,-0.020463986
141,1435990456917,-0.007941248,0.014660766,-0.018325957
142,1435990456934,-0.0027488936,0.02107485,-0.021380283
143,1435990456954,-0.0009162979,0.019242255,-0.020158553
144,1435990456976,-0.006414085,0.019242255,-0.021685716
145,1435990456996,-0.009468411,0.01863139,-0.020158553
146,1435990457016,-0.009468411,0.021685716,-0.025045475
147,1435990457038,-0.008552114,0.021380283,-0.022296581
148,1435990457058,-0.0033597588,0.019242255,-0.021685716
149,1435990457078,-0.004276057,0.014966198,-0.023518313
150,1435990457098,-0.0027488936,0.015271631,-0.024740042
151,1435990457116,-0.006414085,0.01160644,-0.02321288
152,1435990457136,-0.007941248,0.01863139,-0.01740966
153,1435990457166,-0.010995574,0.022296581,-0.022907447
154,1435990457178,-0.011911872,0.021991149,-0.02443461
155,1435990457208,-0.010995574,0.03023783,-0.020463986
156,1435990457222,-0.014660766,0.02076942,-0.019242255
157,1435990457238,-0.010995574,0.021685716,-0.022602014
158,1435990457260,-0.012217305,0.01985312,-0.021380283
159,1435990457280,-0.010079277,0.017715093,-0.020463986
160,1435990457296,-0.017104227,0.019242255,-0.018325957
161,1435990457338,-0.008857546,0.025350908,-0.02321288
162,1435990457339,-0.005192355,0.022602014,-0.019547688
163,1435990457363,-0.009162978,0.022907447,-0.018325957
164,1435990457376,-0.008246681,0.023823744,-0.022907447
165,1435990457396,-0.01282817,0.021685716,-0.016798794
166,1435990457417,-0.013439035,0.020158553,-0.02107485
167,1435990457436,-0.013744468,0.02107485,-0.018936822
168,1435990457459,-0.007941248,0.02107485,-0.021380283
169,1435990457479,-0.014660766,0.01282817,-0.020158553
170,1435990457499,-0.014966198,0.020463986,-0.017104227
171,1435990457519,-0.0125227375,0.022602014,-0.019242255
172,1435990457539,-0.0106901415,0.019547688,-0.019242255
173,1435990457558,-0.013133603,0.019242255,-0.020463986
174,1435990457577,-0.019242255,0.016493361,-0.015577064
175,1435990457599,-0.0143553335,0.016493361,-0.015271631
176,1435990457617,-0.009162978,0.018020526,-0.018020526
177,1435990457636,-0.0143553335,0.0125227375,-0.016187929
178,1435990457659,-0.018020526,0.019547688,-0.02321288
179,1435990457678,-0.015271631,0.022602014,-0.018936822
180,1435990457698,-0.018020526,0.021685716,-0.018020526
181,1435990457718,-0.014049901,0.02107485,-0.020158553
182,1435990457739,-0.020463986,0.019547688,-0.017715093
183,1435990457759,-0.01038471,0.015271631,-0.021991149
184,1435990457777,-0.013133603,0.013133603,-0.021380283
185,1435990457799,-0.0106901415,0.015882496,-0.025961773
186,1435990457818,-0.007941248,0.01863139,-0.022296581
187,1435990457839,-0.013439035,0.020158553,-0.02076942
188,1435990457859,-0.011911872,0.025961773,-0.02107485
189,1435990457879,-0.013439035,0.016798794,-0.019242255
190,1435990457903,-0.013744468,0.02321288,-0.02321288
191,1435990457971,-0.009773844,0.023823744,-0.02321288
192,1435990457979,-0.016798794,0.02443461,-0.018020526
193,1435990457980,-0.011911872,0.025961773,-0.020158553
194,1435990457981,-0.01282817,0.022602014,-0.019242255
195,1435990457999,-0.014049901,0.018020526,-0.018325957
196,1435990458019,-0.014966198,0.02076942,-0.021991149
197,1435990458036,-0.011911872,0.023823744,-0.020463986
198,1435990458056,-0.008552114,0.02565634,-0.023518313
199,1435990458090,-0.015882496,0.02321288,-0.024129177
200,1435990458097,-0.01160644,0.01985312,-0.026572637
201,1435990458117,-0.009162978,0.018020526,-0.02321288
202,1435990458137,-0.005497787,0.020158553,-0.021991149
203,1435990458159,-0.0036651916,0.02076942,-0.025350908
204,1435990458179,-0.01160644,0.013133603,-0.01985312
205,1435990458199,-0.01038471,0.013439035,-0.02565634
206,1435990458216,-0.007330383,0.018020526,-0.02443461
207,1435990458238,-0.006414085,0.02321288,-0.022296581
208,1435990458262,-0.004886922,0.01863139,-0.020158553
209,1435990458278,-0.008246681,0.008552114,-0.020158553
210,1435990458296,-0.0106901415,0.015271631,-0.024740042
211,1435990458317,-0.007941248,0.02076942,-0.022296581
212,1435990458339,-0.0033597588,0.018325957,-0.023518313
213,1435990458357,-0.0027488936,0.010079277,-0.019547688
214,1435990458378,-0.011301007,0.009162978,-0.019242255
215,1435990458400,-0.0076358155,0.01985312,-0.023823744
216,1435990458419,-0.0106901415,0.016187929,-0.024740042
217,1435990458438,-0.0033597588,0.014049901,-0.025961773
218,1435990458460,-0.0061086523,0.018020526,-0.01985312
219,1435990458479,-0.008857546,0.014049901,-0.020158553
220,1435990458499,-0.0030543262,0.01863139,-0.024129177
221,1435990458520,-0.0033597588,0.021380283,-0.022602014
222,1435990458539,-0.007941248,0.021685716,-0.021991149
223,1435990458560,-0.007330383,0.02107485,-0.01985312
224,1435990458577,-0.0067195175,0.019547688,-0.022296581
225,1435990458598,-0.011911872,0.021991149,-0.02107485
226,1435990458617,-0.008246681,0.025045475,-0.021991149
227,1435990458688,-0.0106901415,0.023518313,-0.017715093
228,1435990458689,-0.011301007,0.02076942,-0.018020526
229,1435990458700,-0.008246681,0.022907447,-0.021685716
230,1435990458701,-0.012217305,0.025045475,-0.02076942
231,1435990458718,-0.0143553335,0.024129177,-0.021685716
232,1435990458740,-0.013744468,0.02076942,-0.01985312
233,1435990458757,-0.005192355,0.01740966,-0.021991149
234,1435990458777,-0.006414085,0.01985312,-0.021685716
235,1435990458799,-0.0076358155,0.01282817,-0.01985312
236,1435990458818,-0.01160644,0.01863139,-0.020158553
237,1435990458837,-0.011301007,0.021380283,-0.019242255
238,1435990458858,-0.015271631,0.020158553,-0.017715093
239,1435990458880,-0.0061086523,0.018936822,-0.022907447
240,1435990458898,-0.008246681,0.015882496,-0.019547688
241,1435990458920,-0.014660766,0.013439035,-0.020463986
242,1435990458940,-0.013744468,0.023823744,-0.018325957
243,1435990458960,-0.0106901415,0.020463986,-0.018325957
244,1435990458980,-0.0067195175,0.018936822,-0.020463986
245,1435990459000,-0.009468411,0.01863139,-0.021991149
246,1435990459020,-0.01282817,0.018936822,-0.01863139
247,1435990459039,-0.009773844,0.022602014,-0.015882496
248,1435990459060,-0.008857546,0.022296581,-0.01863139
249,1435990459079,-0.00580322,0.014966198,-0.023823744
250,1435990459099,-0.005497787,0.01160644,-0.018936822
251,1435990459120,-0.009162978,0.015577064,-0.018020526
252,1435990459138,-0.013744468,0.017715093,-0.019547688
253,1435990459159,-0.01038471,0.021380283,-0.022602014
254,1435990459180,-0.01282817,0.020463986,-0.02076942
255,1435990459200,-0.0106901415,0.02321288,-0.021991149
256,1435990459221,-0.01282817,0.029626964,-0.020158553
257,1435990459243,-0.0143553335,0.01863139,-0.019547688
258,1435990459262,-0.0143553335,0.018325957,-0.01985312
259,1435990459278,-0.016493361,0.022296581,-0.014660766
260,1435990459300,-0.004886922,0.028099801,-0.018936822
261,1435990459318,-0.009773844,0.027183503,-0.018020526
262,1435990459348,-0.012217305,0.025045475,-0.021991149
263,1435990459419,-0.013133603,0.022296581,-0.017715093
264,1435990459420,-0.019547688,0.01985312,-0.017715093
265,1435990459421,-0.016187929,0.02107485,-0.020463986
266,1435990459422,-0.015271631,0.018936822,-0.017715093
267,1435990459438,-0.01740966,0.018020526,-0.015271631
268,1435990459458,-0.013133603,0.013744468,-0.018020526
269,1435990459477,-0.007941248,0.015577064,-0.016798794
270,1435990459498,-0.010995574,0.018020526,-0.013439035
271,1435990459517,-0.013439035,0.024740042,-0.0143553335
272,1435990459539,-0.007941248,0.026267206,-0.018325957
273,1435990459566,-0.0125227375,0.019242255,-0.015577064
274,1435990459579,-0.01160644,0.017104227,-0.017104227
275,1435990459599,-0.0125227375,0.024129177,-0.02076942
276,1435990459621,-0.005497787,0.023823744,-0.021991149
277,1435990459639,-0.0033597588,0.021685716,-0.020463986
278,1435990459661,-0.0061086523,0.019242255,-0.019547688
279,1435990459681,-0.015271631,0.02107485,-0.015882496
280,1435990459701,-0.013439035,0.018020526,-0.01740966
281,1435990459721,-0.004581489,0.017104227,-0.022907447
282,1435990459739,-0.0036651916,0.01985312,-0.01985312
283,1435990459761,-0.004276057,0.019242255,-0.021685716
284,1435990459781,-0.0070249503,0.018325957,-0.017715093
285,1435990459800,-0.003970624,0.02076942,-0.02321288
286,1435990459821,-0.007330383,0.01863139,-0.01863139
287,1435990459841,-0.004886922,0.01863139,-0.02076942
288,1435990459861,-0.007941248,0.02107485,-0.01740966
289,1435990459881,-0.008246681,0.023823744,-0.02107485
290,1435990459899,-0.01160644,0.020158553,-0.021380283
291,1435990459920,-0.007941248,0.018936822,-0.022602014
292,1435990459941,-0.008246681,0.02107485,-0.018020526
293,1435990459961,-0.0067195175,0.018936822,-0.021685716
294,1435990459981,-0.0030543262,0.020158553,-0.021685716
295,1435990460001,-0.0015271631,0.019242255,-0.01985312
296,1435990460018,-0.0033597588,0.019242255,-0.019242255
297,1435990460039,-0.009773844,0.015271631,-0.019242255
298,1435990460059,-0.017104227,0.015577064,-0.016187929
299,1435990460124,-0.019242255,0.016493361,-0.019242255
300,1435990460125,-0.011911872,0.016493361,-0.024740042
301,1435990460126,-0.0125227375,0.013744468,-0.02076942
302,1435990460145,-0.013744468,0.013133603,-0.023823744
303,1435990460159,-0.0143553335,0.018325957,-0.020463986
304,1435990460178,-0.0067195175,0.01985312,-0.02321288
305,1435990460199,-0.00061086525,0.008552114,-0.027794369
306,1435990460219,0.0076358155,-0.00580322,-0.044593163
307,1435990460238,0.040317107,-0.08827003,-0.03970624
308,1435990460260,0.07360926,-0.15454891,-0.051618114
309,1435990460278,0.10293079,-0.16462818,-0.07452556
310,1435990460300,0.124005646,-0.11026118,-0.09621128
311,1435990460319,0.09468412,-0.064751714,-0.0888809
312,1435990460339,0.013744468,-0.116980694,-0.0711658
313,1435990460362,-0.06780604,-0.07269296,-0.06841691
314,1435990460381,-0.09743301,0.098043874,-0.07452556
315,1435990460401,-0.096516706,0.10293079,-0.07666359
316,1435990460421,-0.08827003,0.005192355,-0.07360926
317,1435990460439,-0.095294975,-0.0061086523,-0.0870483
318,1435990460462,-0.09743301,0.060170226,-0.09560041
319,1435990460482,-0.09712757,0.06414085,-0.08979719
320,1435990460502,-0.11728613,0.004886922,-0.089491755
321,1435990460522,-0.122783914,0.012217305,-0.093767814
322,1435990460541,-0.13072516,0.043676864,-0.09407325
323,1435990460562,-0.1328632,0.040317107,-0.09040806
324,1435990460582,-0.11575896,0.106595986,-0.10323623
325,1435990460601,-0.09865474,0.10476339,-0.109650314
326,1435990460622,-0.08246681,0.07147124,-0.11575896
327,1435990460639,-0.06994407,0.063224554,-0.112704635
328,1435990460662,-0.065973446,0.032986723,-0.11178834
329,1435990460682,-0.05497787,0.0027488936,-0.11881329
330,1435990460702,-0.044898596,0.0290161,-0.11484267
331,1435990460719,-0.03359759,0.014660766,-0.110872045
332,1435990460741,-0.019547688,-0.022296581,-0.10903945
333,1435990460759,-0.013744468,-0.030543262,-0.0983493
334,1435990460781,-0.010079277,-0.027794369,-0.09468412
335,1435990460801,-0.0106901415,-0.0067195175,-0.100792766
336,1435990460869,-0.0009162979,0.0033597588,-0.08979719
337,1435990460870,0.0033597588,-0.056199603,-0.08368854
338,1435990460882,0.009162978,-0.05589417,-0.07971791
339,1435990460883,0.0143553335,-0.021991149,-0.07360926
340,1435990460899,0.011911872,-0.021991149,-0.070554934
341,1435990460921,0.011301007,-0.029932396,-0.06536258
342,1435990460939,0.014049901,-0.0033597588,-0.057726767
343,1435990460959,0.014966198,0.008552114,-0.056199603
344,1435990460980,0.018936822,0.022602014,-0.051923547
345,1435990461002,0.02107485,0.01863139,-0.049785517
346,1435990461020,0.012217305,0.009773844,-0.04520403
347,1435990461041,0.016187929,0.03359759,-0.043066
348,1435990461062,0.015882496,0.022602014,-0.036957346
349,1435990461082,0.021380283,0.0021380284,-0.029626964
350,1435990461100,0.022296581,-0.007330383,-0.027794369
351,1435990461122,0.02321288,-0.024740042,-0.028405234
352,1435990461142,0.014966198,-0.025961773,-0.021991149
353,1435990461160,0.014660766,-0.022907447,-0.01740966
354,1435990461182,0.0009162979,-0.03023783,-0.0125227375
355,1435990461207,-0.0015271631,0.0076358155,-0.0076358155
356,1435990461222,-0.0012217305,0.020463986,-0.0036651916
357,1435990461239,-0.0012217305,0.019547688,-0.0018325958
358,1435990461272,-0.002443461,0.022296581,0.0021380284
359,1435990461279,-0.0061086523,0.030543262,0.005192355
360,1435990461302,-0.01160644,0.038179077,0.006414085
