id,attr_time,attr_x,attr_y,attr_z
1,1435990454124,0.013266388,0.07279922,0.004886917
2,1435990454144,0.010212062,0.067912295,0.004886917
3,1435990454164,0.0047142757,0.07279922,0.007941243
4,1435990454184,0.004408843,0.0819622,0.008246676
5,1435990454204,0.0037979772,0.08165677,0.009162975
6,1435990454224,0.0047142757,0.08562739,0.004886917
7,1435990454244,0.0053251404,0.06546883,0.0054977825
8,1435990454264,0.0056305733,0.04531028,0.0012217257
9,1435990454284,0.005936006,0.03248211,-0.001221735
10,1435990454306,0.0050197076,0.02667889,0.0021380233
11,1435990454331,0.0034925444,0.033398412,0.002748889
12,1435990454344,0.0071577365,0.03523101,0.004886917
13,1435990454363,0.0019653821,0.04958634,0.0039706193
14,1435990454383,0.0013545165,0.04805918,0.0051923497
15,1435990454404,-0.0032269727,0.050808072,0.0021380233
16,1435990454424,-0.0010889443,0.047448315,0.00030542724
17,1435990454443,0.010212062,0.05416783,0.0033597536
18,1435990454463,0.0025762469,0.06546883,0.0076358104
19,1435990454483,-0.0007835119,0.066690564,0.006719512
20,1435990454503,0.0031871125,0.05997105,0.002443456
21,1435990454523,0.0047142757,0.051724367,0.0070249448
22,1435990454543,0.0129609555,0.037063606,0.002748889
23,1435990454564,0.017542446,0.050197206,-4.656613e-09
24,1435990454583,0.013571821,0.0642471,0.002748889
25,1435990454603,0.009906629,0.073715515,0.004581484
26,1435990454623,0.016626148,0.07432638,0.0070249448
27,1435990454643,0.023651097,0.07310465,0.009162975
28,1435990454663,0.02395653,0.076464415,0.0012217257
29,1435990454683,0.01570985,0.102731615,0.0009162929
30,1435990454703,0.01448812,0.09876099,0.0018325904
31,1435990454723,0.01693158,0.08623825,0.002443456
32,1435990454743,0.022123935,0.08776542,0.006414081
33,1435990454763,0.029148884,0.09845556,0.0051923497
34,1435990454783,0.026705425,0.10303705,0.0051923497
35,1435990454804,0.018458743,0.09937186,0.0021380233
36,1435990454823,0.022429368,0.07921331,-4.656613e-09
37,1435990454843,0.020596772,0.08043504,-0.00091630314
38,1435990454865,0.01815331,0.076464415,-0.00091630314
39,1435990454885,0.017237013,0.08318393,-0.0042760614
40,1435990454904,0.01815331,0.08745998,-0.007330388
41,1435990454925,0.016015282,0.08715455,-0.009468416
42,1435990454945,0.019069608,0.08043504,-0.0054977923
43,1435990454965,0.022429368,0.077991575,-0.004886927
44,1435990454985,0.017847879,0.08165677,-0.0027488982
45,1435990455004,0.013266388,0.076464415,-0.0024434663
46,1435990455025,0.015404416,0.07890788,-0.0021380335
47,1435990455044,0.017847879,0.07554811,-0.0051923594
48,1435990455116,0.015404416,0.08135133,-0.007330388
49,1435990455117,0.011433793,0.077686146,-4.656613e-09
50,1435990455118,0.0129609555,0.07921331,-0.0018326007
51,1435990455127,0.019985907,0.066996,-0.0018326007
52,1435990455146,0.021818502,0.06577427,0.0030543217
53,1435990455168,0.017847879,0.06852316,-0.0021380335
54,1435990455184,0.018764175,0.08165677,0.00030542724
55,1435990455204,0.0129609555,0.079518735,0.0030543217
56,1435990455226,0.016626148,0.06730144,0.008246676
57,1435990455246,0.02609456,0.061498214,0.0036651865
58,1435990455266,0.019069608,0.069439456,-0.008246686
59,1435990455285,0.012350092,0.067912295,0.00061086006
60,1435990455305,0.010212062,0.07463181,0.0051923497
61,1435990455351,0.017542446,0.08135133,0.0094684055
62,1435990455352,0.019985907,0.08318393,0.008857542
63,1435990455383,0.021207636,0.07341009,0.007941243
64,1435990455388,0.023040231,0.07035576,0.0076358104
65,1435990455405,0.01815331,0.07127206,0.009773838
66,1435990455425,0.008379467,0.07096662,0.01343903
67,1435990455445,0.0074631684,0.07341009,0.014660762
68,1435990455465,0.012655523,0.07463181,0.013133598
69,1435990455485,0.015098985,0.06577427,0.0073303776
70,1435990455505,0.021513069,0.056000426,0.01099557
71,1435990455525,0.025178261,0.04989177,0.004581484
72,1435990455546,0.018764175,0.06119278,0.0073303776
73,1435990455568,0.014793552,0.07188292,0.0030543217
74,1435990455588,0.01815331,0.05997105,0.0073303776
75,1435990455606,0.019069608,0.059360184,0.011301002
76,1435990455627,0.019375041,0.058138452,0.006414081
77,1435990455648,0.012350092,0.061498214,0.008857542
78,1435990455667,0.0086849,0.060276482,0.006719512
79,1435990455689,0.019680474,0.064857975,0.010079271
80,1435990455706,0.013571821,0.07035576,0.0070249448
81,1435990455726,0.009601198,0.068217725,0.0033597536
82,1435990455747,0.01693158,0.068217725,0.004581484
83,1435990455765,0.017237013,0.07402095,0.0073303776
84,1435990455786,0.014182687,0.07524268,0.006719512
85,1435990455809,0.012044659,0.078297004,0.008246676
86,1435990455826,0.012350092,0.06730144,-0.00030543748
87,1435990455847,0.013571821,0.066385135,0.0030543217
88,1435990455864,0.01570985,0.07615898,0.004886917
89,1435990455888,0.013266388,0.07860244,0.0012217257
90,1435990455907,0.014182687,0.07005033,0.0015271585
91,1435990455930,0.020596772,0.07127206,0.011911868
92,1435990455945,0.021818502,0.08348936,0.006414081
93,1435990455967,0.019680474,0.08868171,-0.0018326007
94,1435990455986,0.0047142757,0.08593282,-0.0024434663
95,1435990456008,0.0013545165,0.089903444,-0.0006108703
96,1435990456026,0.020596772,0.09753926,0.006414081
97,1435990457442,0.032508645,0.09051431,0.008552109
98,1435990457443,0.03311951,0.09448494,0.004581484
99,1435990457444,0.029454317,0.092652336,0.004581484
100,1435990457445,0.026399992,0.077991575,0.007941243
101,1435990457446,0.024567395,0.08715455,0.011301002
102,1435990457447,0.021818502,0.08440566,0.01099557
103,1435990457448,0.017542446,0.07554811,0.007941243
104,1435990457449,0.02609456,0.07860244,0.0076358104
105,1435990457450,0.030370615,0.08898715,0.002443456
106,1435990457451,0.029148884,0.08715455,0.009162975
107,1435990457452,0.019375041,0.09631753,0.0058032153
108,1435990457453,0.02029134,0.081045896,0.0054977825
109,1435990457454,0.028538018,0.076464415,0.0076358104
110,1435990457455,0.026399992,0.07615898,0.008552109
111,1435990457456,0.023651097,0.07463181,0.002443456
112,1435990457457,0.016015282,0.079824165,-0.001221735
113,1435990457458,0.0074631684,0.07890788,0.002748889
114,1435990457459,0.014182687,0.076464415,0.004581484
115,1435990457460,0.014793552,0.07402095,0.004276051
116,1435990457461,0.01112836,0.07402095,0.0051923497
117,1435990457462,0.011739226,0.07585354,0.0058032153
118,1435990457463,0.01448812,0.07066119,0.0070249448
119,1435990457464,0.010212062,0.06760687,0.0015271585
120,1435990457465,0.007768601,0.0688286,-0.00030543748
121,1435990457466,0.006546871,0.068217725,-0.0042760614
122,1435990457467,-0.0038378383,0.06455254,0.00030542724
123,1435990457468,-0.0038378383,0.058138452,-4.656613e-09
124,1435990457469,-0.0038378383,0.05416783,-0.00030543748
125,1435990457470,0.008074034,0.052029803,0.004886917
126,1435990457471,0.0129609555,0.06210908,0.0054977825
127,1435990457472,0.012655523,0.050808072,-0.0015271679
128,1435990457473,0.007768601,0.0511135,-0.0024434663
129,1435990457474,0.0034925444,0.05783302,-0.0024434663
130,1435990457475,0.0068523036,0.062414512,-0.0027488982
131,1435990457476,0.006546871,0.06546883,0.008246676
132,1435990457477,0.009295765,0.07188292,0.0094684055
133,1435990457478,0.0129609555,0.07096662,0.008246676
134,1435990457479,0.010517495,0.060887348,0.006108648
135,1435990457480,0.007768601,0.056000426,0.010690137
136,1435990457481,0.012044659,0.058138452,0.0076358104
137,1435990457482,0.008074034,0.058749318,0.008246676
138,1435990457483,0.010212062,0.0642471,0.011606435
139,1435990457484,0.015098985,0.06119278,0.004886917
140,1435990457485,0.019375041,0.05691672,0.0036651865
141,1435990457486,0.015404416,0.053862397,0.006108648
142,1435990457487,0.009906629,0.058749318,0.0058032153
143,1435990457488,0.008074034,0.05783302,0.009773838
144,1435990457489,0.014793552,0.056611292,0.0058032153
145,1435990457490,0.014182687,0.05691672,0.0070249448
146,1435990457491,0.013571821,0.05416783,0.006719512
147,1435990457492,0.0071577365,0.057527587,0.0051923497
148,1435990457493,0.004408843,0.060887348,0.0018325904
149,1435990457494,0.002270814,0.05630586,0.004886917
150,1435990457495,0.0050197076,0.06119278,-0.0021380335
151,1435990457496,0.0071577365,0.058749318,0.00061086006
152,1435990457497,0.0047142757,0.05905475,-0.003054331
153,1435990457498,0.004408843,0.04958634,-0.0024434663
154,1435990457499,-0.005365001,0.04256139,0.00061086006
155,1435990457500,-0.0035324055,0.03950706,0.00061086006
156,1435990457501,-0.0016998099,0.04867004,-0.0067195226
157,1435990457502,-0.0029215403,0.0511135,-0.007330388
158,1435990457503,-0.004754136,0.04989177,-0.0058032246
159,1435990457504,-0.010251923,0.046226583,-0.003970629
160,1435990457505,-0.0059758667,0.043477684,-0.0042760614
161,1435990457506,-0.0059758667,0.047753744,-0.008857551
162,1435990457507,-0.0032269727,0.045921147,-0.0042760614
163,1435990457508,0.0037979772,0.051724367,-0.0015271679
164,1435990457509,0.0068523036,0.06271994,0.00061086006
165,1435990457510,0.012655523,0.058749318,0.0021380233
166,1435990457511,0.013266388,0.0642471,0.002748889
167,1435990457512,0.007768601,0.07585354,0.0015271585
168,1435990457513,0.00410341,0.0642471,0.002443456
169,1435990457514,0.005936006,0.062414512,0.0030543217
170,1435990457515,0.0089903325,0.061803646,0.009162975
171,1435990457526,0.01448812,0.059665617,0.0030543217
172,1435990457545,0.016626148,0.060581915,0.0039706193
173,1435990457566,0.01570985,0.05997105,-0.0015271679
174,1435990457586,0.017542446,0.057527587,-0.0006108703
175,1435990457606,0.01693158,0.052029803,0.0030543217
176,1435990457626,0.021513069,0.046532013,0.004276051
177,1435990457646,0.02029134,0.05630586,0.0030543217
178,1435990457666,0.019680474,0.07035576,0.0021380233
179,1435990457691,0.018458743,0.066690564,-0.001221735
180,1435990457708,0.017542446,0.059665617,0.0033597536
181,1435990457727,0.009601198,0.05630586,0.0036651865
182,1435990457749,0.0089903325,0.057222154,0.0030543217
183,1435990457767,0.007768601,0.054473262,0.0012217257
184,1435990457788,0.010517495,0.058749318,0.0076358104
185,1435990457808,0.011433793,0.060887348,-0.0015271679
186,1435990457827,0.007768601,0.057527587,0.0021380233
187,1435990457850,0.005936006,0.059360184,0.002748889
188,1435990457870,0.0056305733,0.06577427,0.002748889
189,1435990457888,0.006241439,0.07127206,0.0030543217
190,1435990457911,0.0056305733,0.07554811,-0.0018326007
191,1435990457927,0.010517495,0.07279922,-0.0027488982
192,1435990457951,0.011739226,0.06577427,0.002748889
193,1435990457969,0.0086849,0.08410023,-0.0076358207
194,1435990457996,0.006241439,0.09753926,-0.008246686
195,1435990458009,0.0025762469,0.08898715,-0.0024434663
196,1435990458027,0.010822928,0.07890788,-4.656613e-09
197,1435990458046,0.012350092,0.0801296,-0.0006108703
198,1435990458069,0.020596772,0.08623825,-0.0045814943
199,1435990458087,0.0129609555,0.099677294,-0.00091630314
200,1435990458110,0.013571821,0.10181532,0.0018325904
201,1435990458132,0.013266388,0.09876099,0.002748889
202,1435990458148,0.015098985,0.092652336,-4.656613e-09
203,1435990458171,0.024261963,0.083794795,-0.00030543748
204,1435990458190,0.024567395,0.0941795,0.0009162929
205,1435990458213,0.026705425,0.09753926,0.0036651865
206,1435990458231,0.026705425,0.09723383,0.0036651865
207,1435990458250,0.035257537,0.09295777,0.0033597536
208,1435990458271,0.030065183,0.089598015,0.0021380233
209,1435990458292,0.03311951,0.0950958,0.004581484
210,1435990458311,0.030676048,0.10028815,0.0021380233
211,1435990458330,0.032203212,0.108534835,0.002443456
212,1435990458350,0.028538018,0.09876099,0.0012217257
213,1435990458371,0.027010858,0.08776542,0.0015271585
214,1435990458391,0.019680474,0.07707527,-4.656613e-09
215,1435990458410,0.01815331,0.08074047,-0.0006108703
216,1435990458435,0.023651097,0.07860244,0.00061086006
217,1435990458448,0.022123935,0.08135133,0.0018325904
218,1435990458471,0.026399992,0.07463181,-4.656613e-09
219,1435990458487,0.024872828,0.072188355,-0.004886927
220,1435990458508,0.018458743,0.067912295,-0.0021380335
221,1435990458528,0.015404416,0.06730144,-0.00030543748
222,1435990458548,0.009601198,0.078297004,-0.0006108703
223,1435990458575,0.010517495,0.08165677,-0.0033597639
224,1435990458595,0.0071577365,0.07432638,-0.0024434663
225,1435990458609,0.012350092,0.07127206,0.0033597536
226,1435990458630,0.021513069,0.06546883,0.006108648
227,1435990458685,0.016626148,0.07279922,-0.003970629
228,1435990458698,0.013877254,0.07249379,0.002443456
229,1435990458699,0.0068523036,0.08318393,-0.00030543748
230,1435990458709,0.004408843,0.095706664,0.0018325904
231,1435990458737,0.014793552,0.09845556,0.0036651865
232,1435990458750,0.015404416,0.096928395,0.0094684055
233,1435990458768,0.015098985,0.08471109,0.010079271
234,1435990458789,0.017847879,0.08318393,0.008552109
235,1435990458808,0.016015282,0.08043504,0.01343903
236,1435990458833,0.010212062,0.08348936,0.012828165
237,1435990458849,0.012350092,0.081045896,0.012217299
238,1435990458872,0.016626148,0.08043504,0.011911868
239,1435990458889,0.020902205,0.07188292,0.011911868
240,1435990458909,0.027621724,0.0688286,0.01343903
241,1435990458936,0.021513069,0.089903444,0.012828165
242,1435990458948,0.017237013,0.092652336,0.015882492
243,1435990458971,0.02029134,0.09326321,0.014049896
244,1435990458990,0.019680474,0.083794795,0.014660762
245,1435990459011,0.017237013,0.08440566,0.0058032153
246,1435990459031,0.02029134,0.077991575,0.004276051
247,1435990459052,0.020596772,0.08226763,0.008246676
248,1435990459072,0.024872828,0.09356864,0.0021380233
249,1435990459091,0.016626148,0.09356864,0.0021380233
250,1435990459110,0.014182687,0.09631753,-0.0006108703
251,1435990459129,0.016015282,0.0941795,0.008246676
252,1435990459149,0.024567395,0.09479037,0.0054977825
253,1435990459169,0.028232586,0.09815013,0.006719512
254,1435990459192,0.022429368,0.09631753,0.0058032153
255,1435990459213,0.01815331,0.09631753,0.0039706193
256,1435990459233,0.017237013,0.09326321,-0.00091630314
257,1435990459253,0.009601198,0.09020888,0.0009162929
258,1435990459270,0.010517495,0.08226763,0.0051923497
259,1435990459289,0.020902205,0.08501653,0.009773838
260,1435990459309,0.025789127,0.095706664,0.0039706193
261,1435990459331,0.023651097,0.08745998,-0.00091630314
262,1435990459357,0.018458743,0.079518735,-0.004886927
263,1435990459541,0.017237013,0.07463181,0.0009162929
264,1435990459542,0.019985907,0.08257306,0.004886917
265,1435990459543,0.019069608,0.091125175,0.0070249448
266,1435990459544,0.023651097,0.09998272,-0.00030543748
267,1435990459545,0.01448812,0.09937186,0.0030543217
268,1435990459546,0.0129609555,0.09234691,0.0039706193
269,1435990459547,0.015098985,0.08868171,0.006719512
270,1435990459548,0.016626148,0.08226763,0.007941243
271,1435990459549,0.02395653,0.07432638,0.006414081
272,1435990459605,0.032814078,0.07035576,-0.00030543748
273,1435990459606,0.028538018,0.07035576,0.00030542724
274,1435990459607,0.018458743,0.069439456,0.0015271585
275,1435990459609,0.012655523,0.07005033,-0.00030543748
276,1435990459629,0.012350092,0.07157749,-0.0006108703
277,1435990459649,0.010822928,0.069439456,0.0015271585
278,1435990459669,0.009601198,0.07585354,-0.0027488982
279,1435990459689,0.0053251404,0.07157749,-0.0054977923
280,1435990459709,0.0071577365,0.0642471,-0.003970629
281,1435990459729,0.010822928,0.06394167,0.002443456
282,1435990459749,0.010517495,0.062414512,0.0039706193
283,1435990459771,0.012350092,0.060887348,-0.0027488982
284,1435990459792,0.012655523,0.06363624,-0.0024434663
285,1435990459811,0.016626148,0.060276482,0.0012217257
286,1435990459832,0.019069608,0.059360184,0.002748889
287,1435990459852,0.02029134,0.05691672,-0.0006108703
288,1435990459872,0.015404416,0.06363624,0.0073303776
289,1435990459890,0.030676048,0.055694994,0.011911868
290,1435990459913,0.043809652,0.03950706,0.010690137
291,1435990459939,0.0367847,-0.03135331,0.008857542
292,1435990459952,0.0227348,-0.062812865,0.006414081
293,1435990459973,0.061219312,-0.052733585,0.018325951
294,1435990459990,0.08382133,-0.025550082,0.014966193
295,1435990460012,0.06305191,-0.040821716,0.004581484
296,1435990460033,-0.002310675,-0.038378254,-0.012522742
297,1435990460052,-0.069505855,-0.010583892,-0.030237835
298,1435990460072,-0.08905354,0.010796398,-0.021380289
299,1435990460092,-0.07011671,0.013850726,-0.010384714
300,1435990460112,-0.014833413,0.017210484,-0.010995579
301,1435990460132,0.03311951,0.0059094727,-0.026878076
302,1435990460152,0.044420518,0.016599618,-0.039400812
303,1435990460172,0.029454317,0.019653946,-0.049480088
304,1435990460193,0.0016599493,0.014767021,-0.04856379
305,1435990460213,-0.019720335,-0.009973019,-0.043066002
306,1435990460363,-0.023080094,-0.038378254,-0.050090954
307,1435990460364,-0.038351722,-0.05487162,-0.06444629
308,1435990460365,-0.0774471,-0.060063973,-0.074831
309,1435990460366,-0.09668936,-0.05609335,-0.07147124
310,1435990460367,-0.08813724,-0.048152104,-0.07360927
311,1435990460368,-0.081417724,-0.03349133,-0.07910705
312,1435990460369,-0.08233402,-0.022495762,-0.09498955
313,1435990460385,-0.098827384,-0.0035589337,-0.114842676
314,1435990460412,-0.11837507,0.021791972,-0.11911873
315,1435990460413,-0.1318141,0.028511487,-0.120645896
316,1435990460429,-0.13211954,0.040117927,-0.11423181
317,1435990460454,-0.12265113,0.07310465,-0.11331551
318,1435990460481,-0.1064632,0.07676984,-0.1188133
319,1435990460494,-0.10065998,0.08898715,-0.13133603
320,1435990460515,-0.10188171,0.076464415,-0.12247849
321,1435990460530,-0.106157765,0.08623825,-0.11606441
322,1435990460554,-0.1064632,0.09876099,-0.11301008
323,1435990460572,-0.09088614,0.09753926,-0.10965032
324,1435990460593,-0.072560176,0.0960121,-0.10812315
325,1435990460613,-0.0633972,0.10364792,-0.10873402
326,1435990460633,-0.06461893,0.107007675,-0.09865475
327,1435990460653,-0.055455953,0.10303705,-0.10018191
328,1435990460673,-0.05789941,0.11708695,-0.09957104
329,1435990460693,-0.06553523,0.1259445,-0.093156956
330,1435990460713,-0.06461893,0.12624992,-0.07605273
331,1435990460734,-0.056372248,0.12044671,-0.055894174
332,1435990460750,-0.054845087,0.12105757,-0.056199607
333,1435990460775,-0.07194931,0.12258474,-0.05650504
334,1435990460793,-0.08050143,0.13877267,-0.05436701
335,1435990460813,-0.08447205,0.1409107,-0.047342062
336,1435990460833,-0.08386119,0.12747166,-0.03543019
337,1435990460853,-0.06767325,0.12105757,-0.031459566
338,1435990460873,-0.05667768,0.12258474,-0.027183509
339,1435990460892,-0.03682456,0.12869339,-0.0308487
340,1435990460913,-0.021247499,0.11647608,-0.027183509
341,1435990460941,0.0013545165,0.10364792,-0.017409664
342,1435990460955,0.01815331,0.08226763,-0.003970629
343,1435990460977,0.031286914,0.09295777,0.002443456
344,1435990460993,0.034035806,0.09815013,0.008857542
345,1435990461012,0.043198787,0.102426186,0.019547682
346,1435990461067,0.046863977,0.10639681,0.027488932
347,1435990461068,0.053583495,0.11494892,0.036041044
348,1435990461080,0.05999758,0.12380647,0.04734205
349,1435990461090,0.07465835,0.12258474,0.051312674
350,1435990461111,0.08351589,0.10089902,0.055894163
351,1435990461133,0.08657022,0.085321955,0.05314527
352,1435990461150,0.08198873,0.08623825,0.05467244
353,1435990461172,0.08382133,0.0950958,0.059253927
354,1435990461190,0.09145714,0.09479037,0.057115894
355,1435990461212,0.095733196,0.07615898,0.053756136
356,1435990461232,0.09603863,0.060581915,0.055588733
357,1435990461251,0.08443219,0.04836461,0.05742133
358,1435990461271,0.07771267,0.054778695,0.06200282
359,1435990461296,0.06305191,0.066690564,0.072387524
360,1435990461313,0.05205633,0.07860244,0.07666358
361,1435990461333,0.05999758,0.069439456,0.07147123
362,1435990461354,0.056332387,0.07279922,0.05894849
363,1435990461374,0.059692144,0.077991575,0.062308248
364,1435990461393,0.07007685,0.085321955,0.06566801
365,1435990461413,0.071298584,0.10212075,0.06597344
366,1435990461433,0.08198873,0.10395335,0.06994406
367,1435990461452,0.09115171,0.096928395,0.07452555
368,1435990461472,0.10428531,0.078297004,0.08002334
369,1435990461493,0.10825594,0.072188355,0.08216137
370,1435990461512,0.11008853,0.073715515,0.07696901
