id,attr_time,attr_x,attr_y,attr_z
1,1435996968025,-0.000976562,-0.00413513,-0.00248718
2,1435996968045,0.00436401,-0.00306702,-0.000350952
3,1435996968063,0.0118408,-0.0019989,-0.00141907
4,1435996968085,0.0182495,-0.000930786,-0.000350952
5,1435996968104,0.0193176,0.000137329,-0.00141907
6,1435996968124,0.0235901,0.000137329,-0.00248718
7,1435996968144,0.0257263,-0.000930786,-0.00462341
8,1435996968163,0.0150452,-0.00413513,-0.00462341
9,1435996968184,0.0182495,-0.00306702,-0.00462341
10,1435996968203,0.0299988,-0.0019989,-0.00248718
11,1435996968223,0.0171814,-0.00627136,-0.0035553
12,1435996968242,9.15527e-05,-0.00413513,-0.00782776
13,1435996968262,0.0032959,-0.00306702,-0.00569153
14,1435996968282,0.00222778,-0.0019989,0.00178528
15,1435996968302,-0.00311279,0.000137329,0.00285339
16,1435996968321,-0.0223389,-0.00840759,-0.000350952
17,1435996968341,-0.023407,-0.0116119,-0.00141907
18,1435996968359,-0.0137939,-0.0116119,-0.00675964
19,1435996968381,-0.0105896,-0.0126801,-0.00889587
20,1435996968400,-0.0137939,-0.0116119,-0.00782776
21,1435996968420,-0.0169983,-0.00947571,-0.00675964
22,1435996968440,-0.0191345,-0.00520325,-0.0035553
23,1435996968460,-0.0180664,-0.0019989,-0.00462341
24,1435996968479,-0.00845337,-0.0019989,-0.00569153
25,1435996968499,-0.00524902,-0.00413513,-0.00782776
26,1435996968519,0.00115967,-0.00413513,-0.00675964
27,1435996968539,0.00543213,-0.00306702,-0.0035553
28,1435996968557,0.00756836,0.00120544,0.000717163
29,1435996968578,0.0150452,0.00227356,0.00392151
30,1435996968598,0.022522,0.00440979,0.00605774
31,1435996968618,0.0278625,0.00547791,0.00712585
32,1435996968637,0.0353394,0.00547791,0.00605774
33,1435996968657,0.0364075,0.00975037,0.00285339
34,1435996968677,0.0364075,0.00654602,0.000717163
35,1435996968697,0.0289307,0.00440979,0.00178528
36,1435996968717,0.0246582,0.00440979,0.00178528
37,1435996968736,0.0332031,0.00227356,0.00392151
38,1435996968756,0.0438843,0.00868225,0.00605774
39,1435996968776,0.0257263,0.00654602,0.00285339
40,1435996968795,0.0107727,0.00547791,0.00178528
41,1435996968816,0.0182495,0.00975037,0.00926208
42,1435996968835,0.0193176,0.0108185,0.0156708
43,1435996968857,0.00863647,0.00975037,0.0135345
44,1435996968874,-0.00418091,0.00120544,0.0113983
45,1435996968896,-0.00631714,-0.0019989,0.0103302
46,1435996968918,0.00436401,0.00120544,0.00498962
47,1435996968936,0.0139771,0.00334167,0.00178528
48,1435996968957,0.00650024,0.00440979,0.00285339
49,1435996968975,0.00650024,0.00440979,0.00498962
50,1435996968994,0.00543213,0.00547791,0.00712585
51,1435996969017,0.00756836,0.00654602,0.00712585
52,1435996969034,0.0129089,0.00868225,0.00498962
53,1435996969054,0.0203857,0.00868225,0.00498962
54,1435996969074,0.0257263,0.00975037,0.00712585
55,1435996969094,0.0278625,0.00868225,0.00926208
56,1435996969114,0.032135,0.0108185,0.0124664
57,1435996969133,0.0342712,0.0118866,0.0156708
58,1435996969153,0.0385437,0.0108185,0.0146027
59,1435996969173,0.0406799,0.0118866,0.0156708
60,1435996969191,0.0385437,0.00975037,0.0124664
61,1435996969213,0.0396118,0.0118866,0.0135345
62,1435996969231,0.0364075,0.0118866,0.00926208
63,1435996969252,0.0310669,0.00761414,0.00712585
64,1435996969271,0.0214539,0.00868225,0.00712585
65,1435996969291,0.0310669,0.00654602,0.00819397
66,1435996969312,0.0342712,0.00868225,0.0103302
67,1435996969330,0.00756836,0.00440979,0.00392151
68,1435996969351,0.00436401,0.00547791,0.00285339
69,1435996969370,0.00650024,0.00227356,0.00605774
70,1435996969389,0.00436401,0.00334167,0.00712585
71,1435996969410,-0.0116577,0.00120544,0.00605774
72,1435996969430,-0.0255432,-0.00520325,0.00178528
73,1435996969449,-0.0276794,-0.00413513,-0.000350952
74,1435996969469,-0.0244751,-0.00306702,-0.00141907
75,1435996969489,-0.0340881,-0.00520325,-0.00462341
76,1435996969507,-0.0394287,-0.00733948,-0.00462341
77,1435996969529,-0.0394287,-0.00840759,-0.00569153
78,1435996969547,-0.0383606,-0.00306702,-0.00675964
79,1435996969568,-0.03302,-0.0019989,-0.00996399
80,1435996969587,-0.0255432,-0.00413513,-0.00675964
81,1435996969606,-0.0223389,-0.00413513,-0.00569153
82,1435996969627,-0.023407,-0.00627136,-0.00569153
83,1435996969646,-0.0159302,-0.00627136,-0.00462341
84,1435996969666,-0.00952148,-0.00627136,-0.00462341
85,1435996969686,-0.00311279,-0.00840759,-0.00675964
86,1435996969706,-0.00524902,-0.00733948,-0.00889587
87,1435996969737,-0.00524902,-0.00627136,-0.00889587
88,1435996969754,0.00115967,-0.00733948,-0.0110321
89,1435996969763,0.00115967,-0.0019989,-0.00675964
90,1435996969783,-0.00311279,-0.0019989,-0.00675964
91,1435996969803,-0.00738525,-0.00306702,-0.00996399
92,1435996969823,-0.0169983,-0.00627136,-0.0121002
93,1435996969843,-0.00524902,-0.00520325,-0.0131683
94,1435996969863,0.00543213,-0.00306702,-0.0121002
95,1435996969882,-0.0191345,-0.00627136,-0.0163727
96,1435996969902,-0.0255432,-0.00520325,-0.0153046
97,1435996969921,-0.0180664,-0.00627136,-0.0110321
98,1435996969942,-0.0127258,-0.0019989,-0.00569153
99,1435996969961,-0.0255432,-0.00413513,-0.00782776
100,1435996969981,-0.0383606,-0.0137482,-0.00889587
101,1435996970001,-0.0415649,-0.0180206,-0.00889587
102,1435996970020,-0.0351562,-0.0190887,-0.0121002
103,1435996970040,-0.0372925,-0.0169525,-0.0153046
104,1435996970060,-0.0415649,-0.0137482,-0.0174408
105,1435996970079,-0.0394287,-0.0116119,-0.0142364
106,1435996970099,-0.0415649,-0.00947571,-0.0142364
107,1435996970119,-0.0415649,-0.00627136,-0.0110321
108,1435996970139,-0.0340881,-0.00627136,-0.0110321
109,1435996970159,-0.0266113,-0.00413513,-0.0110321
110,1435996970178,-0.0255432,-0.00306702,-0.0110321
111,1435996970198,-0.0202026,-0.00520325,-0.00996399
112,1435996970218,-0.00952148,-0.00627136,-0.00782776
113,1435996970238,-0.00204468,-0.00627136,-0.0035553
114,1435996970258,0.00436401,-0.00520325,-0.00248718
115,1435996970277,0.00863647,0.000137329,-0.00141907
116,1435996970297,0.0139771,0.00334167,-0.00141907
117,1435996970316,0.0182495,0.00227356,-0.0035553
118,1435996970337,0.0214539,0.00334167,-0.00248718
119,1435996970356,0.0161133,-0.000930786,-0.0035553
120,1435996970376,0.00650024,-0.000930786,-0.00569153
121,1435996970396,0.0171814,0.00120544,-0.000350952
122,1435996970415,0.022522,0.00227356,-0.0035553
123,1435996970436,0.00650024,0.000137329,-0.00248718
124,1435996970455,9.15527e-05,0.00120544,-0.0035553
125,1435996970474,0.0032959,0.00440979,-0.000350952
126,1435996970493,0.00543213,0.00547791,0.00712585
127,1435996970514,-0.00524902,0.00654602,0.00392151
128,1435996970534,-0.0180664,-0.00306702,0.00178528
129,1435996970553,-0.0169983,-0.00840759,-0.00141907
130,1435996970574,-0.00738525,-0.00733948,-0.0035553
131,1435996970593,-0.00738525,-0.00840759,-0.00462341
132,1435996970613,-0.0137939,-0.00627136,-0.0035553
133,1435996970633,-0.0159302,-0.00520325,-0.00141907
134,1435996970653,-0.0180664,-0.00306702,0.00285339
135,1435996970673,-0.023407,0.000137329,-0.000350952
136,1435996970692,-0.0169983,0.00120544,-0.0035553
137,1435996970712,-0.0159302,0.000137329,-0.00462341
138,1435996970731,-0.00631714,-0.0019989,-0.0035553
139,1435996970751,-0.00845337,-0.0019989,-0.00141907
140,1435996970771,0.00115967,-0.000930786,0.00178528
141,1435996970791,0.0129089,-0.000930786,0.00605774
142,1435996970810,0.0203857,0.00334167,0.00392151
143,1435996970830,0.0246582,0.00547791,0.00392151
144,1435996970850,0.0278625,0.00654602,0.00498962
145,1435996970870,0.0342712,0.00761414,0.00392151
146,1435996970889,0.0374756,0.00440979,0.00285339
147,1435996970909,0.0299988,0.00227356,0.00178528
148,1435996970929,0.0235901,0.00120544,-0.000350952
149,1435996970948,0.032135,0.000137329,0.00178528
150,1435996970969,0.041748,0.00761414,0.00285339
151,1435996970988,0.0246582,0.00227356,-0.000350952
152,1435996971008,0.00756836,0.00227356,-0.00248718
153,1435996971028,0.0129089,0.00440979,0.000717163
154,1435996971047,0.0171814,0.00761414,0.0103302
155,1435996971068,0.00863647,0.00654602,0.00819397
156,1435996971087,-0.00952148,-0.0019989,0.00605774
157,1435996971106,-0.00952148,-0.00413513,0.00178528
158,1435996971126,0.00115967,-0.00413513,-0.000350952
159,1435996971146,0.00222778,-0.000930786,-0.00462341
160,1435996971166,-0.00418091,-0.0019989,-0.0035553
161,1435996971186,-0.00738525,-0.000930786,0.000717163
162,1435996971205,-0.00952148,0.00227356,0.000717163
163,1435996971225,-0.00524902,0.00654602,0.00178528
164,1435996971245,0.00650024,0.00761414,-0.000350952
165,1435996971264,0.0107727,0.00761414,0.00285339
166,1435996971284,0.0118408,0.00440979,0.00498962
167,1435996971303,0.0150452,0.00440979,0.00712585
168,1435996971324,0.0214539,0.00975037,0.00926208
169,1435996971344,0.0235901,0.00868225,0.00819397
170,1435996971365,0.0257263,0.00868225,0.00712585
171,1435996971383,0.0246582,0.00868225,0.00926208
172,1435996971403,0.0278625,0.00868225,0.00926208
173,1435996971423,0.032135,0.0108185,0.00712585
174,1435996971442,0.032135,0.0118866,0.00605774
175,1435996971462,0.0267944,0.00868225,0.00498962
176,1435996971482,0.0161133,0.00868225,0.00392151
177,1435996971502,0.022522,0.00334167,0.00605774
178,1435996971522,0.0161133,0.00120544,0.00392151
179,1435996971541,-0.00952148,-0.000930786,-0.00248718
180,1435996971561,-0.0148621,0.00440979,-0.0035553
181,1435996971581,-0.00845337,0.00334167,0.00178528
182,1435996971601,-0.0116577,0.00761414,0.00605774
183,1435996971620,-0.03302,0.00547791,0.00498962
184,1435996971640,-0.0522461,-0.00627136,0.00178528
185,1435996971660,-0.0437012,-0.0105438,-0.00141907
186,1435996971679,-0.0351562,-0.00947571,-0.00675964
187,1435996971700,-0.0362244,-0.00840759,-0.0110321
188,1435996971720,-0.0308838,-0.00840759,-0.0121002
189,1435996971741,-0.023407,-0.00627136,-0.00782776
190,1435996971759,-0.0202026,-0.00413513,-0.00462341
191,1435996971780,-0.0202026,-0.00413513,-0.0035553
192,1435996971800,-0.0137939,-0.00520325,-0.00141907
193,1435996971820,-0.0159302,-0.00627136,-0.00248718
194,1435996971839,-0.0137939,-0.00733948,-0.00462341
195,1435996971859,-0.0127258,-0.00840759,-0.00462341
196,1435996971879,-0.0116577,-0.00627136,-0.00569153
197,1435996971900,-0.00311279,-0.00413513,-0.00248718
198,1435996971918,-0.00418091,0.000137329,-0.00141907
199,1435996971937,-0.00204468,-0.000930786,0.000717163
200,1435996971958,0.00222778,0.000137329,-0.00141907
201,1435996971978,0.00436401,-0.000930786,-0.0035553
202,1435996971998,0.00543213,-0.00413513,-0.00675964
203,1435996972018,0.00115967,-0.00306702,-0.00782776
204,1435996972037,0.0032959,-0.00520325,-0.00569153
205,1435996972057,0.0139771,-0.0019989,-0.00248718
206,1435996972073,0.00756836,-0.00306702,-0.00462341
207,1435996972095,-0.00418091,-0.0019989,-0.00889587
208,1435996972114,9.15527e-05,-0.000930786,-0.00675964
209,1435996972134,0.00222778,-0.0019989,-0.0035553
210,1435996972154,-0.00311279,0.00120544,-0.00248718
211,1435996972173,-0.0180664,-0.00840759,-0.00782776
212,1435996972194,-0.0212708,-0.0126801,-0.00889587
213,1435996972213,-0.0148621,-0.0126801,-0.0110321
214,1435996972233,-0.0137939,-0.0105438,-0.00889587
215,1435996972252,-0.023407,-0.00840759,-0.00889587
216,1435996972272,-0.023407,-0.00733948,-0.00462341
217,1435996972292,-0.0202026,-0.00413513,-0.00248718
218,1435996972312,-0.0266113,-0.00306702,-0.0035553
219,1435996972331,-0.0202026,-0.00627136,-0.00462341
220,1435996972351,-0.0148621,-0.00413513,-0.00675964
221,1435996972371,-0.00952148,-0.00306702,-0.00569153
222,1435996972391,-0.000976562,-0.00627136,-0.0035553
223,1435996972410,0.00650024,-0.0019989,-0.00248718
224,1435996972430,0.0118408,-0.0019989,0.000717163
225,1435996972450,0.0161133,-0.0019989,0.000717163
226,1435996972470,0.0171814,0.00120544,0.00178528
227,1435996972490,0.0182495,0.00227356,0.00178528
228,1435996972509,0.0193176,0.00120544,0.000717163
229,1435996972529,0.0193176,0.00334167,-0.00141907
230,1435996972549,0.0139771,-0.000930786,-0.00141907
231,1435996972568,0.00970459,0.00120544,-0.00248718
232,1435996972589,0.0214539,0.00334167,0.00285339
233,1435996972609,0.0150452,0.00227356,0.000717163
234,1435996972628,-0.00631714,0.000137329,-0.00569153
235,1435996972648,-0.00311279,0.00120544,-0.00462341
236,1435996972667,0.00543213,0.00227356,0.00498962
237,1435996972687,0.00970459,0.00547791,0.00712585
238,1435996972707,-0.00524902,0.00227356,0.00285339
239,1435996972727,-0.00631714,-0.00520325,0.00285339
240,1435996972746,0.00863647,-0.00627136,0.00178528
241,1435996972766,0.0139771,-0.00306702,0.000717163
242,1435996972786,0.00970459,-0.00306702,-0.000350952
243,1435996972806,0.00543213,0.000137329,0.00285339
244,1435996972826,0.00222778,0.00227356,0.00605774
245,1435996972845,0.00436401,0.00334167,0.00392151
246,1435996972865,0.00970459,0.00547791,-0.000350952
247,1435996972885,0.0182495,0.00654602,0.00178528
248,1435996972904,0.0214539,0.00761414,0.00285339
249,1435996972924,0.022522,0.00868225,0.00498962
250,1435996972944,0.0267944,0.00761414,0.00819397
251,1435996972964,0.0299988,0.00761414,0.0124664
252,1435996972983,0.0385437,0.00975037,0.0113983
253,1435996973003,0.0396118,0.0108185,0.0113983
254,1435996973023,0.0438843,0.0118866,0.00926208
255,1435996973043,0.0438843,0.0129547,0.0113983
256,1435996973062,0.0460205,0.0108185,0.00926208
257,1435996973082,0.0438843,0.0108185,0.00819397
258,1435996973102,0.0342712,0.0108185,0.00498962
259,1435996973122,0.0449524,0.00975037,0.0103302
260,1435996973141,0.0492249,0.0118866,0.00926208
261,1435996973161,0.0171814,0.00975037,0.00498962
262,1435996973181,0.0171814,0.0129547,0.00605774
263,1435996973201,0.0267944,0.0108185,0.0124664
264,1435996973221,0.0214539,0.0129547,0.0156708
265,1435996973239,0.00650024,0.0118866,0.0156708
266,1435996973260,-0.00738525,-0.000930786,0.0113983
267,1435996973280,-0.00524902,-0.0019989,0.00712585
268,1435996973299,-0.00631714,-0.00413513,0.00285339
269,1435996973319,-0.0148621,-0.00413513,-0.00248718
270,1435996973339,-0.0223389,-0.00627136,-0.00248718
271,1435996973359,-0.0287476,-0.00413513,0.00178528
272,1435996973379,-0.0255432,0.000137329,0.000717163
273,1435996973398,-0.0202026,0.00227356,0.00178528
274,1435996973418,-0.0127258,0.00334167,-0.000350952
275,1435996973438,-0.0137939,0.00547791,-0.00141907
276,1435996973457,-0.0148621,0.000137329,0.000717163
277,1435996973478,-0.0105896,-0.000930786,0.000717163
278,1435996973497,-0.0105896,-0.00306702,-0.000350952
279,1435996973517,-0.00631714,-0.00306702,-0.00248718
280,1435996973536,0.0032959,-0.00306702,-0.0035553
281,1435996973556,0.0118408,-0.000930786,-0.00248718
282,1435996973576,0.00970459,0.00227356,-0.00462341
283,1435996973596,0.00863647,0.00227356,-0.0035553
284,1435996973616,9.15527e-05,0.00227356,-0.0035553
285,1435996973635,-0.00524902,0.000137329,-0.0035553
286,1435996973655,0.00650024,-0.000930786,-0.00141907
287,1435996973675,0.00115967,-0.00520325,-0.00569153
288,1435996973695,-0.0159302,-0.00306702,-0.00889587
289,1435996973715,-0.0159302,-0.000930786,-0.0110321
290,1435996973735,-0.00631714,-0.0019989,-0.00462341
291,1435996973754,-0.0105896,-0.000930786,-0.00462341
292,1435996973774,-0.0287476,-0.00947571,-0.00782776
293,1435996973793,-0.0426331,-0.0190887,-0.0110321
294,1435996973813,-0.0383606,-0.021225,-0.0110321
295,1435996973833,-0.0383606,-0.0180206,-0.0131683
296,1435996973853,-0.0458374,-0.0148163,-0.0153046
297,1435996973871,-0.0479736,-0.0126801,-0.0131683
298,1435996973892,-0.0469055,-0.00947571,-0.00782776
299,1435996973912,-0.0469055,-0.00413513,-0.00782776
300,1435996973932,-0.0372925,-0.00306702,-0.00782776
301,1435996973952,-0.0372925,-0.00520325,-0.00675964
302,1435996973971,-0.0266113,-0.00733948,-0.00889587
303,1435996973991,-0.023407,-0.00947571,-0.0110321
304,1435996974011,-0.0148621,-0.00947571,-0.0110321
305,1435996974030,-0.00524902,-0.00840759,-0.00996399
306,1435996974050,0.00436401,-0.00520325,-0.00675964
307,1435996974070,0.00970459,0.000137329,-0.00248718
308,1435996974091,0.0139771,0.00227356,0.000717163
309,1435996974111,0.0161133,0.00334167,-0.000350952
310,1435996974131,0.0171814,0.00227356,-0.00141907
311,1435996974152,0.0139771,0.00120544,-0.0035553
312,1435996974171,0.0182495,0.00120544,-0.00462341
313,1435996974189,0.0310669,0.00334167,-0.00141907
314,1435996974210,0.0161133,-0.0019989,-0.00248718
315,1435996974229,0.0032959,-0.0019989,-0.00675964
316,1435996974252,0.00756836,-0.000930786,-0.0035553
317,1435996974270,0.00970459,-0.00306702,0.00285339
318,1435996974289,-0.000976562,0.00334167,0.00285339
319,1435996974309,-0.0212708,-0.00520325,-0.00248718
320,1435996974328,-0.0255432,-0.00947571,-0.00462341
321,1435996974351,-0.0223389,-0.00947571,-0.00889587
322,1435996974368,-0.0212708,-0.0116119,-0.00889587
323,1435996974387,-0.0298157,-0.00840759,-0.00569153
324,1435996974406,-0.0319519,-0.00733948,-0.00462341
325,1435996974427,-0.0319519,-0.00413513,-0.000350952
326,1435996974448,-0.03302,-0.0019989,-0.000350952
327,1435996974467,-0.0202026,-0.000930786,-0.00462341
328,1435996974487,-0.0116577,-0.0019989,-0.00569153
329,1435996974505,-0.00418091,-0.00306702,-0.00675964
330,1435996974526,-0.000976562,-0.00520325,-0.0035553
331,1435996974549,0.00650024,-0.00413513,-0.00141907
332,1435996974566,0.0129089,-0.000930786,0.00178528
333,1435996974585,0.0214539,-0.0019989,0.00178528
334,1435996974605,0.0257263,0.00120544,0.00285339
335,1435996974625,0.0289307,0.00440979,0.00178528
336,1435996974646,0.0299988,0.00547791,-0.00141907
337,1435996974664,0.0235901,0.00120544,-0.00141907
338,1435996974682,0.0150452,0.00227356,-0.00248718
339,1435996974704,0.0182495,-0.000930786,-0.00141907
340,1435996974737,0.0203857,0.00334167,-0.00248718
341,1435996974743,-0.00311279,-0.0019989,-0.00782776
342,1435996974767,-0.00845337,0.00227356,-0.00889587
343,1435996974781,0.00115967,-0.0019989,-0.0035553
344,1435996974801,0.0032959,0.00547791,0.00498962
345,1435996974821,-0.00524902,0.00761414,0.00285339
346,1435996974840,-0.0180664,0.00227356,-0.00248718
347,1435996974860,-0.0127258,0.00120544,-0.00675964
348,1435996974880,-0.00204468,0.00440979,-0.0121002
349,1435996974900,9.15527e-05,0.00761414,-0.0185089
350,1435996974919,-0.00524902,0.0108185,-0.0217133
351,1435996974940,-0.00418091,0.0172272,-0.0249176
352,1435996974959,0.00222778,0.024704,-0.0259857
353,1435996974979,-0.000976562,0.0311127,-0.0313263
354,1435996974998,-0.00845337,0.034317,-0.0334625
355,1435996975018,-0.0223389,0.0321808,-0.0388031
356,1435996975038,-0.0372925,0.0364532,-0.0441437
357,1435996975058,-0.0394287,0.0407257,-0.0452118
358,1435996975078,-0.0351562,0.0471344,-0.0441437
359,1435996975097,-0.0426331,0.0482025,-0.0409393
360,1435996975117,-0.0671997,0.0449982,-0.0430756
361,1435996975135,-0.0736084,0.0449982,-0.0452118
362,1435996975155,-0.0939026,0.0631561,-0.065506
363,1435996975175,0.00543213,0.0385895,0.0295563
364,1435996975194,-0.200714,0.0578156,-0.124252
365,1435996975216,-0.135559,0.0738373,-0.0569611
366,1435996975236,-0.116333,0.0845184,-0.065506
367,1435996975255,-0.137695,0.103745,-0.0601654
368,1435996975275,-0.166534,0.105881,-0.0462799
369,1435996975295,-0.208191,0.124039,-0.0238495
370,1435996975314,-0.170807,0.144333,0.000717163
371,1435996975334,-0.147308,0.162491,0.0306244
372,1435996975354,-0.154785,0.165695,0.0434418
373,1435996975374,-0.113129,0.160355,0.0541229
374,1435996975393,-0.0778809,0.155014,0.063736
375,1435996975413,-0.060791,0.128311,0.0808258
376,1435996975433,-0.109924,0.0887909,0.0797577
377,1435996975453,-0.114197,0.0353851,0.104324
378,1435996975473,-0.245575,-0.0329742,0.117142
379,1435996975492,-0.302185,-0.112015,0.133163
380,1435996975512,-0.286163,-0.165421,0.145981
381,1435996975532,-0.21994,-0.193192,0.164139
382,1435996975551,-0.167603,-0.17717,0.164139
383,1435996975572,-0.0939026,-0.156876,0.151321
384,1435996975591,-0.03302,-0.144058,0.147049
385,1435996975611,-0.00418091,-0.140854,0.127823
386,1435996975631,0.0396118,-0.148331,0.119278
387,1435996975650,0.0951538,-0.139786,0.104324
388,1435996975670,0.214783,-0.116287,0.104324
389,1435996975690,0.358978,-0.0703583,0.113937
390,1435996975710,0.496765,-0.0351105,0.143845
391,1435996975729,0.574738,-0.021225,0.188705
