id,attr_time,attr_x,attr_y,attr_z
1,1435996968010,0.036651913,0.032375857,0.026267206
2,1435996968031,0.032986723,0.029321533,0.020158553
3,1435996968052,0.031154128,0.028099801,0.016493361
4,1435996968072,0.02687807,0.032986723,0.013439035
5,1435996968092,0.029626964,0.035124753,0.015271631
6,1435996968112,0.025961773,0.03481932,0.008552114
7,1435996968130,0.021685716,0.036651913,0.009162978
8,1435996968149,0.016798794,0.03970624,0.0067195175
9,1435996968169,0.017104227,0.034513887,0.00580322
10,1435996968226,0.018325957,0.03573562,0.0067195175
11,1435996968227,0.029932396,0.03176499,0.0076358155
12,1435996968231,0.042455133,0.034513887,0.0106901415
13,1435996968250,0.034208454,0.023518313,0.01160644
14,1435996968277,0.013744468,0.023823744,0.01740966
15,1435996968295,0.027183503,0.026267206,0.012217305
16,1435996968310,0.0421497,0.029932396,0.021685716
17,1435996968331,0.032986723,0.03359759,0.01740966
18,1435996968350,0.017715093,0.025045475,0.006414085
19,1435996968369,0.009162978,0.025961773,0.004886922
20,1435996968394,0.027183503,0.035124753,0.003970624
21,1435996968410,0.044593163,0.04428773,0.006414085
22,1435996968429,0.045814894,0.041233405,0.0106901415
23,1435996968452,0.023518313,0.041233405,0.009773844
24,1435996968472,0.004581489,0.04062254,0.008857546
25,1435996968491,0.0061086523,0.03756821,0.008246681
26,1435996968510,0.017715093,0.042760566,0.0125227375
27,1435996968531,0.02076942,0.042760566,0.010995574
28,1435996968551,0.01863139,0.044898596,0.005497787
29,1435996968573,0.016187929,0.046731193,0.0067195175
30,1435996968592,0.015271631,0.043982297,0.006414085
31,1435996968612,0.015271631,0.047647487,0.004886922
32,1435996968633,0.020158553,0.042760566,0.0033597588
33,1435996968652,0.01160644,0.043676864,0.00030543262
34,1435996968673,-0.00061086525,0.043066,0.0030543262
35,1435996968691,-0.0027488936,0.03634648,0.005497787
36,1435996968709,-0.002443461,0.03359759,0.0027488936
37,1435996968730,0.00030543262,0.03604105,-0.0009162979
38,1435996968753,0.010995574,0.040317107,0.0018325958
39,1435996968770,0.024740042,0.042455133,0.005192355
40,1435996968790,0.007941248,0.027183503,0.009773844
41,1435996968810,-0.013133603,0.032986723,0.010079277
42,1435996968832,0.013133603,0.042760566,0.004581489
43,1435996968851,0.02687807,0.04428773,0.004276057
44,1435996968870,0.009468411,0.040011674,0.003970624
45,1435996968890,-0.0061086523,0.035430185,0.00030543262
46,1435996968910,-0.005192355,0.04062254,-0.00580322
47,1435996968965,0.015577064,0.04886922,-0.00061086525
48,1435996968966,0.035124753,0.04886922,0.0015271631
49,1435996968970,0.032070424,0.053450707,0.00580322
50,1435996968991,0.012217305,0.049480084,0.004886922
51,1435996969011,-0.0012217305,0.04795292,0.004886922
52,1435996969033,-0.002443461,0.049480084,0.0036651916
53,1435996969050,0.017104227,0.044898596,0.0027488936
54,1435996969071,0.020158553,0.045814894,-0.0021380284
55,1435996969093,0.018325957,0.046120327,-0.0027488936
56,1435996969110,0.0125227375,0.05100725,-0.0036651916
57,1435996969131,0.007941248,0.05375614,-0.008246681
58,1435996969150,0.00580322,0.045814894,-0.007941248
59,1435996969176,0.00030543262,0.044593163,-0.009162978
60,1435996969192,-0.002443461,0.04428773,-0.009468411
61,1435996969213,0.00061086525,0.04184427,-0.0070249503
62,1435996969233,-0.002443461,0.04642576,-0.0076358155
63,1435996969254,0.004886922,0.040927973,-0.007330383
64,1435996969273,0.004581489,0.043066,-0.011911872
65,1435996969291,0.0036651916,0.041233405,-0.01282817
66,1435996969310,0.022296581,0.04642576,0.0
67,1435996969332,0.021685716,0.047647487,0.00061086525
68,1435996969353,-0.0070249503,0.040927973,0.0012217305
69,1435996969374,0.004276057,0.04337143,-0.0015271631
70,1435996969390,0.026267206,0.03604105,0.0018325958
71,1435996969413,0.016798794,0.041233405,0.0009162979
72,1435996969435,0.0036651916,0.045814894,-0.00061086525
73,1435996969455,-0.005192355,0.036957346,-0.00061086525
74,1435996969475,0.007330383,0.043066,0.0030543262
75,1435996969497,0.027488936,0.04886922,0.0033597588
76,1435996969515,0.032986723,0.04337143,0.008246681
77,1435996969534,0.01863139,0.042760566,0.0033597588
78,1435996969554,0.0015271631,0.04642576,0.0021380284
79,1435996969574,-0.0021380284,0.047647487,0.003970624
80,1435996969601,0.012217305,0.048563786,0.0012217305
81,1435996969613,0.022907447,0.048258353,-0.0033597588
82,1435996969636,0.021991149,0.041233405,0.0
83,1435996969651,0.01863139,0.04428773,0.0036651916
84,1435996969706,0.013133603,0.036957346,0.007941248
85,1435996969707,0.01740966,0.030848695,0.01038471
86,1435996969726,0.017715093,0.03023783,0.0125227375
87,1435996969731,0.01863139,0.034513887,0.010995574
88,1435996969754,0.008246681,0.03756821,0.013133603
89,1435996969776,0.004276057,0.03023783,0.015271631
90,1435996969792,0.0106901415,0.026267206,0.01160644
91,1435996969811,0.0143553335,0.031154128,0.011911872
92,1435996969831,0.003970624,0.035430185,0.01038471
93,1435996969851,0.019242255,0.033292156,0.008552114
94,1435996969871,0.038179077,0.040011674,0.016493361
95,1435996969892,0.02443461,0.030848695,0.021380283
96,1435996969911,0.0076358155,0.03481932,0.012217305
97,1435996969934,0.034513887,0.028710667,0.01740966
98,1435996969954,0.03481932,0.039095376,0.03268129
99,1435996969973,0.015271631,0.03145956,0.03145956
100,1435996969992,0.006414085,0.01863139,0.03848451
101,1435996970011,0.02107485,0.02565634,0.032375857
102,1435996970033,0.040011674,0.029932396,0.026572637
103,1435996970054,0.043982297,0.030848695,0.02687807
104,1435996970074,0.042455133,0.028099801,0.036651913
105,1435996970095,0.023823744,0.03176499,0.026572637
106,1435996970115,0.0143553335,0.035430185,0.01740966
107,1435996970136,0.019242255,0.037873644,0.013439035
108,1435996970152,0.022296581,0.03573562,0.016493361
109,1435996970171,0.022296581,0.03726278,0.015271631
110,1435996970194,0.026572637,0.03848451,0.01282817
111,1435996970216,0.026267206,0.040317107,0.013439035
112,1435996970274,0.02565634,0.040927973,0.019242255
113,1435996970275,0.024129177,0.036957346,0.024129177
114,1435996970276,0.02321288,0.03359759,0.024740042
115,1435996970293,0.02076942,0.03390302,0.02565634
116,1435996970311,0.01863139,0.03481932,0.021380283
117,1435996970334,0.015577064,0.031154128,0.021685716
118,1435996970354,0.015271631,0.02565634,0.021685716
119,1435996970373,0.008552114,0.025961773,0.0106901415
120,1435996970391,0.0076358155,0.0290161,0.0021380284
121,1435996970411,0.021685716,0.03359759,-0.0015271631
122,1435996970462,0.028405234,0.038789943,0.005497787
123,1435996970463,-0.00061086525,0.035124753,0.0027488936
124,1435996970496,0.0143553335,0.03390302,0.0018325958
125,1435996970497,0.03481932,0.024740042,0.010079277
126,1435996970511,0.03145956,0.03023783,0.012217305
127,1435996970531,0.009468411,0.032986723,0.012217305
128,1435996970559,0.0027488936,0.028099801,-0.0009162979
129,1435996970574,0.017104227,0.046120327,-0.00061086525
130,1435996970592,0.03268129,0.06627888,-0.0018325958
131,1435996970634,0.042760566,0.06627888,-0.00061086525
132,1435996970635,0.0290161,0.06505715,0.00061086525
133,1435996970652,0.01038471,0.064446285,0.00061086525
134,1435996970673,0.006414085,0.060170226,-0.0018325958
135,1435996970692,0.0143553335,0.057726767,0.0
136,1435996970711,0.025350908,0.06047566,0.0070249503
137,1435996970731,0.021380283,0.060170226,0.0
138,1435996970751,0.014966198,0.05497787,-0.0027488936
139,1435996970772,0.013439035,0.050396383,0.0
140,1435996970791,0.019547688,0.049480084,0.0015271631
141,1435996970812,0.020463986,0.048563786,0.002443461
142,1435996970836,0.013439035,0.0421497,0.00030543262
143,1435996970856,0.007330383,0.042455133,0.0033597588
144,1435996970876,0.006414085,0.035430185,0.0012217305
145,1435996970892,0.004581489,0.035430185,0.0061086523
146,1435996970915,0.011911872,0.025961773,0.0036651916
147,1435996970933,0.010079277,0.030848695,-0.0012217305
148,1435996970952,0.018325957,0.03481932,-0.0027488936
149,1435996970973,0.026572637,0.0421497,0.0033597588
150,1435996970996,0.015577064,0.03390302,0.008246681
151,1435996971015,-0.008246681,0.028405234,0.010079277
152,1435996971036,0.0067195175,0.030848695,0.006414085
153,1435996971056,0.032070424,0.036957346,0.009468411
154,1435996971075,0.01863139,0.0421497,0.012217305
155,1435996971093,0.009773844,0.03268129,0.0076358155
156,1435996971112,0.0015271631,0.033292156,0.0033597588
157,1435996971133,0.01740966,0.03268129,0.004886922
158,1435996971153,0.042455133,0.041233405,0.006414085
159,1435996971180,0.04062254,0.042455133,0.0143553335
160,1435996971191,0.019547688,0.042760566,0.012217305
161,1435996971212,0.0018325958,0.043676864,0.010079277
162,1435996971232,0.0021380284,0.04337143,0.01160644
163,1435996971252,0.013439035,0.0421497,0.014049901
164,1435996971274,0.022602014,0.051923547,0.013439035
165,1435996971294,0.027183503,0.044593163,0.0070249503
166,1435996971313,0.025045475,0.046120327,0.0076358155
167,1435996971332,0.019547688,0.04520403,0.01038471
168,1435996971358,0.021685716,0.045814894,0.01038471
169,1435996971375,0.02321288,0.037873644,0.009162978
170,1435996971392,0.018325957,0.035124753,0.008246681
171,1435996971413,0.009773844,0.030543262,0.004581489
172,1435996971434,0.0036651916,0.029932396,0.007330383
173,1435996971454,0.0021380284,0.024129177,0.005497787
174,1435996971473,0.00061086525,0.023518313,0.002443461
175,1435996971494,0.009162978,0.028405234,0.0012217305
176,1435996971516,0.022296581,0.03145956,-0.0061086523
177,1435996971533,0.022907447,0.041233405,-0.0009162979
178,1435996971553,-0.005497787,0.02321288,0.004886922
179,1435996971573,-0.0125227375,0.03176499,0.0018325958
180,1435996971593,0.015577064,0.038179077,-0.0036651916
181,1435996971613,0.028099801,0.042455133,0.0009162979
182,1435996971632,0.013133603,0.04642576,-0.0061086523
183,1435996971655,-0.008246681,0.040927973,-0.0070249503
184,1435996971674,-0.010079277,0.043676864,-0.00580322
185,1435996971693,0.014660766,0.049785517,-0.01038471
186,1435996971713,0.03604105,0.055588737,-0.008857546
187,1435996971733,0.03145956,0.060170226,-0.00580322
188,1435996971754,0.015271631,0.06261369,-0.003970624
189,1435996971774,-0.0061086523,0.064751714,-0.003970624
190,1435996971793,0.0012217305,0.05222898,-0.0018325958
191,1435996971813,0.014966198,0.048563786,0.0012217305
192,1435996971871,0.028710667,0.045814894,0.00061086525
193,1435996971876,0.02443461,0.049785517,0.0036651916
194,1435996971879,0.008552114,0.04886922,0.007330383
195,1435996971895,0.009162978,0.043066,0.0061086523
196,1435996971913,0.01985312,0.040927973,0.008552114
197,1435996971933,0.017104227,0.03756821,0.004581489
198,1435996971957,0.011301007,0.03726278,0.007941248
199,1435996971975,0.016187929,0.03756821,0.012217305
200,1435996971993,0.012217305,0.03634648,0.014049901
201,1435996972014,0.016493361,0.030848695,0.014966198
202,1435996972034,0.014660766,0.029626964,0.014660766
203,1435996972055,0.020158553,0.026267206,0.017104227
204,1435996972079,0.03848451,0.030848695,0.015577064
205,1435996972094,0.029626964,0.032986723,0.02321288
206,1435996972114,0.015271631,0.027183503,0.023518313
207,1435996972133,0.030848695,0.026572637,0.024740042
208,1435996972153,0.04520403,0.020463986,0.031154128
209,1435996972175,0.030543262,0.028405234,0.03390302
210,1435996972194,0.017715093,0.016798794,0.03359759
211,1435996972213,0.01740966,0.024740042,0.0290161
212,1435996972236,0.03390302,0.038789943,0.024129177
213,1435996972256,0.049785517,0.048258353,0.018936822
214,1435996972274,0.0421497,0.046731193,0.021685716
215,1435996972295,0.032375857,0.043676864,0.027794369
216,1435996972313,0.025350908,0.038179077,0.023518313
217,1435996972333,0.024740042,0.041233405,0.02076942
218,1435996972353,0.022907447,0.038789943,0.016493361
219,1435996972374,0.025045475,0.03940081,0.015882496
220,1435996972394,0.02443461,0.044593163,0.010079277
221,1435996972419,0.021380283,0.046120327,0.01038471
222,1435996972437,0.021991149,0.047647487,0.008857546
223,1435996972453,0.018325957,0.04642576,0.008552114
224,1435996972474,0.016493361,0.041233405,0.0143553335
225,1435996972493,0.01038471,0.03848451,0.014966198
226,1435996972514,0.013439035,0.03756821,0.016798794
227,1435996972534,0.01038471,0.036957346,0.016493361
228,1435996972554,0.007330383,0.037873644,0.009162978
229,1435996972625,0.005497787,0.03604105,0.0067195175
230,1435996972626,0.013439035,0.034208454,-0.00030543262
231,1435996972627,0.024129177,0.038789943,0.005497787
232,1435996972645,0.019547688,0.03573562,0.006414085
233,1435996972653,-0.0018325958,0.028099801,0.005497787
234,1435996972673,0.00580322,0.034208454,0.0036651916
235,1435996972695,0.029932396,0.03970624,0.009162978
236,1435996972715,0.027183503,0.04062254,0.008857546
237,1435996972734,0.004581489,0.03756821,0.0015271631
238,1435996972755,-0.004581489,0.030848695,-0.004581489
239,1435996972774,0.015271631,0.038179077,-0.00061086525
240,1435996972795,0.037873644,0.054367006,-0.0021380284
241,1435996972814,0.03940081,0.04642576,0.005192355
242,1435996972836,0.03023783,0.050396383,0.0061086523
243,1435996972856,0.0036651916,0.054367006,0.008552114
244,1435996972877,0.0015271631,0.04917465,0.00061086525
245,1435996972897,0.008246681,0.050396383,0.0061086523
246,1435996972917,0.016493361,0.05222898,0.00580322
247,1435996972935,0.014660766,0.05100725,0.00030543262
248,1435996972954,0.01282817,0.047647487,0.0036651916
249,1435996972974,0.013744468,0.047647487,0.008552114
250,1435996972995,0.013744468,0.05131268,0.00580322
251,1435996973016,0.015882496,0.045814894,0.006414085
252,1435996973036,0.009162978,0.045814894,0.008552114
253,1435996973057,0.0070249503,0.04062254,0.0067195175
254,1435996973077,0.0061086523,0.03390302,0.0061086523
255,1435996973097,0.0036651916,0.035124753,0.0076358155
256,1435996973119,0.004581489,0.031154128,0.005192355
257,1435996973169,0.014966198,0.0290161,0.0070249503
258,1435996973170,0.021685716,0.03604105,0.008857546
259,1435996973175,0.015271631,0.032986723,0.0125227375
260,1435996973194,-0.0076358155,0.017104227,0.015577064
261,1435996973225,0.013439035,0.023823744,0.0070249503
262,1435996973296,0.034208454,0.03604105,0.01282817
263,1435996973297,0.02076942,0.03634648,0.013133603
264,1435996973298,0.0015271631,0.02565634,0.006414085
265,1435996973299,-0.007330383,0.022907447,0.00030543262
266,1435996973315,0.008246681,0.031154128,-0.003970624
267,1435996973339,0.021991149,0.039095376,-0.008857546
268,1435996973357,0.029321533,0.03726278,0.00030543262
269,1435996973375,0.018020526,0.037873644,0.0
270,1435996973397,0.00061086525,0.042760566,-0.006414085
271,1435996973417,-0.004581489,0.052534413,-0.0061086523
272,1435996973436,0.004276057,0.058643065,-0.00580322
273,1435996973458,0.013439035,0.055283304,-0.007330383
274,1435996973476,0.013439035,0.052534413,-0.0067195175
275,1435996973495,0.009468411,0.047647487,0.00061086525
276,1435996973515,0.009468411,0.04642576,0.005497787
277,1435996973537,0.011911872,0.04795292,0.0009162979
278,1435996973556,0.00580322,0.04337143,0.0021380284
279,1435996973578,-0.0027488936,0.037873644,0.0027488936
280,1435996973596,0.002443461,0.034513887,0.0009162979
281,1435996973616,0.0021380284,0.032070424,0.0033597588
282,1435996973659,0.006414085,0.031154128,0.002443461
283,1435996973660,0.0033597588,0.033292156,0.005192355
284,1435996973674,0.013744468,0.03176499,0.00030543262
285,1435996973702,0.027794369,0.033292156,0.0070249503
286,1435996973716,0.014660766,0.026267206,0.011301007
287,1435996973735,0.0012217305,0.03268129,0.004276057
288,1435996973755,0.020463986,0.03145956,0.0070249503
289,1435996973777,0.036957346,0.027488936,0.014049901
290,1435996973795,0.022907447,0.0421497,0.008552114
291,1435996973817,0.007941248,0.03573562,0.003970624
292,1435996973837,0.013744468,0.03756821,0.009773844
293,1435996973857,0.036957346,0.051618114,0.003970624
294,1435996973875,0.04886922,0.053450707,0.0036651916
295,1435996973896,0.039095376,0.061391957,0.013133603
296,1435996973918,0.023518313,0.06963864,0.013744468
297,1435996973940,0.01863139,0.06811147,0.01985312
298,1435996973959,0.018936822,0.06169739,0.024740042
299,1435996973980,0.021991149,0.04337143,0.027794369
300,1435996974033,0.02687807,0.03359759,0.021685716
301,1435996974034,0.028710667,0.03573562,0.028405234
302,1435996974053,0.030848695,0.03145956,0.028710667
303,1435996974055,0.026267206,0.03268129,0.026267206
304,1435996974075,0.022602014,0.031154128,0.022602014
305,1435996974099,0.021380283,0.026267206,0.02565634
306,1435996974115,0.01863139,0.024129177,0.027488936
307,1435996974138,0.02107485,0.023823744,0.024129177
308,1435996974157,0.025045475,0.023823744,0.024740042
309,1435996974177,0.02565634,0.010079277,0.019547688
310,1435996974195,0.017104227,0.01038471,0.017715093
311,1435996974216,0.03359759,0.015882496,0.024129177
312,1435996974236,0.032986723,0.028710667,0.032375857
313,1435996974256,0.0033597588,0.02443461,0.023823744
314,1435996974277,0.015577064,0.029321533,0.014660766
315,1435996974297,0.03726278,0.02107485,0.017715093
316,1435996974316,0.03573562,0.025961773,0.023823744
317,1435996974335,0.013744468,0.02687807,0.011911872
318,1435996974356,0.0036651916,0.02321288,0.00580322
319,1435996974376,0.018325957,0.03481932,0.007330383
320,1435996974397,0.03604105,0.06811147,0.0061086523
321,1435996974417,0.038179077,0.07147124,0.008246681
322,1435996974437,0.023518313,0.06566802,0.005497787
323,1435996974456,0.006414085,0.0580322,0.008857546
324,1435996974476,0.0067195175,0.054367006,0.005497787
325,1435996974496,0.016493361,0.053450707,0.009773844
326,1435996974516,0.02076942,0.057726767,0.010079277
327,1435996974537,0.018325957,0.05681047,0.0067195175
328,1435996974557,0.012217305,0.051618114,0.0015271631
329,1435996974575,0.01740966,0.054061573,0.0021380284
330,1435996974598,0.018020526,0.05222898,-0.0015271631
331,1435996974617,0.016187929,0.042760566,0.002443461
332,1435996974635,0.0143553335,0.04550946,0.005497787
333,1435996974688,0.01282817,0.045814894,0.004581489
334,1435996974689,0.008857546,0.03970624,0.007330383
335,1435996974700,0.007941248,0.032986723,0.007330383
336,1435996974761,0.004276057,0.029626964,0.0018325958
337,1435996974762,0.011911872,0.029626964,0.0021380284
338,1435996974763,0.022296581,0.035430185,0.008246681
339,1435996974787,0.0012217305,0.021380283,0.01282817
340,1435996974796,-0.005497787,0.02687807,0.005192355
341,1435996974819,0.013744468,0.034208454,0.0009162979
342,1435996974836,0.034208454,0.042455133,0.012217305
343,1435996974856,0.017104227,0.047647487,0.0067195175
344,1435996974876,0.00061086525,0.03970624,-0.0036651916
345,1435996974896,-0.002443461,0.03940081,-0.0036651916
346,1435996974998,0.025350908,0.047036625,-0.0061086523
347,1435996974999,0.04886922,0.044593163,0.00580322
348,1435996975000,0.03481932,0.04917465,0.010079277
349,1435996975001,0.008246681,0.052534413,0.0106901415
350,1435996975002,-0.0009162979,0.046731193,0.01038471
351,1435996975016,0.012217305,0.05009095,0.0036651916
352,1435996975036,0.022296581,0.05222898,0.004581489
353,1435996975057,0.019547688,0.049785517,0.007941248
354,1435996975077,0.015882496,0.05131268,0.006414085
355,1435996975097,0.010995574,0.04734206,0.003970624
356,1435996975116,0.017715093,0.05009095,0.005192355
357,1435996975137,0.016187929,0.04520403,0.0070249503
358,1435996975163,0.01282817,0.040927973,0.008246681
359,1435996975177,0.00580322,0.038789943,0.009162978
360,1435996975196,0.0036651916,0.033292156,0.008552114
361,1435996975216,0.0027488936,0.025045475,0.006414085
362,1435996975236,0.003970624,0.027183503,-0.00030543262
363,1435996975256,0.0143553335,0.03145956,0.0036651916
364,1435996975275,0.021380283,0.03390302,0.011911872
365,1435996975296,0.01740966,0.026572637,0.012217305
366,1435996975315,-0.0076358155,0.012217305,0.014049901
367,1435996975336,0.016798794,0.021380283,0.004886922
368,1435996975357,0.029321533,0.03359759,0.004886922
369,1435996975376,0.013439035,0.034513887,0.004886922
370,1435996975398,-0.00580322,0.021991149,-0.00580322
371,1435996975469,-0.025350908,0.010079277,-0.015271631
