id,attr_time,attr_x,attr_y,attr_z
1,1436295094025,-0.00419617,0.000610352,-0.000747681
2,1436295094044,-0.000991821,0.00488281,-0.0018158
3,1436295094068,-0.000991821,0.00274658,-0.00288391
4,1436295094085,0.0118256,0.00167847,-0.000747681
5,1436295094104,0.0107574,0.00167847,-0.000747681
6,1436295094124,-0.00419617,0.0038147,0.000320435
7,1436295094144,0.00114441,0.0038147,-0.00288391
8,1436295094166,0.0075531,0.00488281,-0.00608826
9,1436295094182,0.0182343,0.00808716,-0.00288391
10,1436295094203,0.0118256,0.00488281,-0.000747681
11,1436295094222,-0.000991821,0.00167847,-0.000747681
12,1436295094243,0.00648499,0.00167847,-0.00288391
13,1436295094263,0.00648499,0.00167847,-0.00502014
14,1436295094282,0.00648499,0.00488281,-0.00288391
15,1436295094302,0.00968933,0.00701904,0.00138855
16,1436295094322,0.00221252,0.00488281,0.000320435
17,1436295094342,0.0075531,0.0038147,0.00138855
18,1436295094362,0.0075531,0.00488281,0.00245666
19,1436295094380,0.00434876,0.00488281,-0.0018158
20,1436295094400,-0.000991821,0.00488281,-0.0018158
21,1436295094421,-0.00526428,-0.000457764,0.00566101
22,1436295094440,-0.0127411,-0.00579834,0.00245666
23,1436295094461,-0.00846863,-0.000457764,0.000320435
24,1436295094480,-0.00846863,-0.00152588,-0.00288391
25,1436295094497,-0.0106049,-0.00579834,0.00138855
26,1436295094520,-0.011673,-0.00686645,0.00245666
27,1436295094538,-0.00419617,-0.00366211,-0.000747681
28,1436295094559,7.62939e-05,0.0038147,-0.00502014
29,1436295094579,0.00328064,0.000610352,-0.0018158
30,1436295094599,0.00328064,-0.00152588,0.0045929
31,1436295094618,-0.0191498,-0.00366211,-0.0018158
32,1436295094638,-0.0159454,-0.00366211,-0.00715637
33,1436295094658,7.62939e-05,0.00701904,-0.0018158
34,1436295094676,-0.00526428,0.00595093,0.000320435
35,1436295094697,-0.00419617,0.00701904,-0.00395203
36,1436295094716,0.0107574,0.00595093,-0.00395203
37,1436295094737,0.0299835,0.0144958,0.00245666
38,1436295094756,0.0150299,0.0102234,0.0045929
39,1436295094777,0.00328064,0.00274658,-0.000747681
40,1436295094796,0.016098,0.00488281,-0.000747681
41,1436295094815,0.0139618,0.00701904,-0.00288391
42,1436295094838,-0.00846863,0.00595093,-0.00288391
43,1436295094855,-0.000991821,0.0038147,-0.000747681
44,1436295094875,0.0171661,0.0102234,-0.0018158
45,1436295094896,0.00648499,0.00488281,-0.0018158
46,1436295094914,0.00648499,0.00488281,0.00245666
47,1436295094937,0.0246429,0.00488281,0.0045929
48,1436295094955,0.0182343,0.0038147,0.00138855
49,1436295094974,0.00968933,0.00488281,-0.00288391
50,1436295094992,0.0278473,0.0134277,0.00352478
51,1436295095014,0.0257111,0.015564,0.00672913
52,1436295095034,0.0107574,0.00595093,0.00245666
53,1436295095052,7.62939e-05,0.00167847,-0.00288391
54,1436295095073,-0.00953674,-0.000457764,0.00245666
55,1436295095092,-0.0180817,0.0038147,0.00352478
56,1436295095112,-0.0170135,0.0038147,-0.00288391
57,1436295095135,0.00221252,0.00595093,-0.00288391
58,1436295095152,0.0118256,0.00488281,0.00779724
59,1436295095171,0.00328064,0.00274658,0.0045929
60,1436295095192,0.0203705,0.0123596,-0.000747681
61,1436295095210,0.0460052,0.0134277,0.00245666
62,1436295095233,0.0246429,0.015564,0.00245666
63,1436295095251,-0.00740051,0.00595093,-0.000747681
64,1436295095270,-0.0063324,0.00808716,-0.00288391
65,1436295095290,0.00541687,0.00808716,-0.000747681
66,1436295095309,-0.00953674,0.0102234,0.00352478
67,1436295095332,-0.0298309,0.00595093,0.000320435
68,1436295095348,-0.00953674,0.00808716,0.00245666
69,1436295095370,-0.000991821,0.0134277,0.00245666
70,1436295095388,-0.0063324,0.015564,-0.000747681
71,1436295095408,0.00648499,0.0198364,-0.00288391
72,1436295095429,0.0257111,0.0230408,-0.0018158
73,1436295095448,0.0278473,0.0177002,0.000320435
74,1436295095468,0.0182343,0.0102234,0.000320435
75,1436295095487,0.016098,0.00488281,-0.000747681
76,1436295095507,7.62939e-05,0.00274658,-0.0018158
77,1436295095525,-0.0170135,0.0038147,-0.0018158
78,1436295095547,-0.0255585,0.00274658,-0.00395203
79,1436295095569,-0.0266266,0.00274658,-0.00608826
80,1436295095586,-0.0180817,0.000610352,-0.00395203
81,1436295095609,-0.0234222,0.00488281,-0.000747681
82,1436295095624,-0.0255585,0.00808716,0.00352478
83,1436295095646,-0.0479889,0.000610352,0.00672913
84,1436295095665,-0.0789642,-0.0132751,0.00138855
85,1436295095685,-0.10994,-0.0271606,0.000320435
86,1436295095707,-0.135574,-0.039978,0.0131378
87,1436295095724,-0.268021,-0.11261,0.0163422
88,1436295095744,-0.526505,-0.2034,0.0280914
89,1436295095764,-0.810623,-0.337982,0.135971
90,1436295095784,-2.01012,-0.805817,0.296188
91,1436295095804,-3.83339,-1.61011,0.325027
92,1436295095823,-4.35142,-1.92307,0.319687
93,1436295095843,-3.43605,-1.7276,0.175491
94,1436295095863,-2.2686,-1.40076,-0.0167694
95,1436295095883,-1.92039,-1.26404,-0.15242
96,1436295095905,-1.91719,-1.28754,-0.270981
97,1436295095922,-1.84029,-1.15082,-0.394882
98,1436295095942,-1.50169,-0.890198,-0.440811
99,1436295095962,-1.22826,-0.657349,-0.41304
100,1436295095981,-1.32225,-0.491791,-0.425858
101,1436295096004,-1.20369,-0.261078,-0.362839
102,1436295096021,-1.00716,-0.0965881,-0.244278
103,1436295096040,-0.792465,-0.0645447,-0.125717
104,1436295096059,-0.588455,-0.0132751,-0.00608826
105,1436295096081,-0.290451,0.0411987,0.0750885
106,1436295096102,0.00434876,0.110626,0.10286
107,1436295096119,0.0662994,-0.00686645,0.0526581
108,1436295096140,-0.243454,-0.0837708,-0.0659027
109,1436295096158,-0.350266,-0.130768,-0.0146332
110,1436295096179,-0.399399,-0.145721,-0.0509491
111,1436295096199,-0.438919,-0.116882,-0.0327911
112,1436295096219,-0.520096,-0.0442505,-0.0338593
113,1436295096238,-0.547867,-0.0613403,-0.0242462
114,1436295096259,0.0919342,-0.030365,-0.0626984
115,1436295096278,0.0588226,-0.0698853,0.0505219
116,1436295096294,-0.447464,-0.00579834,-0.16951
117,1436295096316,-0.332108,-0.0164795,-0.00715637
118,1436295096335,-0.575638,-0.0965881,0.157333
119,1436295096355,-1.00822,-0.0645447,-0.153488
120,1436295096375,-1.3105,-0.54306,-0.731339
121,1436295096394,-1.35323,-0.530243,-1.39677
122,1436295096414,-0.436783,-0.24292,-1.71187
123,1436295096434,0.351486,-0.0912476,-1.40746
124,1436295096453,0.64415,-0.147858,-0.923599
125,1436295096473,0.476456,-0.281372,-0.388474
126,1436295096494,-0.120621,-0.441589,-0.167374
127,1436295096515,-0.672836,-0.298462,0.00566101
128,1436295096535,-0.849075,-0.0666809,0.218216
129,1436295096555,-0.700607,0.283661,0.451065
130,1436295096574,-0.139847,0.497284,0.433975
131,1436295096596,0.414505,0.615845,0.40834
132,1436295096614,0.662308,0.527191,0.403
133,1436295096633,0.55336,0.40329,0.5504
134,1436295096652,0.175247,0.220642,0.683914
135,1436295096673,-0.215683,0.0166321,0.6978
136,1436295096692,-0.281906,-0.107269,0.600601
137,1436295096712,-0.251999,-0.123291,0.441452
138,1436295096735,-0.181503,-0.0944519,0.262009
139,1436295096752,0.17952,-0.207672,0.133835
140,1436295096772,0.581131,-0.377502,0.0174103
141,1436295096791,0.357895,-0.491791,-0.0349274
142,1436295096811,-0.287247,-0.530243,0.0312958
143,1436295096831,-0.72197,-0.420227,0.098587
144,1436295096851,-0.735855,-0.0421143,0.149857
145,1436295096871,-0.108871,0.711975,-0.0402679
146,1436295096890,0.403824,-0.39566,0.635849
147,1436295096911,0.881271,-0.403137,0.383774
148,1436295096929,0.611038,0.178986,-0.126785
149,1436295096950,0.36644,-0.09552,-0.830673
150,1436295096969,0.628128,0.234528,-0.551895
151,1436295096989,0.705032,0.169373,-0.0979462
152,1436295097009,-0.41008,-0.039978,0.151993
153,1436295097029,-1.73241,-0.15213,0.287643
154,1436295097048,-2.13615,-0.221558,0.491653
155,1436295097068,-1.76445,-0.0250244,0.630508
156,1436295097089,-1.04027,0.193939,0.68605
157,1436295097107,-0.0746918,0.266571,0.674301
158,1436295097130,0.876999,0.225983,0.565353
159,1436295097148,1.48796,0.156555,0.192581
160,1436295097167,1.22093,0.368042,-0.17485
161,1436295097187,0.418777,0.388336,0.0579987
162,1436295097207,-0.438919,0.052948,0.0782928
163,1436295097229,-1.0125,-0.389252,0.0355682
164,1436295097244,-1.22932,-0.405273,0.0633392
165,1436295097267,-0.984726,-0.382843,0.0163422
166,1436295097284,-0.438919,-0.372162,-0.143875
167,1436295097305,0.14534,-0.331574,-0.297684
168,1436295097328,0.409164,-0.236511,-0.353226
169,1436295097345,0.295944,-0.222626,-0.368179
170,1436295097365,0.206223,-0.342255,-0.325455
171,1436295097384,0.139999,-0.445862,-0.266708
172,1436295097404,-0.0565338,-0.460815,-0.178055
173,1436295097422,-0.0725555,-0.298462,-0.0733795
174,1436295097444,0.289536,0.0358582,0.0911102
175,1436295097462,0.885544,0.912781,0.061203
176,1436295097483,1.60545,0.892487,0.122086
177,1436295097503,1.31065,-0.528107,0.813156
178,1436295097523,0.732803,0.071106,0.444656
179,1436295097542,0.38353,0.443878,-0.292343
180,1436295097561,0.221176,0.886078,-0.637344
181,1436295097581,0.36644,0.768585,-0.166306
182,1436295097601,0.360031,0.365906,0.416885
183,1436295097624,-0.196457,-0.0741577,0.877243
184,1436295097641,-0.740128,-0.28244,0.546127
185,1436295097660,-0.745468,-0.0624084,0.509811
186,1436295097681,-0.474167,0.169373,0.636917
187,1436295097701,-0.284042,0.196075,0.464951
188,1436295097720,0.0321198,0.146942,0.298325
189,1436295097739,0.395279,0.166168,0.206467
190,1436295097762,0.377121,0.139465,0.123154
191,1436295097779,0.0652313,0.0508118,0.0398407
192,1436295097800,0.188065,-0.00793457,-0.0402679
193,1436295097819,0.384598,-0.0495911,-0.165237
194,1436295097839,0.391006,-0.104065,-0.294479
195,1436295097859,0.404892,-0.246124,-0.399155
196,1436295097879,0.362167,-0.32196,-0.512375
197,1436295097898,0.200882,-0.445862,-0.596756
198,1436295097918,-0.0896454,-0.610352,-0.640549
199,1436295097938,-0.293655,-0.686188,-0.655502
200,1436295097959,-0.119553,-0.588989,-0.608505
201,1436295097978,0.248947,-0.31662,-0.48674
202,1436295097997,0.7061,0.0636291,-0.338272
203,1436295098017,1.3929,1.00998,-0.414108
204,1436295098036,1.33415,-0.1297,0.0120697
205,1436295098054,0.878067,-0.637054,0.302597
206,1436295098076,0.172043,0.117035,-0.111832
207,1436295098095,-0.348129,0.438538,-0.604233
208,1436295098115,-0.864029,0.651092,-0.465378
209,1436295098135,-0.76149,0.345612,0.239578
210,1436295098158,-0.420761,0.201416,0.762955
211,1436295098175,-0.4496,0.098877,0.898605
212,1436295098195,-0.436783,-0.00579834,0.709549
213,1436295098214,-0.275497,0.149078,0.495926
214,1436295098234,-0.202866,0.432129,0.305801
215,1436295098256,-0.00953674,0.589142,0.179764
216,1436295098273,0.467911,0.413971,0.225693
217,1436295098293,0.509567,0.323181,0.288712
218,1436295098313,0.0267792,0.123444,0.300461
219,1436295098333,-0.195389,-0.0592041,0.231033
220,1436295098355,0.089798,-0.0292969,0.0857697
221,1436295098371,0.486069,-0.0271606,-0.087265
222,1436295098393,0.59288,-0.0805664,-0.266708
223,1436295098411,0.40062,-0.176697,-0.456833
224,1436295098432,0.286331,-0.287781,-0.602097
225,1436295098454,0.376053,-0.370026,-0.681137
226,1436295098471,0.250015,-0.483246,-0.73027
227,1436295098491,-0.113144,-0.566559,-0.743088
228,1436295098511,-0.458145,-0.576172,-0.677933
229,1436295098530,-0.568161,-0.431976,-0.591415
230,1436295098549,-0.184708,-0.0527954,-0.417313
231,1436295098570,0.743484,0.608368,-0.190872
232,1436295098589,1.90987,1.00891,-0.41304
233,1436295098610,1.7347,-0.734253,0.68605
234,1436295098630,0.652695,-0.0688171,0.193649
235,1436295098649,-0.291519,0.203552,-0.206894
236,1436295098669,-0.719833,0.717316,-0.59462
237,1436295098688,-0.666428,0.889282,-0.225052
238,1436295098707,-0.130234,0.64682,0.43718
239,1436295098727,0.263901,0.342407,1.13573
240,1436295098748,0.119705,0.0497437,1.05028
241,1436295098767,-0.362015,-0.09552,0.731979
242,1436295098790,-0.69313,-0.0709534,0.514084
243,1436295098807,-0.870438,0.0561523,0.23317
244,1436295098827,-0.836258,0.0614929,0.188309
245,1436295098846,-0.482712,0.105286,0.197922
246,1436295098865,-0.211411,-0.0378418,0.260941
247,1436295098888,-0.259476,-0.287781,0.304733
248,1436295098905,-0.250931,-0.379639,0.391251
249,1436295098926,-0.265884,-0.421295,0.318619
250,1436295098945,-0.371628,-0.494995,0.0718842
251,1436295098965,-0.277634,-0.501404,-0.119308
252,1436295098988,-0.176163,-0.443726,-0.290207
253,1436295099005,-0.0704193,-0.48645,-0.422653
254,1436295099024,0.156021,-0.572967,-0.488876
255,1436295099044,0.166702,-0.637054,-0.420517
256,1436295099064,-0.0736237,-0.709686,-0.325455
257,1436295099085,-0.16655,-0.828247,-0.200485
258,1436295099104,-0.403671,-0.50354,0.112473
259,1436295099123,-0.305405,0.134125,0.325027
260,1436295099143,0.894089,1.25885,-0.576462
261,1436295099163,0.93895,-1.35269,1.25642
262,1436295099181,-0.273361,-0.596466,0.803543
263,1436295099202,-0.133438,0.15976,0.185104
264,1436295099221,1.13121,0.922394,-0.00608826
265,1436295099241,1.01799,1.13068,0.117813
266,1436295099262,-0.765762,0.645752,0.00779724
267,1436295099282,-2.68944,-0.012207,-0.167374
268,1436295099301,-2.81013,-0.266418,0.0163422
269,1436295099321,-1.86378,-0.162811,0.101791
270,1436295099340,-1.00502,0.378723,0.104996
271,1436295099359,-0.320358,0.569916,0.252396
272,1436295099380,-0.117416,0.438538,0.212875
273,1436295099399,-0.0426483,0.0187683,0.217148
274,1436295099419,0.109024,-0.120087,0.390182
275,1436295099437,0.347214,-0.0389099,0.6241
276,1436295099460,0.271378,-0.0773621,0.731979
277,1436295099479,0.114365,-0.273895,0.60701
278,1436295099497,0.480728,-0.365753,0.286575
279,1436295099519,1.11839,-0.39566,0.0110016
280,1436295099538,0.859909,-0.529175,-0.348953
281,1436295099558,-0.103531,-0.752411,-0.709976
282,1436295099581,-0.651474,-0.806885,-0.998367
283,1436295099597,-0.5233,-0.835724,-1.18422
284,1436295099617,-0.464554,-0.843201,-1.32521
285,1436295099637,-0.729446,-0.619965,-1.43309
286,1436295099657,-0.865097,-0.246124,-1.36473
287,1436295099677,-0.641861,0.407562,-0.947098
288,1436295099697,-0.537186,1.45111,-0.875534
289,1436295099714,-1.12679,0.025177,0.752274
290,1436295099736,-1.41518,0.232391,0.620895
291,1436295099756,-0.325699,1.1702,0.509811
292,1436295099775,1.86287,1.78329,0.492722
293,1436295099795,3.16277,1.65619,0.225693
294,1436295099815,2.95448,1.10718,0.240646
295,1436295099831,1.5873,-0.0688171,0.633713
296,1436295099854,-0.295792,-0.901947,0.249191
297,1436295099874,-2.4192,-0.454407,-0.494217
298,1436295099894,-2.98851,-0.108337,-0.0402679
299,1436295099913,-1.94817,0.136261,0.129562
300,1436295099934,-0.872574,0.193939,0.104996
301,1436295099954,-0.139847,0.263367,0.239578
302,1436295099973,0.415573,0.263367,0.313278
303,1436295099992,0.614243,0.114899,0.435043
304,1436295100012,0.447617,0.0614929,0.539719
305,1436295100031,0.0267792,-0.0495911,0.436111
306,1436295100052,-0.234909,-0.367889,0.144516
307,1436295100072,-0.505142,-0.59433,-0.0733795
308,1436295100091,-1.01891,-0.474701,-0.346817
309,1436295100111,-1.54762,-0.233307,-0.608505
310,1436295100131,-1.48781,-0.130768,-0.86058
311,1436295100151,-0.836258,0.0112915,-1.04857
312,1436295100171,0.0225067,0.218506,-1.15004
313,1436295100190,0.922928,0.314636,-1.22374
314,1436295100209,1.89705,0.462036,-1.21733
315,1436295100230,2.13631,1.16699,-0.962051
316,1436295100250,1.47301,1.8634,-1.22588
317,1436295100269,-1.19087,-0.643463,-0.388474
318,1436295100289,-1.98448,-0.361481,-0.936417
319,1436295100307,-0.0458527,0.431061,-0.907578
320,1436295100329,1.32774,0.579529,-0.466446
321,1436295100350,1.72081,0.625458,0.377365
322,1436295100368,1.33308,0.0337219,0.943466
323,1436295100387,-0.559616,-0.907288,0.830246
324,1436295100407,-1.73134,-1.36551,0.195786
325,1436295100427,-1.66512,-1.19888,0.0772247
326,1436295100450,-1.3607,-0.762024,0.49379
327,1436295100467,-0.348129,-0.443726,0.554672
328,1436295100485,1.03081,-0.200195,0.590988
329,1436295100506,1.60225,0.127716,0.597397
330,1436295100526,0.58754,0.0924683,0.719162
331,1436295100548,-0.809555,-0.500336,0.650803
332,1436295100566,-1.53694,-0.744934,0.64653
333,1436295100586,-1.40236,-0.434113,0.631577
334,1436295100605,-0.838394,-0.22583,0.507675
335,1436295100625,-0.407944,-0.234375,0.337845
336,1436295100647,-0.301132,0.000610352,0.388046
337,1436295100664,-0.349197,0.0999451,0.447861
338,1436295100684,0.166702,0.1651,0.433975
339,1436295100704,0.873795,0.292206,0.29512
340,1436295100723,1.28929,0.247345,0.114609
341,1436295100746,1.42174,0.332794,-0.0434723
342,1436295100764,1.76994,0.74295,0.0729523
343,1436295100783,1.77101,1.95526,0.178696
344,1436295100802,1.24123,1.56006,-0.317978
345,1436295100823,-0.147324,-1.10809,0.798203
346,1436295100841,-1.64268,-0.18631,0.0996551
347,1436295100862,-2.61574,-0.386047,-0.403427
348,1436295100884,-1.80183,0.10849,-0.156693
349,1436295100901,0.146408,0.15976,0.438248
350,1436295100921,0.872726,-0.271759,0.957352
351,1436295100941,0.413437,-0.771637,0.764023
352,1436295100961,-0.378036,-0.583649,0.16481
353,1436295100983,-0.538254,0.0497437,0.338913
354,1436295101001,1.03401,0.966186,1.22011
355,1436295101019,2.83379,1.00677,0.605942
356,1436295101039,2.96516,0.803833,0.518356
357,1436295101059,0.920792,0.220642,0.234238
358,1436295101080,-1.04668,-0.460815,-0.425858
359,1436295101099,-1.81252,-0.686188,-0.81572
360,1436295101117,-1.26244,-0.501404,-0.971664
361,1436295101139,-0.464554,-0.193787,-0.999435
362,1436295101158,0.134659,-0.251465,-0.941757
363,1436295101181,0.115433,-0.370026,-0.927872
364,1436295101198,0.0107574,-0.310211,-0.774063
365,1436295101218,0.468979,-0.206604,-0.46431
366,1436295101237,1.79344,-0.264282,-0.397018
367,1436295101257,1.86073,-0.0805664,-0.321182
368,1436295101279,0.891953,0.0839233,-0.461105
369,1436295101297,0.248947,0.458832,-0.363907
370,1436295101316,0.394211,0.891418,0.0195465
371,1436295101335,0.0395966,1.7363,-0.0637665
372,1436295101356,-0.938797,0.989685,-0.615982
373,1436295101375,-1.66512,-0.784454,0.470291
374,1436295101395,-1.40556,0.00488281,-0.700363
375,1436295101415,-1.10222,-0.207672,-1.34657
376,1436295101434,0.168839,0.043335,-0.819992
377,1436295101455,0.886612,-0.0837708,0.244919
378,1436295101475,-0.11528,-0.539856,0.912491
379,1436295101494,-1.69823,-1.28647,0.731979
380,1436295101514,-2.29317,-1.41251,0.104996
381,1436295101534,-1.31477,-0.563354,0.0921783
382,1436295101553,0.362167,0.104218,0.274826
383,1436295101576,1.62468,0.332794,0.282303
384,1436295101593,1.73897,0.279388,0.403
385,1436295101612,0.826797,-0.0357056,0.396591
386,1436295101632,-0.202866,-0.273895,0.315414
387,1436295101652,-0.254135,-0.501404,0.0686798
388,1436295101674,0.389938,-0.809021,-0.142807
389,1436295101692,0.399551,-0.846405,-0.444016
390,1436295101711,-0.92598,-0.563354,-0.50383
391,1436295101731,-1.73027,-0.622101,-0.336136
392,1436295101751,-1.51451,-0.726776,-0.307297
393,1436295101773,-1.04881,-0.370026,-0.168442
394,1436295101790,-0.468826,-0.108337,-0.254959
395,1436295101810,1.222,0.0411987,-0.167374
396,1436295101829,3.39348,0.0177002,-0.0370636
397,1436295101850,4.16786,0.540009,0.0280914
398,1436295101869,2.72057,1.5152,0.892197
399,1436295101890,-2.65419,3.71017,-0.754837
400,1436295101909,-6.13945,-2.16339,-0.334
401,1436295101927,-4.0342,-0.52597,-0.214371
402,1436295101949,1.86073,1.39023,-0.116104
403,1436295101968,3.56865,1.6391,0.101791
404,1436295101988,2.9438,0.94162,0.731979
405,1436295102011,1.33949,0.341339,1.43266
406,1436295102027,-1.17485,-0.305939,1.05989
407,1436295102046,-2.71935,-0.736389,0.435043
408,1436295102067,-2.62215,-0.48111,0.394455
409,1436295102087,-1.72066,-0.315552,0.645462
410,1436295102105,-0.877914,-0.347595,0.0120697
411,1436295102127,-0.0191498,-0.0282288,-0.0189056
412,1436295102145,0.696487,0.217438,0.00779724
413,1436295102165,0.62706,0.274048,0.0312958
414,1436295102186,-0.178299,0.335999,0.107132
415,1436295102208,-0.755081,0.279388,0.121017
416,1436295102225,-0.688858,0.157623,0.107132
417,1436295102244,-0.342789,0.18219,-0.125717
418,1436295102264,-0.284042,-0.0656128,-0.385269
419,1436295102284,0.113297,-0.14679,-0.275253
420,1436295102307,1.32454,0.109558,0.0836334
421,1436295102324,2.57317,0.40863,-0.109695
422,1436295102344,2.78893,0.136261,-0.227188
423,1436295102364,1.76994,-0.347595,-0.210098
424,1436295102383,1.65459,-0.428772,-0.627731
