id,attr_time,attr_x,attr_y,attr_z
1,1436977877453,9.675568,-0.37948096,2.2224178
2,1436977877454,9.687539,-0.40462008,2.2176294
3,1436977877458,9.691729,-0.4297592,2.2176294
4,1436977877472,9.68694,-0.4249708,2.2092497
5,1436977877495,9.668385,-0.39384618,2.2110453
6,1436977877527,9.689334,-0.39923313,2.207454
7,1436977877547,9.688736,-0.39205053,2.1709423
8,1436977877552,9.696517,-0.40581718,2.1739352
9,1436977877571,9.694122,-0.40701428,2.1643584
10,1436977877595,9.705495,-0.40402153,2.1787236
11,1436977877626,9.6845455,-0.41120413,2.1709423
12,1436977877637,9.680955,-0.40521863,2.179322
13,1436977877652,9.696517,-0.415394,2.1601684
14,1436977877672,9.715671,-0.40880993,2.135628
15,1436977877693,9.716867,-0.40282443,2.1410148
16,1436977877712,9.697714,-0.39923313,2.1458032
17,1436977877732,9.690532,-0.39863458,2.130241
18,1436977877751,9.691729,-0.40162733,2.107496
19,1436977877771,9.696517,-0.40222588,2.1254525
20,1436977877795,9.719262,-0.42078096,2.1260512
21,1436977877812,9.739613,-0.42197806,2.1404164
22,1436977877833,9.755175,-0.41479546,2.1362264
23,1436977877851,9.68694,-0.39504328,2.070386
24,1436977877871,9.662998,-0.4213795,2.0973208
25,1436977877910,9.707291,-0.40462008,2.1146786
26,1436977877921,9.779716,-0.39205053,2.079364
27,1436977877931,9.740809,-0.41000703,2.0691888
28,1436977877951,9.677363,-0.4201824,2.0482395
29,1436977877971,9.7084875,-0.39085343,2.0925324
30,1436977877991,9.7007065,-0.3812766,2.0655975
31,1436977878011,9.7007065,-0.40342298,2.006341
32,1436977878032,9.7402115,-0.43394905,2.022502
33,1436977878051,9.790489,-0.45310268,2.0326772
34,1436977878071,9.774328,-0.4249708,2.0260932
35,1436977878091,9.716867,-0.43035775,2.0129251
36,1436977878111,9.701904,-0.43754035,2.0272903
37,1436977878131,9.6767645,-0.43873745,2.0500352
38,1436977878151,9.721058,-0.43634325,2.0440497
39,1436977878171,9.698911,-0.40641573,2.0093338
40,1436977878196,9.695918,-0.41838676,2.0404584
41,1436977878211,9.755774,-0.46148238,2.0733786
42,1436977878231,9.7563715,-0.46507367,2.0536265
43,1436977878252,9.744401,-0.45489833,2.043451
44,1436977878271,9.750985,-0.43035775,2.042254
45,1436977878307,9.728839,-0.4321534,2.0242975
46,1436977878312,9.694122,-0.4285621,2.054225
47,1436977878333,9.664794,-0.45669398,2.1338322
48,1436977878353,9.681553,-0.4758476,2.2182279
49,1436977878372,9.677961,-0.46148238,2.2301989
50,1436977878392,9.690532,-0.46208093,2.2242134
51,1436977878412,9.685144,-0.42556936,2.247557
52,1436977878434,9.693524,-0.4201824,2.2134395
53,1436977878454,9.706693,-0.42916065,2.1667526
54,1436977878473,9.693524,-0.45489833,2.1547816
55,1436977878492,9.7007065,-0.44711718,2.1691468
56,1436977878516,9.76116,-0.42916065,2.1978772
57,1436977878532,9.785701,-0.42317516,2.1362264
58,1436977878553,9.733028,-0.41479546,2.1290438
59,1436977878572,9.675568,-0.42078096,2.1278467
60,1436977878595,9.644443,-0.41180268,2.1458032
61,1436977878616,9.688736,-0.4249708,2.2098482
62,1436977878636,9.704298,-0.43035775,2.1559787
63,1436977878656,9.705495,-0.44113165,2.1428106
64,1436977878672,9.672575,-0.45250413,2.1086931
65,1436977878696,9.690532,-0.46507367,2.1260512
66,1436977878716,9.704298,-0.46148238,2.1380222
67,1436977878732,9.737218,-0.45489833,2.1200657
68,1436977878756,9.712079,-0.4369418,2.1218612
69,1436977878774,9.680356,-0.4309563,2.160767
70,1436977878795,9.663596,-0.43275195,2.2014685
71,1436977878815,9.68275,-0.42078096,2.1637597
72,1436977878835,9.711481,-0.39743748,2.1350293
73,1436977878856,9.663596,-0.4213795,2.1733365
74,1436977878874,9.667787,-0.44532153,2.2158337
75,1436977878895,9.727043,-0.4417302,2.1871033
76,1436977878913,9.740809,-0.40641573,2.147599
77,1436977878933,9.688736,-0.39324763,2.1398177
78,1436977878955,9.701904,-0.3764882,2.2158337
79,1436977879003,9.734824,-0.4249708,2.2331917
80,1436977879004,9.730036,-0.45669398,2.255338
81,1436977879023,9.691729,-0.46806642,2.235586
82,1436977879034,9.607931,-0.46627077,2.2493525
83,1436977879055,9.589975,-0.4141969,2.273893
84,1436977879074,9.652225,-0.3693056,2.203264
85,1436977879093,9.717466,-0.35075054,2.1212628
86,1436977879115,9.758766,-0.40043023,2.144606
87,1436977879133,9.742006,-0.43873745,2.2284033
88,1436977879153,9.712678,-0.40342298,2.2278047
89,1436977879174,9.691729,-0.37588966,2.2379801
90,1436977879194,9.665392,-0.37708676,2.2182279
91,1436977879216,9.646238,-0.3878607,2.2080526
92,1436977879235,9.652225,-0.427365,2.2451627
93,1436977879256,9.682152,-0.41479546,2.2403743
94,1436977879276,9.720459,-0.37469256,2.235586
95,1436977879295,9.703699,-0.3513491,2.183512
96,1436977879316,9.68694,-0.3369839,2.168548
97,1436977879336,9.689334,-0.35913026,2.1960814
98,1436977879356,9.686341,-0.39384618,2.2152352
99,1436977879376,9.694721,-0.43394905,2.2140381
100,1436977879394,9.685144,-0.43035775,2.195483
101,1436977879414,9.673173,-0.40581718,2.2170308
102,1436977879437,9.683948,-0.39205053,2.2134395
103,1436977879453,9.714474,-0.39025488,2.231396
104,1436977879475,9.68694,-0.42197806,2.2876596
105,1436977879500,9.694122,-0.4189853,2.2918496
106,1436977879519,9.674969,-0.38965634,2.2888567
107,1436977879538,9.681553,-0.36990416,2.2984335
108,1436977879558,9.741408,-0.32621,2.3050177
109,1436977879577,9.745598,-0.38067806,2.3349452
110,1436977879594,9.631275,-0.4285621,2.3475149
111,1436977879614,9.562442,-0.42916065,2.332551
112,1436977879634,9.475652,-0.40701428,2.3469162
113,1436977879655,9.5971575,-0.3645172,2.3582888
114,1436977879674,9.7324295,-0.3812766,2.3810337
115,1436977879749,9.715671,-0.39624038,2.3020248
116,1436977879750,9.621698,-0.39564183,2.268506
117,1436977879782,9.585785,-0.38965634,2.3517046
118,1436977879783,9.611523,-0.3357868,2.327164
119,1436977879784,9.665392,-0.362123,2.2936451
120,1436977879818,9.746197,-0.41060558,2.2750902
121,1436977879819,9.752182,-0.4249708,2.3529017
122,1436977879869,9.758766,-0.40880993,2.3678656
123,1436977879870,9.701904,-0.3776853,2.2798786
124,1436977879906,9.65821,-0.34955344,2.2894554
125,1436977879907,9.599552,-0.3238158,2.345719
126,1436977879915,9.592968,-0.34117374,2.3493104
127,1436977879934,9.617508,-0.40641573,2.337938
128,1436977879956,9.624691,-0.4165911,2.3223755
129,1436977879976,9.622895,-0.3866636,2.303222
130,1436977879995,9.673772,-0.38367084,2.260725
131,1436977880015,9.665991,-0.38606504,2.255338
132,1436977880036,9.648633,-0.39205053,2.2744915
133,1436977880057,9.669582,-0.42676646,2.3265655
134,1436977880077,9.6923275,-0.41240123,2.3104045
135,1436977880096,9.668983,-0.40222588,2.31639
136,1436977880115,9.651626,-0.40162733,2.2637177
137,1436977880136,9.706094,-0.41000703,2.315193
138,1436977880156,9.737817,-0.39923313,2.2948422
139,1436977880177,9.706094,-0.36750996,2.3139958
140,1436977880197,9.668385,-0.3693056,2.4079683
141,1436977880214,9.668385,-0.32621,2.4516625
142,1436977880236,9.652225,-0.28072014,2.4468741
143,1436977880257,9.547478,-0.36870706,2.384625
144,1436977880277,9.512163,-0.47644615,2.3523033
145,1436977880297,9.631873,-0.55246204,2.4235306
146,1436977880316,9.69951,-0.5033809,2.4025815
147,1436977880336,9.706094,-0.40701428,2.3558946
148,1436977880357,9.650429,-0.3477578,2.343325
149,1436977880377,9.620501,-0.3705027,2.3570917
150,1436977880397,9.642648,-0.39683893,2.3463178
151,1436977880417,9.672575,-0.37349546,2.348712
152,1436977880435,9.621099,-0.3716998,2.3373394
153,1436977880457,9.627684,-0.35913026,2.333748
154,1436977880559,9.64564,-0.415394,2.3415294
155,1436977880560,9.698911,-0.43514615,2.3600843
156,1436977880561,9.69113,-0.4201824,2.373851
157,1436977880562,9.674969,-0.40581718,2.3768437
158,1436977880563,9.631275,-0.35553896,2.3385365
159,1436977880587,9.631275,-0.35553896,2.3355439
160,1436977880596,9.637859,-0.38606504,2.3636756
161,1436977880615,9.670779,-0.4381389,2.3834279
162,1436977880634,9.656414,-0.42197806,2.3523033
163,1436977880655,9.655217,-0.40102878,2.3475149
164,1436977880676,9.627085,-0.34715924,2.3708582
165,1436977880695,9.655217,-0.31663316,2.3654714
166,1436977880716,9.671378,-0.32202014,2.3546975
167,1436977880736,9.628283,-0.35075054,2.3732524
168,1436977880756,9.671976,-0.40701428,2.3750482
169,1436977880778,9.687539,-0.39384618,2.3535004
170,1436977880798,9.668983,-0.338181,2.3157916
171,1436977880818,9.65821,-0.34237084,2.2996306
172,1436977880835,9.638457,-0.34835634,2.332551
173,1436977880856,9.653421,-0.39384618,2.3505075
174,1436977880878,9.685144,-0.41718966,2.3235726
175,1436977880898,9.689933,-0.4321534,2.3092074
176,1436977880918,9.67018,-0.42437226,2.3181858
177,1436977880935,9.650429,-0.40701428,2.307412
178,1436977880956,9.648034,-0.338181,2.2864625
179,1436977880977,9.633669,-0.33279404,2.2343888
180,1436977880998,9.668983,-0.3681085,2.2307975
181,1436977881015,9.715072,-0.39085343,2.2882583
182,1436977881035,9.718663,-0.3812766,2.2894554
183,1436977881056,9.6528225,-0.3854665,2.2218192
184,1436977881079,9.614515,-0.37588966,2.1817162
185,1436977881099,9.64983,-0.36990416,2.2230163
186,1436977881119,9.686341,-0.41240123,2.2110453
187,1436977881135,9.688736,-0.43035775,2.2134395
188,1436977881156,9.682152,-0.4417302,2.2098482
189,1436977881175,9.703101,-0.46447513,2.2409728
190,1436977881196,9.72824,-0.53450555,2.2307975
191,1436977881216,9.6923275,-0.5482722,2.1523874
192,1436977881308,9.661801,-0.53929394,2.1039047
193,1436977881309,9.7803135,-0.48602295,2.191293
194,1436977881310,9.961675,-0.3752911,2.2140381
195,1436977881311,9.78989,-0.35314476,2.1200657
196,1436977881351,9.520543,-0.37469256,2.1362264
197,1436977881352,9.504981,-0.50397944,2.2643163
198,1436977881356,9.665392,-0.6266823,2.2451627
199,1436977881375,9.700109,-0.6584055,2.1158757
200,1436977881395,9.679159,-0.6075287,2.0829554
201,1436977881428,9.628283,-0.5590461,2.1200657
202,1436977881436,9.639056,-0.55844754,2.160767
203,1436977881459,9.643246,-0.5255273,2.1769278
204,1436977881476,9.654019,-0.52073884,2.1655555
205,1436977881496,9.589975,-0.5626374,2.1080947
206,1436977881515,9.540296,-0.6703765,2.1057005
207,1436977881536,9.552865,-0.736217,2.1643584
208,1436977881555,9.620501,-0.7793127,2.2026656
209,1436977881575,9.647436,-0.79846627,2.1936872
210,1436977881598,9.5732155,-0.82899237,2.2068555
211,1436977881615,9.383475,-0.94211835,2.2481554
212,1436977881636,9.355942,-1.1109096,2.2337902
213,1436977881655,9.551069,-1.1731589,2.2493525
214,1436977881675,9.738416,-0.95708215,2.2290018
215,1436977881695,9.73662,-0.6727707,1.9590555
216,1436977881715,9.459491,-0.58298814,1.8148049
217,1436977881735,9.288305,-0.5351041,1.863886
218,1436977881754,9.337387,-0.5201403,1.8926164
219,1436977881779,9.381081,-0.31244332,1.6573862
220,1436977881799,9.315839,0.18435353,1.347337
221,1436977881816,9.613318,0.40282443,1.5777789
222,1436977881839,10.047267,0.13467385,2.094328
223,1436977881856,10.135254,-0.17537527,1.9919758
224,1436977881876,10.281899,0.024540568,1.4227544
225,1436977881899,10.453085,0.7410054,1.5191209
226,1436977881919,10.572196,1.1701661,2.0895395
227,1436977881935,10.526108,0.70509243,2.5629928
228,1436977881957,10.191518,-0.22685061,2.6623523
229,1436977881989,9.841965,-0.90740246,2.4145525
230,1436977881996,9.665392,-1.0923545,2.4019828
231,1436977882015,9.730036,-0.7727286,2.441487
232,1436977882035,9.6528225,0.21787235,2.042254
233,1436977882055,9.539697,0.7254431,1.7363948
234,1436977882077,9.297882,1.2162545,1.2689269
235,1436977882095,9.3733,0.94810385,1.258153
236,1436977882116,9.665991,0.56922144,1.3551182
237,1436977882137,9.874885,0.362123,1.3461399
238,1436977882156,9.973047,0.31364042,1.2731167
239,1436977882176,9.932944,0.25139117,1.3509283
240,1436977882195,9.865308,0.39624038,1.3748703
241,1436977882220,9.831789,0.6691794,1.3946224
242,1436977882236,9.878476,0.8936358,1.5454572
243,1436977882258,10.040684,0.8403648,1.6370354
244,1436977882279,10.29387,0.6889315,1.7711107
245,1436977882299,10.608707,0.6278794,1.6112977
246,1436977882319,10.3770685,0.83138657,1.7034745
247,1436977882336,9.871892,1.4191631,1.839944
248,1436977882358,9.774328,1.567005,1.910573
249,1436977882379,10.135853,1.3221979,1.8417397
250,1436977882397,10.8708725,0.79607207,0.8822633
251,1436977882416,11.765706,1.0606314,-0.34117374
252,1436977882439,13.397354,1.8207904,-0.87567925
253,1436977882457,14.618397,0.95708215,0.16998832
254,1436977882476,14.925453,-0.9672575,-0.3609259
255,1436977882497,14.372992,-2.134431,-2.3116016
256,1436977882516,12.538434,-1.1695676,-2.8281507
257,1436977882537,10.107122,-0.20290859,-2.5905263
258,1436977882558,8.347982,0.2645593,-1.9847932
259,1436977882577,8.070854,-0.110731825,-2.0290859
260,1436977882597,9.299079,-0.81881696,-2.1984756
261,1436977882620,10.767922,-0.985214,-1.7136499
262,1436977882687,11.150395,-0.59256494,-1.411382
263,1436977882688,10.577583,-0.22984336,-1.0600328
264,1436977882689,10.128671,-0.13826515,-0.86131406
265,1436977882697,9.3583355,-0.3561375,-0.5758055
266,1436977882724,8.593987,-0.86370826,-0.2896984
267,1436977882739,7.74225,-1.1599907,-0.24660277
268,1436977882756,7.0724716,-1.654992,-0.3764882
269,1436977882778,6.7773867,-2.2768857,-0.30945057
270,1436977882796,7.1981673,-2.432509,-0.19991584
271,1436977882820,7.739856,-1.8656816,-0.14065935
272,1436977882837,8.167819,-0.7302315,-0.26635495
273,1436977882860,8.311471,0.19572599,-0.3657143
274,1436977882876,8.337808,0.39983168,-0.3800795
275,1436977882899,8.577228,-0.2681506,-0.29807812
276,1436977882920,9.202713,-1.1468226,-0.1592144
277,1436977882938,10.040684,-1.5634137,-0.13467385
278,1436977882960,10.717046,-1.4838065,-0.021547815
279,1436977882977,11.103709,-1.5179238,0.090979666
280,1436977882999,11.720815,-1.9979613,0.5153519
281,1436977883020,12.021885,-2.7252002,1.0151415
282,1436977883038,11.890802,-3.25372,0.9528923
283,1436977883060,11.532869,-2.8491,0.5674258
284,1436977883078,11.566987,-1.5897499,0.0053869537
285,1436977883099,12.246342,-0.15622166,-1.264737
286,1436977883120,12.217611,-0.65062433,-3.019687
287,1436977883140,12.653356,-3.0585926,-3.4302924
288,1436977883160,13.58889,-1.9327193,-2.0560207
289,1436977883179,11.3138,0.92416185,-2.594716
290,1436977883199,7.9846625,1.9303252,-3.6260185
291,1436977883219,6.495469,1.2599486,-2.7629087
292,1436977883239,7.867347,-0.43394905,-0.7769185
293,1436977883261,9.24102,-1.9722236,0.29448682
294,1436977883282,9.67856,-2.304419,0.27234045
295,1436977883312,10.402207,-1.590947,0.06943185
296,1436977883317,10.731411,-0.03172317,-0.22266077
297,1436977883339,10.481216,1.1833342,-0.49559975
298,1436977883400,9.813833,1.9081788,-0.56084174
299,1436977883401,9.184157,1.5807717,-0.5363012
300,1436977883402,8.714894,0.54168814,-0.40761283
301,1436977883423,8.277952,-0.58298814,-0.22804771
302,1436977883439,8.290522,-0.99419224,-0.13826515
303,1436977883459,8.640076,-0.47046062,-0.14305355
304,1436977883483,9.341577,0.7541735,-0.08738836
305,1436977883498,10.454282,1.2491747,0.06464344
306,1436977883547,11.818378,1.0432734,0.3633201
307,1436977883548,12.207436,0.22565351,0.05746084
308,1436977883569,11.177331,-0.30585927,-0.14664486
309,1436977883577,10.287286,-0.26156655,0.24301147
310,1436977883598,9.205706,0.670975,0.57281274
311,1436977883617,9.91439,1.8626889,1.3012487
312,1436977883637,10.930129,1.95307,0.9540894
313,1436977883658,11.179725,0.9139865,-0.7799112
314,1436977883680,11.190498,1.0899603,-2.8293478
315,1436977883700,11.695077,2.3116016,-4.2425256
316,1436977883722,10.842741,1.027711,-3.9947255
317,1436977883740,9.585187,-1.6047137,-3.2399535
318,1436977883759,8.982447,-2.6605566,-1.8106151
319,1436977883781,8.407838,-2.2786815,-0.40940848
320,1436977883799,8.586804,-1.1988965,0.7685388
321,1436977883818,10.511743,0.11252748,0.97623575
322,1436977883839,11.663952,0.8912416,0.32441434
323,1436977883859,10.729016,0.40761283,-0.39923313
324,1436977883877,8.981249,-0.25258827,-0.39803603
325,1436977883898,8.372523,-0.54767364,-0.23283611
326,1436977883918,7.771579,-0.9355343,0.130484
327,1436977883943,7.5225816,-1.1384429,-0.022146367
328,1436977883960,7.3047094,-1.4664485,-0.18136078
329,1436977883982,7.4232225,-1.7351977,-0.15801731
330,1436977883999,7.653664,-1.3575124,-0.062249243
331,1436977884019,8.44375,-0.81283146,0.047884032
332,1436977884037,9.711481,-0.39504328,0.053869538
333,1436977884059,10.846333,-0.29628247,0.18854338
334,1436977884081,11.624448,-0.7745243,0.8834604
335,1436977884098,11.921329,-1.7603368,1.4454993
336,1436977884125,11.793239,-2.878429,1.8602947
337,1436977884146,11.598111,-3.079542,1.9327193
338,1436977884165,11.7627125,-2.2080526,1.436521
339,1436977884177,12.163143,-0.9552865,1.103727
340,1436977884199,12.244546,-0.21308395,0.6913257
341,1436977884218,10.965444,0.688333,-1.3018472
342,1436977884240,8.500613,-0.7428011,-3.9480386
343,1436977884258,7.964312,-2.533664,-4.3478703
344,1436977884281,8.89446,-2.3301568,-2.160767
345,1436977884297,10.080188,-0.30885202,-0.18495208
346,1436977884321,8.702325,1.186327,-0.37110126
347,1436977884342,7.869741,0.9995792,-0.5518635
348,1436977884358,10.049662,-0.107739076,0.18315643
349,1436977884378,12.899361,-0.7015011,0.96306765
350,1436977884399,13.452421,-0.29269117,0.40402153
351,1436977884418,11.704055,0.30705637,-0.48482585
352,1436977884441,10.213066,0.5758055,-0.16400282
353,1436977884460,9.856929,0.24600422,0.6147113
354,1436977884488,10.677541,-0.035314474,1.3150153
355,1436977884506,11.3551,0.088585466,1.4413095
356,1436977884523,12.171523,0.8487445,1.0618285
357,1436977884540,11.447875,1.4945804,0.7332243
358,1436977884566,10.848726,1.3347675,0.4141969
359,1436977884581,11.122863,0.23343466,1.0959458
360,1436977884598,11.412561,-0.90141696,2.112883
361,1436977884618,10.1699705,-1.091756,2.1811178
362,1436977884638,8.019978,-0.25438392,1.3994108
363,1436977884664,6.6864066,0.9091981,0.43275195
364,1436977884683,6.23091,0.7553706,-0.85891986
365,1436977884706,5.897517,0.7553706,-3.3183637
366,1436977884719,7.3549876,1.3138182,-5.395334
367,1436977884748,10.474632,0.049679685,-4.092888
368,1436977884759,12.784438,-1.7429788,-0.9020155
369,1436977884807,12.212823,-2.3175871,-0.25917232
370,1436977884808,9.917382,-2.1577742,-0.142455
371,1436977884825,9.367314,-0.98102415,0.16579847
372,1436977884838,9.825804,-0.05925649,0.676362
373,1436977884858,11.33894,0.51235914,0.45968673
374,1436977884879,11.134833,0.15562311,-0.019153614
375,1436977884900,9.345168,-1.0366893,-0.49679685
376,1436977884921,7.7081323,-1.6729485,-0.44532153
377,1436977884939,6.981492,-1.7226281,-0.018555064
378,1436977884961,7.237672,-1.4622587,0.12090719
379,1436977884979,7.789535,-1.3365631,-0.01616086
380,1436977885002,8.523956,-1.2198458,-0.3842694
381,1436977885019,9.784504,-0.83976626,-0.20829555
382,1436977885042,11.092337,-0.35673606,0.20290859
383,1436977885062,11.903373,0.095768064,0.44472298
384,1436977885082,11.772888,-0.15143326,0.736217
385,1436977885102,10.781689,-0.9103952,1.2144588
386,1436977885122,10.155006,-1.496376,1.3808558
387,1436977885142,9.66659,-2.3481133,1.2389994
388,1436977885162,10.167576,-1.9422961,0.85652566
389,1436977885182,10.809821,-0.19692309,-0.3669114
390,1436977885199,10.31063,0.4417302,-2.823961
391,1436977885222,9.464279,-2.0979192,-5.0332108
392,1436977885243,10.724228,-2.771887,-3.9396589
393,1436977885259,12.73416,0.053869538,-1.3210008
394,1436977885279,12.2224,1.8022354,-0.91338795
395,1436977885300,9.3583355,1.3323733,-1.1498153
396,1436977885325,8.441956,-0.27234045,-0.49799395
397,1436977885345,10.180744,-1.8148049,0.4985925
398,1436977885361,11.7860565,-1.963844,0.22685061
399,1436977885382,10.701483,-0.3854665,-0.7445967
400,1436977885399,8.592192,1.3928268,-1.0121487
401,1436977885419,7.8469963,1.982399,-0.8571242
402,1436977885442,7.3525934,2.1086931,-0.36511576
403,1436977885459,7.5680714,1.4107834,-0.18076223
404,1436977885553,7.751827,0.6715736,-0.20350714
405,1436977885566,7.8428063,-0.021547815,-0.55605334
406,1436977885567,8.099585,-0.5201403,-0.7457938
407,1436977885568,8.739435,-0.5141548,-0.3657143
408,1436977885569,9.774927,0.14065935,0.0023942017
409,1436977885584,10.986992,0.7320272,0.36631286
410,1436977885599,11.859079,0.8439561,0.74399817
411,1436977885622,11.656171,0.74639237,0.6943185
