id,attr_time,attr_x,attr_y,attr_z
1,1436185163404,-9.649231,-0.18794483,-0.98222125
2,1436185163424,-9.603742,-0.17357962,-0.9636662
3,1436185163444,-9.563639,-0.11611878,-0.91099375
4,1436185163465,-9.579201,-0.11971009,-0.9756372
5,1436185163488,-9.580399,-0.1352724,-0.9911995
6,1436185163505,-9.569624,-0.10474633,-0.9708488
7,1436185163525,-9.6049385,-0.046686932,-0.9451111
8,1436185163546,-9.595362,-0.05805939,-0.96905315
9,1436185163568,-9.588778,-0.1448492,-0.961272
10,1436185163586,-9.583989,-0.22445641,-0.9828198
11,1436185163651,-9.622296,-0.19931729,-1.0055647
12,1436185163652,-9.620501,-0.11971009,-1.0139444
13,1436185163653,-9.595961,-0.061650693,-0.9744401
14,1436185163665,-9.590573,-0.06584055,-0.9672575
15,1436185163685,-9.633669,-0.108936176,-0.961272
16,1436185163707,-9.625888,-0.15801731,-0.9588778
17,1436185163726,-9.592369,-0.16879122,-0.97623575
18,1436185163744,-9.543886,-0.09636662,-0.99538934
19,1436185163767,-9.558251,-0.08738836,-1.0055647
20,1436185163787,-9.629479,-0.10654198,-1.0127473
21,1436185163808,-9.632472,-0.11611878,-1.003769
22,1436185163828,-9.613318,-0.12449849,-0.9684546
23,1436185163849,-9.587581,-0.12330139,-0.92057055
24,1436185163887,-9.580399,-0.12749124,-0.92535895
25,1436185163888,-9.610326,-0.14185645,-0.9768343
26,1436185163904,-9.634866,-0.1436521,-1.0187328
27,1436185163924,-9.588778,-0.12330139,-1.0079589
28,1436185163945,-9.555259,-0.12808979,-0.99538934
29,1436185163966,-9.558251,-0.14425065,-0.9804256
30,1436185163989,-9.618706,-0.15682021,-0.9528923
31,1436185164008,-9.661801,-0.15741876,-0.99538934
32,1436185164029,-9.588778,-0.15502456,-0.9935937
33,1436185164049,-9.544485,-0.14664486,-0.96426475
34,1436185164112,-9.569026,-0.11372458,-0.9708488
35,1436185164113,-9.584588,-0.109534726,-1.033098
36,1436185164114,-9.598953,-0.17836803,-0.9864111
37,1436185164133,-9.620501,-0.19093758,-0.9768343
38,1436185164147,-9.636064,-0.16340427,-1.0115502
39,1436185164167,-9.636064,-0.14305355,-1.0187328
40,1436185164185,-9.592369,-0.089184016,-1.0049661
41,1436185164205,-9.583391,-0.10414778,-0.99299514
42,1436185164230,-9.613318,-0.14784196,-1.0085574
43,1436185164247,-9.635465,-0.18974048,-1.0229226
44,1436185164270,-9.592968,-0.1340753,-0.9708488
45,1436185164292,-9.556456,-0.090979666,-1.009156
46,1436185164309,-9.546879,-0.090979666,-0.9840169
47,1436185164337,-9.600749,-0.1340753,-1.0031705
48,1436185164350,-9.64145,-0.1352724,-1.0271125
49,1436185164389,-9.616311,-0.0700304,-1.0031705
50,1436185164390,-9.602545,-0.11312603,-0.96665895
51,1436185164406,-9.566631,-0.16819267,-0.9792285
52,1436185164428,-9.563639,-0.1376666,-0.96785605
53,1436185164447,-9.591172,-0.110731825,-1.0049661
54,1436185164467,-9.630676,-0.108936176,-1.0414777
55,1436185164488,-9.63726,-0.13826515,-1.0408791
56,1436185164506,-9.613318,-0.15682021,-1.027711
57,1436185164557,-9.584588,-0.17477672,-0.9804256
58,1436185164558,-9.581595,-0.16699557,-0.9588778
59,1436185164568,-9.607931,-0.14724341,-1.0115502
60,1436185164586,-9.583989,-0.15502456,-1.0426749
61,1436185164607,-9.572019,-0.11372458,-0.98820674
62,1436185164628,-9.58818,-0.10295067,-0.9624691
63,1436185164647,-9.592968,-0.13946225,-1.0235212
64,1436185164666,-9.563639,-0.17597382,-1.0187328
65,1436185164687,-9.596559,-0.14724341,-1.0085574
66,1436185164708,-9.657013,-0.10295067,-1.0031705
67,1436185164728,-9.651027,-0.06943185,-1.0169371
68,1436185164749,-9.555259,-0.108337626,-1.0169371
69,1436185164767,-9.548077,-0.1412579,-0.9947908
70,1436185164788,-9.564238,-0.15622166,-1.0079589
71,1436185164809,-9.613917,-0.15143326,-1.0432734
72,1436185164829,-9.639654,-0.11611878,-1.0265139
73,1436185164849,-9.598354,-0.076614454,-1.0259154
74,1436185164873,-9.524135,-0.061052144,-0.9696517
75,1436185164890,-9.548675,-0.12150574,-0.99658644
76,1436185164908,-9.61691,-0.13946225,-1.0271125
77,1436185164927,-9.646837,-0.10295067,-1.0546459
78,1436185164947,-9.612122,-0.109534726,-1.0301052
79,1436185165015,-9.595362,-0.12030864,-1.0013748
80,1436185165016,-9.603742,-0.13587095,-0.9864111
81,1436185165017,-9.596559,-0.13467385,-1.0193313
82,1436185165029,-9.5798,-0.12868834,-1.0432734
83,1436185165046,-9.595961,-0.12749124,-1.0301052
84,1436185165070,-9.636662,-0.14185645,-1.0336965
85,1436185165088,-9.609727,-0.14305355,-1.0301052
86,1436185165107,-9.598953,-0.1388637,-1.0241197
87,1436185165128,-9.582193,-0.13227965,-0.9840169
88,1436185165147,-9.590573,-0.14065935,-1.0103531
89,1436185165169,-9.603143,-0.17357962,-1.0271125
90,1436185165187,-9.56723,-0.15981296,-1.0145429
91,1436185165207,-9.596559,-0.12210429,-0.9648633
92,1436185165229,-9.610326,-0.11552023,-1.0265139
93,1436185165250,-9.582193,-0.17238252,-1.0133458
94,1436185165269,-9.583391,-0.18255788,-0.99898064
95,1436185165295,-9.603742,-0.12988544,-0.98102415
96,1436185165310,-9.627684,-0.08738836,-0.9959879
97,1436185165328,-9.624092,-0.089782566,-0.9576807
98,1436185165351,-9.612122,-0.14305355,-0.9552865
99,1436185165420,-9.610326,-0.15562311,-1.0313023
100,1436185165422,-9.570223,-0.1352724,-1.0103531
101,1436185165423,-9.580399,-0.12509704,-0.9840169
102,1436185165426,-9.598354,-0.08379706,-0.9947908
103,1436185165446,-9.560646,-0.075417355,-0.97144735
104,1436185165466,-9.606135,-0.092176765,-0.97982705
105,1436185165491,-9.639056,-0.095169514,-0.98222125
106,1436185165506,-9.645041,-0.090381116,-0.9624691
107,1436185165528,-9.61272,-0.11791443,-0.92176765
108,1436185165547,-9.566033,-0.11851298,-0.9379285
109,1436185165566,-9.553463,-0.08319851,-0.94810385
110,1436185165588,-9.5809965,-0.09696517,-0.9947908
111,1436185165608,-9.605537,-0.09876082,-0.9947908
112,1436185165634,-9.630676,-0.09816227,-0.98222125
113,1436185165652,-9.638457,-0.11851298,-0.9427169
114,1436185165670,-9.621099,-0.15083471,-0.98461545
115,1436185165688,-9.554661,-0.12928689,-0.98222125
116,1436185165709,-9.57142,-0.11791443,-0.9959879
117,1436185165729,-9.592369,-0.11971009,-1.0061632
118,1436185165759,-9.582792,-0.1340753,-0.99299514
119,1436185165773,-9.581595,-0.095169514,-0.95349085
120,1436185165793,-9.618706,-0.049679685,-0.98102415
121,1436185165811,-9.603143,-0.09756372,-1.050456
122,1436185165831,-9.536704,-0.18674773,-1.0151415
123,1436185165898,-9.598354,-0.22385786,-1.0097545
124,1436185165899,-9.6845455,-0.16340427,-1.0319009
125,1436185165900,-9.662998,-0.08678981,-1.0169371
126,1436185165910,-9.586982,-0.06344634,-0.97862995
127,1436185165926,-9.552266,-0.08379706,-0.97623575
128,1436185165947,-9.607333,-0.1328782,-1.0115502
129,1436185165967,-9.640852,-0.14604631,-1.0085574
130,1436185165986,-9.637859,-0.11552023,-1.0127473
131,1436185166010,-9.534309,-0.093972415,-0.9947908
132,1436185166028,-9.503185,-0.09636662,-0.9804256
133,1436185166049,-9.543288,-0.110133275,-0.97743285
134,1436185166069,-9.621698,-0.14425065,-0.98700964
135,1436185166091,-9.673173,-0.08439561,-1.0319009
136,1436185166110,-9.619903,-0.090979666,-1.0079589
137,1436185166130,-9.549872,-0.073621705,-1.0055647
138,1436185166150,-9.560646,-0.09636662,-0.96785605
139,1436185166170,-9.621099,-0.1436521,-0.99299514
140,1436185166190,-9.646837,-0.1328782,-1.0007763
141,1436185166210,-9.624092,-0.142455,-0.99898064
142,1436185166229,-9.55885,-0.12928689,-1.0085574
143,1436185166249,-9.5492735,-0.08619126,-1.0013748
144,1436185166323,-9.582193,-0.12868834,-1.003769
145,1436185166324,-9.634866,-0.1328782,-1.0390835
146,1436185166325,-9.619304,-0.16579847,-1.0456676
147,1436185166327,-9.55047,-0.10055647,-0.9864111
148,1436185166347,-9.544485,-0.092775315,-0.96546185
149,1436185166368,-9.55885,-0.079008654,-0.97264445
150,1436185166387,-9.599552,-0.15382746,-1.0307038
151,1436185166407,-9.5809965,-0.2172738,-1.0217255
152,1436185166427,-9.630077,-0.16579847,-1.0031705
153,1436185166447,-9.630077,-0.095768064,-1.0163386
154,1436185166467,-9.607333,-0.08798691,-1.0540473
155,1436185166490,-9.555259,-0.092775315,-1.0354922
156,1436185166512,-9.594764,-0.15083471,-1.0348936
157,1436185166530,-9.58818,-0.16340427,-1.0672154
158,1436185166550,-9.586982,-0.13826515,-1.0271125
159,1436185166570,-9.57561,-0.079008654,-1.0384849
160,1436185166591,-9.545682,-0.0700304,-1.002572
161,1436185166611,-9.57142,-0.1376666,-1.003769
162,1436185166628,-9.63726,-0.19033903,-1.0372878
163,1436185166649,-9.627085,-0.1945289,-1.0426749
164,1436185166676,-9.60853,-0.15382746,-1.0516531
165,1436185166719,-9.589975,-0.12689269,-1.0295067
166,1436185166720,-9.592968,-0.15682021,-1.0199299
167,1436185166727,-9.60853,-0.18195933,-1.0271125
168,1436185166749,-9.61691,-0.16340427,-1.055843
169,1436185166769,-9.637859,-0.14844051,-1.0528502
170,1436185166789,-9.601946,-0.1592144,-1.0588357
171,1436185166811,-9.615114,-0.18076223,-1.0265139
172,1436185166829,-9.607333,-0.18255788,-1.0061632
173,1436185166849,-9.585187,-0.18974048,-1.0043676
174,1436185166871,-9.606734,-0.20290859,-1.0217255
175,1436185166890,-9.566631,-0.17357962,-1.003769
176,1436185166909,-9.576807,-0.110731825,-0.96546185
177,1436185166931,-9.599552,-0.10354923,-0.98820674
178,1436185166948,-9.592369,-0.16759412,-0.9995792
179,1436185166969,-9.566631,-0.21906945,-1.0019734
180,1436185166991,-9.61691,-0.2645593,-1.0097545
181,1436185167862,-9.628283,-0.19692309,-1.0163386
182,1436185167863,-9.645041,-0.110731825,-0.98820674
183,1436185167864,-9.60853,-0.11492168,-0.9427169
184,1436185167865,-9.575011,-0.109534726,-0.92895025
185,1436185167866,-9.579201,-0.1352724,-0.9684546
186,1436185167867,-9.589975,-0.15382746,-1.0013748
187,1436185167868,-9.624092,-0.15981296,-0.943914
188,1436185167869,-9.616311,-0.13108255,-0.94690675
189,1436185167870,-9.5732155,-0.12749124,-0.9331401
190,1436185167871,-9.583989,-0.1328782,-0.9552865
191,1436185167872,-9.631275,-0.11552023,-0.94930094
192,1436185167873,-9.610326,-0.110133275,-0.92535895
193,1436185167874,-9.581595,-0.10115502,-0.91817635
194,1436185167875,-9.5798,-0.10414778,-0.8858546
195,1436185167876,-9.58818,-0.110731825,-0.90500826
196,1436185167877,-9.578004,-0.12270284,-0.9475053
197,1436185167878,-9.585785,-0.15203181,-0.93373865
198,1436185167879,-9.614515,-0.16101007,-0.93613285
199,1436185167880,-9.601347,-0.13108255,-0.91578215
200,1436185167881,-9.605537,-0.11252748,-0.9044097
201,1436185167882,-9.602545,-0.12090719,-0.9331401
202,1436185167883,-9.572617,-0.16280572,-0.97025025
203,1436185167884,-9.53012,-0.16220717,-0.94690675
204,1436185167885,-9.5809965,-0.11731588,-0.86251116
205,1436185167886,-9.64145,-0.11851298,-0.93373865
206,1436185167887,-9.639654,-0.22505496,-0.98820674
207,1436185167888,-9.56304,-0.26156655,-0.97982705
208,1436185167889,-9.568427,-0.16998832,-0.9744401
209,1436185167890,-9.622895,-0.10354923,-1.0067618
210,1436185167891,-9.658808,-0.07182605,-1.003769
211,1436185167892,-9.665991,-0.12749124,-0.95229375
212,1436185167893,-9.624092,-0.18734628,-0.9498995
213,1436185167894,-9.598953,-0.20051439,-0.9451111
214,1436185167895,-9.569624,-0.15801731,-0.93254155
215,1436185167896,-9.578603,-0.089184016,-0.92176765
216,1436185167897,-9.582193,-0.06823475,-0.93014735
217,1436185167898,-9.587581,-0.109534726,-0.94092125
218,1436185167899,-9.607931,-0.14425065,-0.9463082
219,1436185167900,-9.610924,-0.1448492,-0.9840169
220,1436185167901,-9.587581,-0.11432313,-0.9864111
221,1436185167902,-9.564238,-0.11911154,-0.94570965
222,1436185167903,-9.57561,-0.12210429,-0.943914
223,1436185167904,-9.582792,-0.12270284,-0.93014735
224,1436185167905,-9.597756,-0.14185645,-0.93732995
225,1436185167906,-9.603742,-0.1412579,-0.9415198
226,1436185167908,-9.635465,-0.1376666,-0.9588778
227,1436185167928,-9.624092,-0.1448492,-1.0133458
228,1436185167949,-9.607333,-0.1376666,-1.0169371
229,1436185167968,-9.613917,-0.15143326,-1.0163386
230,1436185167988,-9.583989,-0.19512744,-1.0079589
231,1436185168009,-9.551667,-0.13467385,-0.95109665
232,1436185168028,-9.559449,-0.0688333,-0.9672575
233,1436185168048,-9.594165,-0.089782566,-1.021127
234,1436185168069,-9.582792,-0.16879122,-1.0049661
235,1436185168089,-9.630077,-0.20470424,-1.0013748
236,1436185168109,-9.625289,-0.17178397,-1.0073603
237,1436185168142,-9.61691,-0.09995792,-1.0265139
238,1436185168152,-9.578004,-0.11252748,-1.0313023
239,1436185168171,-9.558251,-0.10534488,-0.9888053
240,1436185168244,-9.583989,-0.11552023,-0.9792285
241,1436185168245,-9.605537,-0.10175357,-1.0019734
242,1436185168246,-9.631275,-0.08259996,-1.0289081
243,1436185168263,-9.601946,-0.109534726,-1.09834
244,1436185168269,-9.534908,-0.12749124,-1.0690111
245,1436185168291,-9.5253315,-0.12569559,-1.0366893
246,1436185168309,-9.5570545,-0.1340753,-0.99658644
247,1436185168329,-9.57142,-0.093373865,-1.0187328
248,1436185168350,-9.55885,-0.13587095,-1.002572
249,1436185168376,-9.572019,-0.15502456,-0.9995792
250,1436185168391,-9.594764,-0.15562311,-1.0241197
251,1436185168410,-9.630077,-0.17118542,-1.0265139
252,1436185168432,-9.646238,-0.20829555,-1.0450691
253,1436185168450,-9.619903,-0.2172738,-1.0241197
254,1436185168472,-9.583989,-0.15861586,-0.99658644
255,1436185168493,-9.60853,-0.11671733,-0.99658644
256,1436185168514,-9.646238,-0.12210429,-1.0360907
257,1436185168533,-9.639056,-0.14903906,-1.0390835
258,1436185168552,-9.589376,-0.16938977,-1.0432734
259,1436185168572,-9.583391,-0.15682021,-1.0109516
260,1436185168592,-9.603742,-0.12689269,-1.0193313
261,1436185168620,-9.619304,-0.16400282,-1.0444705
262,1436185168678,-9.615114,-0.18375498,-1.0139444
263,1436185168679,-9.622895,-0.17836803,-1.0073603
264,1436185168680,-9.640253,-0.15682021,-0.99060094
265,1436185168698,-9.618706,-0.12389994,-0.96426475
266,1436185168709,-9.594764,-0.12988544,-0.95349085
267,1436185168731,-9.598354,-0.15682021,-0.9564836
268,1436185168750,-9.625289,-0.15801731,-0.9415198
269,1436185168770,-9.625888,-0.15502456,-0.93613285
270,1436185168791,-9.606135,-0.12868834,-0.95827925
271,1436185168810,-9.581595,-0.13706805,-0.98700964
272,1436185168833,-9.585785,-0.15322891,-1.0175357
273,1436185168853,-9.60015,-0.18076223,-1.0193313
274,1436185168884,-9.634866,-0.14425065,-0.94690675
275,1436185168893,-9.6288805,-0.092176765,-0.919972
276,1436185168913,-9.598953,-0.107140526,-0.88286185
277,1436185168932,-9.587581,-0.13227965,-0.8643068
278,1436185168954,-9.592369,-0.16280572,-0.87448215
279,1436185168970,-9.618706,-0.17118542,-0.8810662
280,1436185168993,-9.613917,-0.14844051,-0.8714894
281,1436185169012,-9.603742,-0.093972415,-0.90979666
282,1436185169032,-9.612122,-0.089184016,-0.9091981
283,1436185169062,-9.572617,-0.11911154,-0.9463082
284,1436185169115,-9.519944,-0.10534488,-0.87927055
285,1436185169116,-9.558251,-0.06823475,-0.86370826
286,1436185169117,-9.636662,-0.05626374,-0.88046765
287,1436185169134,-9.640852,-0.09935937,-0.8798691
288,1436185169150,-9.618107,-0.19393034,-0.87089086
289,1436185169171,-9.583391,-0.19093758,-0.92176765
290,1436185169192,-9.582792,-0.08439561,-0.92655605
291,1436185169210,-9.576208,0.03172317,-0.90021986
292,1436185169231,-9.60015,-0.022146367,-0.8714894
293,1436185169252,-9.64564,-0.1388637,-0.87567925
294,1436185169272,-9.634866,-0.19632454,-0.92416185
295,1436185169295,-9.600749,-0.15741876,-0.9271546
296,1436185169313,-9.607931,-0.089782566,-0.93972415
297,1436185169337,-9.57142,-0.0712275,-0.87927055
298,1436185169352,-9.584588,-0.11731588,-0.87807345
299,1436185169376,-9.631275,-0.1592144,-0.89184016
300,1436185169415,-9.624092,-0.09756372,-0.87687635
301,1436185169416,-9.560047,-0.05865794,-0.8619126
302,1436185169430,-9.546879,-0.107739076,-0.86370826
303,1436185169451,-9.559449,-0.12569559,-0.87567925
304,1436185169470,-9.612122,-0.16220717,-0.9187749
305,1436185169491,-9.609129,-0.17836803,-0.91937345
306,1436185169515,-9.56304,-0.15981296,-0.92296475
307,1436185169576,-9.595961,-0.12868834,-0.9091981
308,1436185169577,-9.607931,-0.13706805,-0.95468795
309,1436185169578,-9.671976,-0.1921347,-1.0181342
310,1436185169590,-9.6528225,-0.20231004,-1.0217255
311,1436185169611,-9.580399,-0.18435353,-0.9235633
312,1436185169631,-9.551667,-0.12868834,-0.92176765
313,1436185169652,-9.545682,-0.14544775,-0.961272
314,1436185169672,-9.617508,-0.1921347,-0.9175778
315,1436185169692,-9.682152,-0.20051439,-0.90500826
316,1436185169713,-9.659407,-0.18195933,-0.97025025
317,1436185169735,-9.5809965,-0.17357962,-1.0043676
318,1436185169756,-9.545682,-0.1448492,-0.96426475
319,1436185169775,-9.540296,-0.15143326,-0.95708215
320,1436185169793,-9.595961,-0.20350714,-0.9888053
321,1436185169812,-9.649231,-0.20410569,-0.99778354
322,1436185169832,-9.663596,-0.1448492,-1.0253168
323,1436185169853,-9.5492735,-0.12749124,-1.0348936
324,1436185169876,-9.466674,-0.1376666,-0.97025025
325,1436185169895,-9.564836,-0.17477672,-0.9528923
326,1436185169922,-9.66659,-0.17298107,-1.0582372
327,1436185169931,-9.652225,-0.13706805,-1.0977415
328,1436185169992,-9.553463,-0.14903906,-1.0833763
329,1436185169995,-9.472659,-0.15263036,-1.033098
330,1436185169996,-9.506178,-0.110731825,-0.9127894
331,1436185170011,-9.620501,-0.18495208,-0.8319851
332,1436185170031,-9.667188,-0.3657143,-0.86849666
333,1436185170052,-9.584588,-0.5943606,-1.2348095
334,1436185170074,-9.469068,-0.6925228,-1.3736732
335,1436185170091,-9.382876,-0.8218097,-1.4580688
336,1436185170111,-9.409811,-0.789488,-1.453879
337,1436185170134,-9.490017,-0.50757074,-1.2838906
338,1436185170157,-9.621698,-0.32561144,-1.1402385
339,1436185170173,-9.567828,-0.3274071,-1.0875661
340,1436185170192,-9.457695,-0.5129577,-1.0253168
341,1436185170213,-9.482835,-0.6799533,-1.0283096
342,1436185170232,-9.64983,-0.80205756,-0.9708488
343,1436185170252,-9.771336,-0.8678981,-0.97025025
344,1436185170272,-9.7641535,-0.9187749,-0.96067345
345,1436185170294,-9.662399,-0.85173726,-1.0097545
346,1436185170312,-9.560646,-0.7565677,-0.94930094
347,1436185170334,-9.483433,-0.7020996,-0.8619126
348,1436185170356,-9.560646,-0.664391,-1.0205284
349,1436185170437,-9.655217,-0.59974754,-1.115698
350,1436185170438,-9.710283,-0.3657143,-1.062427
351,1436185170439,-9.702502,-0.25498247,-0.90979666
352,1436185170440,-9.755774,-0.14963761,-0.83018947
353,1436185170450,-9.731233,-0.06464344,-0.789488
354,1436185170470,-9.595362,-0.18614918,-0.7858967
355,1436185170490,-9.586384,-0.3800795,-0.9355343
356,1436185170510,-9.465476,-0.2681506,-1.0301052
357,1436185170532,-9.384672,-0.06284779,-0.85413146
358,1436185170553,-9.510367,-0.05626374,-0.7128736
359,1436185170575,-9.715072,-0.18674773,-0.7882909
360,1436185170593,-9.886856,-0.10055647,-1.1444284
361,1436185170613,-9.688137,0.19153613,-1.2659341
362,1436185170633,-9.411008,0.60094464,-1.0905589
363,1436185170653,-9.316438,0.90381116,-0.8086416
364,1436185170672,-9.409213,0.8571242,-0.62488663
365,1436185170698,-9.48463,0.7290344,-0.57041854
366,1436185170713,-9.687539,0.44711718,-0.5033809
367,1436185170733,-9.713875,0.11731588,-0.4177882
368,1436185170753,-9.797073,-0.034715924,-0.3274071
369,1436185170777,-9.958083,-0.050278235,-0.17118542
370,1436185170817,-10.123283,-0.15741876,-0.18614918
371,1436185170818,-10.0269165,-0.24241292,-0.5057751
372,1436185170832,-9.604341,-0.088585466,-0.46926352
373,1436185170852,-9.348161,0.28790274,-0.42556936
374,1436185170872,-9.056666,0.62488663,-0.3842694
375,1436185170896,-8.940548,0.7769185,-0.15861586
376,1436185170912,-8.994417,0.76075757,-0.076015905
377,1436185170932,-9.197326,0.7170634,-0.16519992
378,1436185170952,-9.281721,0.6314707,-0.15023616
379,1436185170972,-9.358934,0.48362875,-0.14724341
380,1436185170992,-9.498995,0.28431144,-0.26396075
381,1436185171012,-9.551667,0.16998832,-0.2837129
382,1436185171033,-9.60015,-0.0005985504,-0.3369839
383,1436185171053,-9.475053,0.02813187,-0.22924481
384,1436185171073,-9.433155,0.26515785,-0.034715924
385,1436185171093,-9.485827,0.43993455,0.12689269
386,1436185171113,-9.437345,0.39504328,-0.05746084
387,1436185171135,-9.222465,0.3842694,-0.40402153
388,1436185171152,-9.268554,0.3776853,-0.439336
389,1436185171173,-9.457097,0.45489833,-0.4782418
390,1436185171203,-9.64564,0.38486794,-0.48243165
391,1436185171252,-9.81084,0.52612585,-0.060453594
392,1436185171253,-9.870096,0.7739257,0.4321534
