id,attr_time,attr_x,attr_y,attr_z
1,1436963023603,-9.3533,-2.90515,1.09685
2,1436963023622,-9.30792,-2.90724,1.17595
3,1436963023641,-9.30573,-2.96252,1.22664
4,1436963023662,-9.2851,-3.03575,1.17046
5,1436963023681,-9.35556,-3.11456,1.1154
6,1436963023702,-9.32504,-3.13968,1.1241
7,1436963023721,-9.29599,-3.11354,1.11522
8,1436963023741,-9.30261,-3.04578,1.09998
9,1436963023761,-9.30896,-2.94078,1.10184
10,1436963023781,-9.37616,-2.92007,1.12312
11,1436963023800,-9.40277,-2.9014,1.0625
12,1436963023819,-9.4045,-2.90268,1.02945
13,1436963023840,-9.33853,-2.86234,1.12265
14,1436963023859,-9.33108,-2.8967,1.10249
15,1436963023879,-9.3994,-2.91943,1.21075
16,1436963023900,-9.42096,-2.9897,1.19734
17,1436963023919,-9.46771,-3.07137,1.16722
18,1436963023939,-9.45473,-3.11821,1.15044
19,1436963023959,-9.43741,-3.08426,1.09183
20,1436963023978,-9.49139,-3.03947,1.14687
21,1436963023998,-9.45056,-2.97589,1.1904
22,1436963024018,-9.34322,-2.94908,1.21877
23,1436963024036,-9.27904,-2.85799,1.25017
24,1436963024058,-9.27103,-2.84743,1.24336
25,1436963024077,-9.30244,-2.91637,1.19739
26,1436963024097,-9.32118,-2.97212,1.14236
27,1436963024117,-9.37392,-2.94717,1.13881
28,1436963024136,-9.3635,-2.96713,1.13995
29,1436963024156,-9.34465,-3.03883,1.12009
30,1436963024174,-9.27136,-3.09994,1.13702
31,1436963024196,-9.29456,-3.07516,1.12657
32,1436963024216,-9.35872,-3.034,1.14011
33,1436963024235,-9.33633,-2.9803,1.18675
34,1436963024256,-9.29956,-2.96761,1.1151
35,1436963024275,-9.30556,-2.92059,1.201
36,1436963024295,-9.36774,-2.84377,1.20667
37,1436963024314,-9.37544,-2.88409,1.15523
38,1436963024334,-9.37062,-2.92058,1.09741
39,1436963024353,-9.32991,-2.88234,1.09024
40,1436963024374,-9.28783,-2.86346,1.15852
41,1436963024395,-9.29309,-2.85106,1.1622
42,1436963024413,-9.29182,-2.88583,1.13757
43,1436963024434,-9.32951,-2.92056,1.13475
44,1436963024451,-9.33156,-2.96446,1.13419
45,1436963024472,-9.33336,-2.97525,1.13989
46,1436963024512,-9.317,-2.99232,1.1313
47,1436963024513,-9.29471,-3.06189,1.18211
48,1436963024552,-9.37785,-3.03597,1.16689
49,1436963024572,-9.36061,-2.99638,1.24295
50,1436963024591,-9.36217,-3.03143,1.2149
51,1436963024611,-9.34882,-3.03682,1.17723
52,1436963024631,-9.38444,-3.0303,1.18921
53,1436963024650,-9.39209,-2.9518,1.21074
54,1436963024670,-9.41733,-2.9306,1.15004
55,1436963024690,-9.3929,-2.92894,1.20723
56,1436963024709,-9.32887,-2.8831,1.15645
57,1436963024730,-9.35663,-2.89317,1.18092
58,1436963024749,-9.42818,-2.89781,1.14687
59,1436963024768,-9.336,-2.89673,1.19052
60,1436963024789,-9.32181,-2.92357,1.12044
61,1436963024808,-9.37187,-2.93456,1.14464
62,1436963024829,-9.39072,-2.94839,1.15503
63,1436963024848,-9.36537,-2.99857,1.18005
64,1436963024868,-9.36436,-3.02199,1.12776
65,1436963024888,-9.35584,-3.01343,1.17784
66,1436963024908,-9.3251,-3.02475,1.16406
67,1436963024928,-9.38086,-3.08449,1.17509
68,1436963024945,-9.33006,-3.05251,1.20659
69,1436963024968,-9.32809,-3.07991,1.19061
70,1436963024986,-9.34662,-3.08154,1.24359
71,1436963025006,-9.32481,-3.07007,1.14661
72,1436963025027,-9.29436,-3.08507,1.13275
73,1436963025046,-9.31912,-3.06116,1.15009
74,1436963025066,-9.38249,-3.02368,1.15633
75,1436963025085,-9.4128,-2.92172,1.19597
76,1436963025105,-9.33188,-2.88795,1.20413
77,1436963025125,-9.30814,-2.88452,1.13737
78,1436963025145,-9.31831,-2.87914,1.17601
79,1436963025165,-9.38385,-2.86351,1.12489
80,1436963025185,-9.44395,-2.93054,1.10347
81,1436963025205,-9.39583,-2.97897,1.14062
82,1436963025224,-9.36081,-2.99635,1.21526
83,1436963025244,-9.36273,-3.02789,1.20351
84,1436963025262,-9.28565,-3.05133,1.22768
85,1436963025283,-9.2146,-3.10184,1.1647
86,1436963025302,-9.22443,-3.12155,1.10153
87,1436963025323,-9.25212,-3.09023,1.10425
88,1436963025342,-9.30847,-3.15022,1.13539
89,1436963025362,-9.31314,-3.17015,1.11243
90,1436963025381,-9.38025,-3.18146,1.12068
91,1436963025402,-9.33174,-3.15556,1.12129
92,1436963025421,-9.248,-3.19032,1.06566
93,1436963025443,-9.23129,-3.21568,1.12743
94,1436963025461,-9.21155,-3.17519,1.10826
95,1436963025481,-9.25902,-3.16994,1.09758
96,1436963025501,-9.32823,-3.12296,1.10028
97,1436963025521,-9.34918,-3.13391,1.06885
98,1436963025540,-9.35687,-3.18452,1.06131
99,1436963025560,-9.34352,-3.18057,1.11377
100,1436963025579,-9.31883,-3.14645,1.10519
101,1436963025619,-9.3103,-3.1246,1.11552
102,1436963025639,-9.33266,-3.11458,1.10696
103,1436963025659,-9.33813,-3.10014,1.08257
104,1436963025679,-9.35635,-3.05478,1.09604
105,1436963025698,-9.36931,-3.04054,1.08813
106,1436963025718,-9.37099,-3.07783,1.09775
107,1436963025738,-9.29488,-3.02846,1.11871
108,1436963025758,-9.34699,-3.05566,1.07661
109,1436963025777,-9.37373,-3.05785,1.05865
110,1436963025797,-9.31503,-3.06343,1.03397
111,1436963025817,-9.35831,-3.08241,1.06119
112,1436963025837,-9.34135,-3.06686,1.04407
113,1436963025857,-9.39002,-3.0713,1.01865
114,1436963025876,-9.3828,-3.04837,1.07941
115,1436963025894,-9.33575,-3.03703,1.11288
116,1436963025916,-9.36993,-3.04111,1.16087
117,1436963025935,-9.34406,-3.04193,1.09802
118,1436963025956,-9.39131,-3.08112,1.06625
119,1436963025975,-9.44278,-3.10056,1.03224
120,1436963025995,-9.36243,-3.0585,1.04637
121,1436963026015,-9.3419,-3.10245,1.03191
122,1436963026034,-9.35889,-3.16597,1.0256
123,1436963026055,-9.31044,-3.14076,1.06692
124,1436963026074,-9.27075,-3.20804,1.10266
125,1436963026094,-9.25633,-3.26312,1.08871
126,1436963026113,-9.24133,-3.19116,1.12227
127,1436963026133,-9.30029,-3.13472,1.04776
128,1436963026154,-9.32929,-3.13792,1.0511
129,1436963026173,-9.33455,-3.1777,1.04466
130,1436963026193,-9.37216,-3.12395,1.0473
131,1436963026211,-9.36618,-3.06766,0.970001
132,1436963026232,-9.35471,-3.02994,1.09375
133,1436963026252,-9.25784,-3.0136,1.07881
134,1436963026272,-9.34721,-3.02351,1.01115
135,1436963026292,-9.3183,-3.05428,1.03296
136,1436963026311,-9.29468,-3.08842,1.01006
137,1436963026332,-9.30043,-3.07982,0.995972
138,1436963026351,-9.32117,-3.09972,1.00539
139,1436963026369,-9.34531,-3.12326,1.03598
140,1436963026389,-9.33386,-3.11398,1.05241
141,1436963026410,-9.33331,-3.12175,1.07658
142,1436963026429,-9.34674,-3.1286,1.04666
143,1436963026450,-9.29047,-3.1179,1.1429
144,1436963026469,-9.31841,-3.15854,1.1282
145,1436963026490,-9.30379,-3.13127,1.09169
146,1436963026510,-9.3508,-3.11757,1.0405
147,1436963026528,-9.35706,-3.09651,1.05515
148,1436963026548,-9.32091,-3.07419,1.00937
149,1436963026568,-9.36464,-3.05057,1.08197
150,1436963026588,-9.37413,-3.01831,1.06537
151,1436963026608,-9.39134,-3.05942,1.00351
152,1436963026628,-9.38326,-3.02097,1.04614
153,1436963026648,-9.33597,-3.02669,1.08289
154,1436963026688,-9.36826,-3.11971,1.06822
155,1436963026706,-9.36975,-3.12335,1.14284
156,1436963026727,-9.36098,-3.08147,1.08519
157,1436963026746,-9.33911,-3.08737,1.08768
158,1436963026766,-9.3428,-3.06966,1.09894
159,1436963026786,-9.2697,-3.03806,1.11035
160,1436963026806,-9.35553,-3.02182,1.04022
161,1436963026826,-9.35011,-2.99806,1.02126
162,1436963026845,-9.32553,-3.02277,1.00117
163,1436963026865,-9.34367,-3.03578,0.998474
164,1436963026885,-9.34271,-3.02608,1.0311
165,1436963026904,-9.34602,-3.04173,1.06757
166,1436963026925,-9.30696,-3.05434,1.1377
167,1436963026944,-9.28148,-3.05936,1.23822
168,1436963026964,-9.28366,-3.12575,1.22948
169,1436963026984,-9.30919,-3.24037,1.1483
170,1436963027003,-9.29062,-3.26073,1.08672
171,1436963027021,-9.28316,-3.28212,1.14232
172,1436963027043,-9.24194,-3.23938,1.08034
173,1436963027061,-9.19347,-3.23242,1.03947
174,1436963027083,-9.22678,-3.12111,1.01979
175,1436963027102,-9.29846,-3.03729,1.07753
176,1436963027122,-9.293,-3.03969,1.12321
177,1436963027142,-9.37645,-3.08804,1.14777
178,1436963027162,-9.33234,-3.02409,1.26253
179,1436963027181,-9.31525,-2.9754,1.31421
180,1436963027200,-9.28253,-2.93974,1.29419
181,1436963027221,-9.29356,-2.99379,1.16081
182,1436963027373,-9.31557,-2.90802,1.07462
183,1436963027374,-9.39859,-2.94131,0.981659
184,1436963027375,-9.55598,-3.02235,0.982224
185,1436963027376,-9.64468,-2.93393,1.01218
186,1436963027377,-9.51111,-3.10028,0.794601
187,1436963027378,-9.05154,-3.08672,0.804901
188,1436963027379,-8.79805,-2.97122,0.832962
189,1436963027380,-8.72002,-2.80319,0.841553
190,1436963027399,-8.60229,-2.84767,0.865189
191,1436963027418,-8.62064,-2.88777,0.912888
192,1436963027439,-8.59828,-2.82628,0.912735
193,1436963027458,-8.57175,-2.81268,0.911667
194,1436963027478,-8.81641,-2.97244,0.902161
195,1436963027497,-9.28069,-3.17876,0.731094
196,1436963027518,-9.9875,-3.38724,0.59169
197,1436963027537,-10.7275,-3.66768,0.317337
198,1436963027556,-10.565,-3.48784,0.286087
199,1436963027578,-10.1885,-3.49509,0.294373
200,1436963027595,-9.99451,-3.26706,0.694641
201,1436963027616,-10.3032,-3.24953,0.494781
202,1436963027636,-10.1108,-3.41631,0.439224
203,1436963027655,-9.68668,-3.2319,0.494781
204,1436963027676,-9.45624,-2.91669,0.691116
205,1436963027695,-9.31245,-2.58861,0.879822
206,1436963027715,-9.25655,-2.41322,1.02069
207,1436963027755,-9.05878,-2.58534,0.882309
208,1436963027756,-8.88654,-2.96384,0.754227
209,1436963027794,-8.94345,-2.99237,0.532089
210,1436963027814,-9.03014,-2.77235,0.574158
211,1436963027832,-8.84462,-2.66641,0.607513
212,1436963027854,-8.71388,-2.78291,0.50856
213,1436963027872,-8.8605,-2.8967,0.431274
214,1436963027893,-8.98468,-2.91318,0.450165
215,1436963027913,-9.06146,-2.99782,0.500992
216,1436963027933,-9.20998,-3.05632,0.5896
217,1436963027952,-9.38075,-2.95232,0.702499
218,1436963027972,-9.55376,-3.08195,0.713333
219,1436963027992,-9.98245,-3.20956,0.698196
220,1436963028011,-10.6574,-3.22363,0.802566
221,1436963028031,-11.2392,-3.2218,0.851166
222,1436963028052,-11.7042,-3.15948,0.868057
223,1436963028071,-12.6576,-3.10831,0.919647
224,1436963028091,-13.9823,-3.23109,1.02814
225,1436963028111,-14.778,-3.42217,1.02603
226,1436963028130,-15.5753,-3.62769,1.12526
227,1436963028149,-15.7687,-3.63902,1.15981
228,1436963028170,-14.4541,-3.51625,1.27736
229,1436963028189,-13.1426,-3.66612,1.35031
230,1436963028209,-11.7056,-3.1868,1.45703
231,1436963028229,-9.58411,-2.37312,1.69711
232,1436963028249,-7.24306,-2.04741,1.70241
233,1436963028268,-6.86108,-2.12378,1.80511
234,1436963028289,-8.81187,-1.84232,1.7502
235,1436963028308,-10.0014,-1.20476,1.52956
236,1436963028328,-9.99788,-0.829941,1.41228
237,1436963028348,-9.69887,-1.0145,1.52992
238,1436963028366,-9.44543,-1.53258,1.38756
239,1436963028387,-9.14615,-1.88139,1.52086
240,1436963028407,-8.6927,-2.32665,2.04207
241,1436963028426,-7.80141,-2.67395,1.98998
242,1436963028447,-6.75909,-2.74631,1.8618
243,1436963028466,-5.89973,-2.39368,2.04318
244,1436963028486,-5.37782,-2.06676,2.12782
245,1436963028505,-4.86154,-1.70728,1.88158
246,1436963028526,-4.2928,-1.5233,1.77177
247,1436963028545,-4.07657,-1.61498,1.72221
248,1436963028565,-4.38344,-1.96649,1.5289
249,1436963028585,-4.80679,-2.18864,1.28006
250,1436963028605,-5.43602,-2.44913,1.14557
251,1436963028624,-6.42741,-2.82658,1.04472
252,1436963028644,-7.39496,-3.19954,0.985092
253,1436963028664,-8.66768,-3.59502,1.01276
254,1436963028683,-10.5365,-3.80385,1.16666
255,1436963028703,-13.0934,-3.91097,1.45988
256,1436963028723,-16.3603,-3.23911,3.52293
257,1436963028743,-18.8244,-6.61,2.00716
258,1436963028763,-19.1718,-9.5614,-2.0345
259,1436963028781,-16.8973,-8.26082,-0.186401
260,1436963028802,-12.6533,-6.02797,-1.19688
261,1436963028842,-9.93086,-8.10428,-1.04794
262,1436963028862,-8.98537,-5.30539,-0.311554
263,1436963028882,-9.36957,-2.39934,0.836426
264,1436963028901,-9.68193,-1.81328,0.725967
265,1436963028921,-9.83807,-1.74234,0.245453
266,1436963028941,-9.75143,-1.3123,0.526947
267,1436963028959,-9.62367,-1.7401,0.72966
268,1436963028980,-8.49606,-1.6373,0.280823
269,1436963028999,-8.36739,-0.368195,0.788513
270,1436963029019,-7.17661,-1.8757,0.50856
271,1436963029040,-6.20367,-2.62746,0.252151
272,1436963029060,-5.42615,-3.16205,-0.088974
273,1436963029079,-4.95973,-3.63281,-0.240738
274,1436963029098,-4.87967,-3.62164,-0.418854
275,1436963029119,-5.31444,-3.3559,-0.393661
276,1436963029138,-6.19695,-3.22026,-0.313278
277,1436963029158,-7.74121,-3.12883,-0.130783
278,1436963029179,-9.76337,-2.9061,-0.00891113
279,1436963029198,-11.29,-2.6835,0.292786
280,1436963029218,-12.4173,-2.74454,0.69545
281,1436963029238,-13.498,-3.03725,1.02028
282,1436963029257,-13.8405,-3.10683,1.07506
283,1436963029275,-13.2981,-3.19608,1.04585
284,1436963029297,-13.5521,-3.62842,1.14651
285,1436963029315,-14.3416,-3.66714,1.37399
286,1436963029336,-14.0568,-3.06136,0.807449
287,1436963029356,-12.7923,-2.74677,0.521805
288,1436963029376,-11.1918,-2.99612,0.985001
289,1436963029395,-9.44295,-3.29178,1.59912
290,1436963029415,-8.16718,-2.9863,1.55212
291,1436963029435,-8.47914,-2.49294,1.84167
292,1436963029455,-9.35675,-2.34055,2.54411
293,1436963029475,-9.29642,-2.29263,2.74142
294,1436963029494,-8.73228,-2.24622,2.35098
295,1436963029514,-8.20392,-2.25694,2.23267
296,1436963029534,-8.00273,-2.17447,2.77846
297,1436963029553,-7.89914,-2.09741,3.50397
298,1436963029574,-7.15628,-2.74185,3.11714
299,1436963029592,-6.22162,-3.25389,2.46661
300,1436963029613,-5.75848,-3.42418,1.72655
301,1436963029631,-5.22777,-3.1808,1.27702
302,1436963029653,-5.03897,-2.87749,1.49568
303,1436963029672,-4.39333,-3.60834,0.66333
304,1436963029692,-3.97734,-2.92104,0.524429
305,1436963029712,-4.3862,-2.55679,0.401764
306,1436963029732,-5.03917,-2.4001,0.343399
307,1436963029751,-5.84113,-2.4846,0.268021
308,1436963029771,-6.8882,-2.78265,0.108368
309,1436963029791,-8.38106,-2.98311,-0.0516663
310,1436963029810,-10.5864,-3.42862,0.131302
311,1436963029831,-13.1237,-4.02339,0.405899
312,1436963029850,-14.7283,-4.53616,0.970535
313,1436963029870,-14.6616,-4.18597,0.724167
314,1436963029890,-14.2508,-4.18584,0.932098
315,1436963029929,-13.5672,-4.46877,3.03676
316,1436963029948,-15.7774,-5.37477,3.08006
317,1436963029969,-16.8174,-7.00737,2.41002
318,1436963029988,-13.5802,-6.22273,1.55862
319,1436963030009,-10.8319,-6.4631,1.22675
320,1436963030028,-8.50273,-4.98068,1.49899
321,1436963030048,-8.3475,-2.13312,0.281464
322,1436963030068,-7.64488,-2.09734,-0.546249
323,1436963030086,-7.58491,-2.76352,-0.542313
324,1436963030105,-8.89761,-2.40866,-0.0184937
325,1436963030126,-9.2312,-1.27188,0.924026
326,1436963030147,-9.10249,-1.56003,1.40663
327,1436963030167,-9.00053,-2.66371,1.1162
328,1436963030187,-9.0574,-3.14708,0.701492
329,1436963030206,-8.62578,-3.55147,0.0912628
330,1436963030224,-7.87111,-3.12833,-0.316376
331,1436963030246,-7.20901,-2.78972,-0.36557
332,1436963030265,-6.66786,-2.61781,-0.228195
333,1436963030285,-6.25468,-2.42477,-0.00721741
334,1436963030305,-6.10838,-2.3542,0.149765
335,1436963030324,-6.2692,-2.22598,0.331039
336,1436963030345,-6.74492,-2.13931,0.353897
337,1436963030364,-7.41785,-2.20924,0.336288
338,1436963030384,-8.51584,-2.49316,0.388535
339,1436963030402,-10.0094,-2.76549,0.373673
340,1436963030423,-11.1622,-2.92783,0.427444
341,1436963030442,-12.09,-3.06651,0.576859
342,1436963030463,-13.2968,-3.40211,0.786697
343,1436963030483,-14.1161,-3.51991,0.96376
344,1436963030503,-14.4982,-3.60057,0.919189
345,1436963030522,-13.8883,-3.56732,0.831238
346,1436963030541,-12.9332,-3.59055,0.946579
347,1436963030562,-12.6644,-3.78677,1.29465
348,1436963030581,-12.6868,-3.96651,1.68407
349,1436963030602,-11.8338,-3.91228,2.02443
350,1436963030621,-9.77046,-3.55038,2.22423
351,1436963030641,-7.60451,-3.08099,2.12672
352,1436963030661,-7.24463,-3.09991,2.37517
353,1436963030680,-8.09586,-2.88481,2.74957
354,1436963030700,-8.81642,-2.41742,2.77481
355,1436963030719,-9.33684,-2.07108,2.74499
356,1436963030740,-9.38477,-1.84053,3.04788
357,1436963030759,-8.89111,-1.96002,3.41486
358,1436963030780,-8.19443,-2.45923,3.39426
359,1436963030799,-7.52295,-2.89603,3.09128
360,1436963030819,-6.54427,-2.80284,2.89545
361,1436963030839,-6.12857,-2.61754,2.73407
362,1436963030859,-5.26759,-3.01257,1.99538
363,1436963030878,-5.42932,-3.02046,1.3793
364,1436963030898,-5.11379,-4.37782,-0.469482
365,1436963030918,-5.01039,-3.81233,-0.0956421
366,1436963030957,-5.73781,-2.78516,0.0940094
367,1436963030958,-6.63821,-2.73068,0.650375
368,1436963030997,-6.88704,-2.41373,0.613754
369,1436963031016,-7.33308,-2.34132,0.554413
370,1436963031034,-7.86687,-2.6248,0.327133
371,1436963031056,-8.62253,-2.94832,0.283081
372,1436963031076,-9.86137,-3.39778,0.199295
373,1436963031095,-11.3899,-3.84419,-0.0508728
374,1436963031116,-13.4665,-4.25328,-0.179733
375,1436963031136,-15.3022,-4.52376,0.846039
376,1436963031155,-17.1413,-5.33972,4.30202
377,1436963031175,-17.0286,-8.49146,2.36766
378,1436963031195,-14.0568,-6.90785,2.42342
379,1436963031214,-12.7789,-5.02878,2.35745
380,1436963031234,-10.4825,-4.06857,1.87801
381,1436963031253,-8.17581,-3.17868,1.73309
382,1436963031274,-8.62509,-2.32152,1.96678
383,1436963031293,-9.13615,-1.75204,1.69601
384,1436963031314,-9.54535,-2.63902,0.919556
385,1436963031333,-10.1536,-2.3493,0.821075
386,1436963031351,-10.3749,-2.13695,1.07938
387,1436963031373,-10.207,-1.96739,1.13701
388,1436963031392,-9.38791,-2.50618,0.810608
389,1436963031411,-7.95683,-2.99777,0.321259
390,1436963031432,-6.8,-3.05208,-0.00691223
391,1436963031451,-6.00636,-3.08966,-0.27446
392,1436963031471,-5.48349,-3.02081,-0.34137
393,1436963031491,-5.24001,-2.93523,-0.352112
394,1436963031511,-5.26338,-2.59909,-0.243011
395,1436963031529,-5.4409,-2.31422,-0.171432
396,1436963031550,-5.98404,-2.23531,0.0186768
397,1436963031569,-6.7933,-2.24504,0.191147
398,1436963031590,-8.11635,-2.36465,0.297043
399,1436963031610,-10.1535,-2.60535,0.323013
400,1436963031630,-11.9685,-2.89246,0.444443
401,1436963031649,-13.0879,-3.14075,0.725738
402,1436963031668,-13.9932,-3.41676,0.924454
403,1436963031688,-14.6945,-3.52695,0.854706
404,1436963031710,-14.9319,-3.54851,0.771118
405,1436963031729,-14.7383,-3.62468,0.794067
406,1436963031748,-14.3415,-3.57936,0.938644
407,1436963031768,-13.2291,-3.44029,1.31737
408,1436963031788,-11.3576,-3.34743,1.76947
409,1436963031808,-9.00499,-3.33714,2.32581
410,1436963031827,-7.38486,-3.51051,2.57091
411,1436963031845,-7.37279,-3.6221,2.58842
412,1436963031867,-8.35782,-3.30142,2.54579
413,1436963031885,-9.06015,-2.58679,2.74579
414,1436963031907,-8.95998,-1.81966,3.03566
415,1436963031926,-8.49367,-1.31468,3.33109
416,1436963031946,-8.00749,-1.30824,3.55745
417,1436963031966,-7.51582,-1.73772,3.49626
418,1436963031985,-7.22464,-2.17334,3.29604
419,1436963032005,-6.94139,-2.52409,3.00136
420,1436963032024,-6.62436,-2.73055,2.42029
421,1436963032065,-6.30107,-2.81168,1.98596
422,1436963032084,-6.065,-2.84236,1.53494
423,1436963032104,-5.75664,-2.81561,1.15184
424,1436963032123,-5.72551,-2.78754,0.811081
425,1436963032144,-5.78659,-2.69563,0.61644
426,1436963032162,-5.95918,-2.74402,0.621841
427,1436963032183,-6.29004,-2.79953,0.62442
428,1436963032202,-6.68475,-2.82312,0.558243
429,1436963032222,-7.14806,-2.85967,0.464508
430,1436963032242,-7.57594,-2.96608,0.425751
431,1436963032262,-8.2697,-3.2321,0.362854
432,1436963032282,-9.57445,-3.59393,0.297501
433,1436963032302,-11.3916,-3.85785,0.276077
434,1436963032321,-13.4474,-4.20233,0.818314
435,1436963032340,-14.1391,-3.4081,5.25539
436,1436963032361,-18.3049,-5.51628,4.90836
437,1436963032380,-15.5471,-8.01242,1.97606
438,1436963032401,-15.7973,-6.31793,0.239822
439,1436963032417,-14.9139,-5.89163,0.346405
440,1436963032441,-11.3916,-5.92279,0.544434
441,1436963032460,-9.62286,-5.07536,1.05359
442,1436963032478,-8.36394,-2.71643,1.6286
443,1436963032500,-7.81345,-1.56184,1.83778
444,1436963032518,-9.20636,-1.86922,1.58661
445,1436963032538,-9.81523,-2.15878,0.908997
446,1436963032559,-9.93259,-2.7899,0.761398
447,1436963032578,-9.44765,-3.62779,-0.221161
448,1436963032598,-9.55719,-1.36868,0.905777
449,1436963032618,-9.32994,-1.76187,0.921219
450,1436963032638,-7.70496,-2.83702,0.256989
451,1436963032657,-6.36569,-2.79718,-0.114746
452,1436963032677,-5.5871,-2.88786,-0.235031
453,1436963032696,-5.14799,-2.8965,-0.267792
454,1436963032717,-5.05748,-2.7475,-0.202164
