id,attr_time,attr_x,attr_y,attr_z
1,1436963023615,9.799467,0.20231004,1.560421
2,1436963023635,9.813234,0.13227965,1.567005
3,1436963023654,9.838972,0.12389994,1.5849615
4,1436963023674,9.880871,0.13826515,1.5927427
5,1436963023695,9.941922,0.23343466,1.6358383
6,1436963023716,9.832987,0.31483752,1.7022774
7,1436963023737,9.637859,0.2801216,1.6825253
8,1436963023757,9.616311,0.18495208,1.6657659
9,1436963023778,9.734824,0.12030864,1.6077064
10,1436963023796,9.841965,0.12808979,1.6047137
11,1436963023816,9.883265,0.16460137,1.6106992
12,1436963023836,9.840169,0.19871874,1.5981296
13,1436963023858,9.788095,0.17298107,1.6011224
14,1436963023876,9.731233,0.17417817,1.5975311
15,1436963023895,9.740809,0.17537527,1.6160861
16,1436963023954,9.809643,0.15741876,1.6537948
17,1436963023956,9.804854,0.16938977,1.661576
18,1436963023957,9.79827,0.15622166,1.6992847
19,1436963023976,9.758167,0.16280572,1.6759412
20,1436963023997,9.76954,0.11372458,1.6130934
21,1436963024015,9.826403,0.0700304,1.6711528
22,1436963024038,9.822212,0.21308395,1.6861166
23,1436963024055,9.755175,0.24600422,1.5490485
24,1436963024076,9.742605,0.11552023,1.5496471
25,1436963024096,9.750985,0.08678981,1.6466122
26,1436963024117,9.793482,0.16579847,1.714847
27,1436963024138,9.824008,0.17178397,1.661576
28,1436963024156,9.825205,0.1340753,1.6226702
29,1436963024180,9.807847,0.14844051,1.5801731
30,1436963024202,9.776124,0.16699557,1.54845
31,1436963024217,9.813234,0.16819267,1.5873557
32,1436963024237,9.820416,0.20949265,1.5945383
33,1436963024292,9.755175,0.18974048,1.5969325
34,1436963024305,9.728839,0.16879122,1.6017209
35,1436963024306,9.783905,0.15263036,1.5879543
36,1436963024323,9.832987,0.130484,1.5682021
37,1436963024337,9.866506,0.1376666,1.5173253
38,1436963024356,9.802461,0.12689269,1.5717934
39,1436963024375,9.7641535,0.19393034,1.596334
40,1436963024395,9.79827,0.2148796,1.5867572
41,1436963024415,9.857527,0.19512744,1.5316905
42,1436963024435,9.882068,0.18914193,1.4957775
43,1436963024457,9.86471,0.18076223,1.5191209
44,1436963024478,9.834782,0.18315643,1.5454572
45,1436963024496,9.802461,0.18435353,1.5095441
46,1436963024525,9.800066,0.18674773,1.4969746
47,1436963024538,9.813234,0.15382746,1.584363
48,1436963024556,9.831789,0.24660277,1.614889
49,1436963024577,9.761759,0.2825158,1.4449008
50,1436963024597,9.762956,0.16759412,1.4287399
51,1436963024619,9.8276,0.17956513,1.4772224
52,1436963024638,9.844358,0.2681506,1.541866
53,1436963024659,9.81922,0.2789245,1.5113398
54,1436963024679,9.832388,0.19752164,1.4921862
55,1436963024699,9.845556,0.14784196,1.4628572
56,1436963024717,9.840768,0.16340427,1.460463
57,1436963024739,9.8276,0.22026655,1.4856021
58,1436963024759,9.798869,0.24839842,1.471237
59,1436963024779,9.777321,0.20829555,1.4951789
60,1436963024800,9.829395,0.18614918,1.4628572
61,1436963024820,9.831191,0.17597382,1.4730326
62,1436963024843,9.817424,0.16699557,1.4915876
63,1436963024860,9.808446,0.15203181,1.4957775
64,1436963024920,9.799467,0.16639702,1.4939818
65,1436963024921,9.833585,0.17357962,1.459266
66,1436963024922,9.854534,0.16639702,1.4628572
67,1436963024936,9.857527,0.19572599,1.4556746
68,1436963024956,9.858126,0.207697,1.4808137
69,1436963024976,9.825804,0.19871874,1.4742297
70,1436963025002,9.814431,0.19393034,1.4389153
71,1436963025016,9.770737,0.18076223,1.3611037
72,1436963025039,9.805453,0.10534488,1.4083891
73,1436963025060,9.824607,0.13826515,1.4748282
74,1436963025079,9.860519,0.25378537,1.423353
75,1436963025099,9.824607,0.22864626,1.2814964
76,1436963025118,9.8276,0.16819267,1.299453
77,1436963025139,9.856929,0.14664486,1.364695
78,1436963025160,9.859323,0.23163901,1.4754268
79,1436963025180,9.837176,0.22565351,1.453879
80,1436963025200,9.81922,0.17298107,1.42455
81,1436963025219,9.81922,0.12330139,1.3850456
82,1436963025239,9.816227,0.095768064,1.3946224
83,1436963025257,9.830592,0.13467385,1.460463
84,1436963025290,9.901221,0.19692309,1.5029601
85,1436963025297,9.909002,0.24480712,1.5346833
86,1436963025317,9.782109,0.19931729,1.5029601
87,1436963025337,9.643246,0.15143326,1.5292963
88,1436963025359,9.689933,0.08678981,1.5155296
89,1436963025385,9.841366,0.04070143,1.46585
90,1436963025397,9.937134,0.094570965,1.435324
91,1436963025417,9.922171,0.11791443,1.4191631
92,1436963025437,9.834782,0.11192893,1.4628572
93,1436963025457,9.733627,0.03172317,1.5191209
94,1436963025478,9.734824,-0.09636662,1.536479
95,1436963025499,9.7479925,-0.10534488,1.5113398
96,1436963025586,9.779716,-0.078410104,1.4401124
97,1436963025587,9.866506,0.035314474,1.340753
98,1436963025588,9.977836,0.10414778,1.2898762
99,1436963025589,10.026319,0.039504327,1.163582
100,1436963025601,10.1161,0.15023616,1.0851719
101,1436963025618,10.080188,0.27473465,0.8331822
102,1436963025636,9.764751,0.39145198,0.79248077
103,1436963025659,9.306262,0.60214174,0.91817635
104,1436963025678,9.014768,0.9283517,1.1055226
105,1436963025698,9.027337,1.1228806,1.2773066
106,1436963025720,9.123106,1.1240777,1.3006501
107,1436963025738,9.434352,0.90620536,1.5251064
108,1436963025760,9.512163,0.5518635,1.6843209
109,1436963025780,9.512762,0.3417723,1.697489
110,1436963025797,9.887454,0.3226187,1.8662802
111,1436963025820,10.442909,0.3453636,2.1039047
112,1436963025838,10.921151,0.3184288,2.2523453
113,1436963025858,10.864288,0.350152,2.1140802
114,1436963025934,10.275315,0.107739076,2.1763294
115,1436963025935,9.542689,-0.08200141,2.190096
116,1436963025936,9.226655,-0.0023942017,1.9919758
117,1436963025937,9.822212,0.14425065,1.7256209
118,1436963025957,10.667964,0.23702596,1.4030021
119,1436963025977,10.773908,0.35673606,1.3784616
120,1436963025997,9.910199,0.6889315,1.2940661
121,1436963026017,9.101558,0.90141696,1.3215994
122,1436963026039,8.970475,1.2599486,1.3940239
123,1436963026060,9.279327,1.1671734,1.5011644
124,1436963026080,9.6528225,0.8571242,1.4131776
125,1436963026100,9.474455,0.75836337,1.3461399
126,1436963026118,9.096769,1.0600328,1.3036429
127,1436963026140,9.238028,1.2725182,1.1797429
128,1436963026159,9.261371,1.0696096,1.0995371
129,1436963026181,9.14585,0.7858967,1.2198458
130,1436963026199,8.941745,0.78529817,1.4257472
131,1436963026247,9.01417,0.9864111,1.7537527
132,1436963026248,9.09617,1.3000516,2.1260512
133,1436963026259,9.326612,1.6136919,2.28347
134,1436963026278,9.68694,1.7579426,2.3104045
135,1436963026297,9.879673,1.8076223,2.2266076
136,1436963026320,10.044274,1.4401124,2.3062148
137,1436963026339,10.20289,1.1282675,2.4947581
138,1436963026362,10.829573,0.7793127,2.5492263
139,1436963026378,12.142194,0.25677812,2.1296425
140,1436963026398,13.340492,-0.33279404,1.977012
141,1436963026418,13.95221,-0.3537433,1.3910311
142,1436963026438,14.170681,0.6919243,0.41120413
143,1436963026458,14.888942,2.0171149,-0.5279215
144,1436963026481,16.461334,1.459266,-2.1757307
145,1436963026502,16.63671,-0.20290859,-2.565387
146,1436963026523,12.697649,-0.8870517,-2.3403323
147,1436963026540,8.23366,-1.4903905,-1.7483658
148,1436963026562,5.843648,-0.9032126,-1.436521
149,1436963026588,6.6959834,0.2861071,-0.96785605
150,1436963026602,8.842984,0.7661445,-1.429937
151,1436963026620,10.383054,0.30466217,-1.9141643
152,1436963026641,10.824186,-0.1316811,-2.0320787
153,1436963026661,10.840346,-1.1408371,-1.7525556
154,1436963026681,10.05864,-1.7375919,-0.79128367
155,1436963026699,9.111733,-1.2204443,-0.12868834
156,1436963026720,8.397662,0.021547815,-0.017357962
157,1436963026740,8.052897,0.5506664,-0.130484
158,1436963026761,7.7230964,0.36391866,-0.2873042
159,1436963026781,7.1646485,0.12808979,-0.4997896
160,1436963026800,6.623559,-0.03172317,-0.62967503
161,1436963026819,6.5032506,0.050876785,-0.52133745
162,1436963026842,6.5870476,0.31663316,-0.5177461
163,1436963026906,6.6085954,0.42796355,-0.42916065
164,1436963026907,6.971317,0.46447513,-0.2148796
165,1436963026908,7.978079,0.075417355,0.018555064
166,1436963026920,9.88925,-0.9103952,0.3705027
167,1436963026938,11.116279,-1.4826094,0.53570265
168,1436963026958,13.515268,-2.392406,0.3429694
169,1436963026978,14.40232,-2.8455088,0.56203884
170,1436963026997,13.207614,-2.6048915,0.7697359
171,1436963027020,12.110471,-1.6765398,0.6847417
172,1436963027042,12.8772135,-1.7274165,0.061650693
173,1436963027060,16.375143,-1.7112557,-0.57879823
174,1436963027081,18.017565,-0.005985504,-1.910573
175,1436963027101,13.148357,0.8900445,-3.2106245
176,1436963027119,7.8469963,1.1647792,-3.6583402
177,1436963027141,7.1586633,0.9648633,-3.0783448
178,1436963027161,9.512762,1.4143747,-2.3211784
179,1436963027181,11.348516,1.7753005,-2.0967221
180,1436963027200,11.453262,1.3150153,-1.7675194
181,1436963027219,10.447099,0.06703765,-0.8559271
182,1436963027241,9.75697,-0.29867667,-0.25498247
183,1436963027263,8.480861,-0.15861586,0.5710171
184,1436963027281,7.495647,0.088585466,0.40521863
185,1436963027301,6.6612678,-0.030526072,-0.073621705
186,1436963027322,5.8400564,-0.32321724,-0.439336
187,1436963027342,5.185841,-0.52492875,-0.51595044
188,1436963027362,4.84766,-0.4854244,-0.30585927
189,1436963027382,5.0523643,-0.2908955,-0.08020575
190,1436963027403,5.716755,-0.107140526,0.06823475
191,1436963027421,6.7534447,0.08200141,0.11552023
192,1436963027441,7.863157,0.40222588,-0.034117375
193,1436963027459,9.118916,0.7649474,-0.2100912
194,1436963027537,10.8708725,1.5029601,-0.16340427
195,1436963027538,12.835914,2.782661,0.26276365
196,1436963027539,14.365211,3.5577838,1.0109516
197,1436963027546,14.671668,3.4302924,1.7459716
198,1436963027559,13.690644,2.415151,2.3169887
199,1436963027578,12.0889225,1.4000094,2.3020248
200,1436963027598,11.799225,1.216853,1.4694413
201,1436963027621,13.63438,1.6418238,-0.52133745
202,1436963027639,16.302717,1.1575965,-2.280477
203,1436963027663,16.184204,-0.7691373,-2.9975405
204,1436963027680,11.870452,-2.1769278,-2.9628246
205,1436963027701,7.963713,-1.5011644,-2.5462334
206,1436963027722,6.667253,-0.19572599,-2.2505496
207,1436963027739,8.1319065,0.64463884,-1.9955671
208,1436963027762,10.480618,0.61112,-1.8608932
209,1436963027780,11.844116,0.19273324,-1.8273745
210,1436963027801,11.5316725,-0.08738836,-1.5544355
211,1436963027822,9.156026,-0.5566519,-0.8026561
212,1436963027842,7.0820484,-0.56682724,-0.1448492
213,1436963027860,6.6469026,-0.31423897,0.28670564
214,1436963027881,7.217321,0.3890578,0.8559271
215,1436963027904,8.34499,0.50397944,0.6386533
216,1436963027920,8.732851,-0.18375498,0.41599256
217,1436963027939,7.8709383,-0.7182605,0.2621651
218,1436963027959,6.4511766,-0.15442601,0.12150574
219,1436963027979,5.1942205,0.7733272,-0.05686229
220,1436963027999,4.7081976,1.103727,0.20829555
221,1436963028021,5.321113,0.6183026,0.20829555
222,1436963028041,6.685808,-0.56682724,0.18974048
223,1436963028060,8.452729,-1.9740193,0.46926352
224,1436963028080,10.362703,-2.7299886,1.2276269
225,1436963028100,11.674128,-2.4881742,1.9895816
226,1436963028121,12.592304,-1.9009962,1.7944542
227,1436963028140,12.797606,-1.8537107,1.4586674
228,1436963028209,12.49893,-1.988983,1.567005
229,1436963028210,11.963826,-2.1110873,1.8986019
230,1436963028211,12.540829,-1.8369513,1.8489223
231,1436963028228,14.396335,-1.6340426,1.471237
232,1436963028241,17.756598,-0.9864111,0.4938041
233,1436963028260,18.564041,0.3309984,-1.3030443
234,1436963028279,14.196419,1.258153,-2.7629087
235,1436963028303,9.276933,1.5478514,-2.392406
236,1436963028320,6.347627,1.2808979,-1.459266
237,1436963028343,6.7869635,0.7433996,-1.0259154
238,1436963028363,9.138069,0.45250413,-0.96067345
239,1436963028383,11.23539,0.5386954,-1.2797008
240,1436963028411,11.584944,0.59495914,-1.3808558
241,1436963028424,10.107122,0.4758476,-0.7906851
242,1436963028440,8.43178,0.3429694,0.40641573
243,1436963028460,7.924209,0.2908955,0.6817489
244,1436963028480,7.603985,0.19153613,0.82599956
245,1436963028500,7.787141,-0.12509704,0.7188591
246,1436963028523,7.583634,-0.62488663,0.5590461
247,1436963028542,7.1784153,-0.6464345,0.52612585
248,1436963028562,6.602011,-0.38845924,0.65062433
249,1436963028580,6.3248825,0.14963761,0.55844754
250,1436963028602,6.010045,0.5674258,0.45070848
251,1436963028620,5.8987145,0.40462008,0.350152
252,1436963028640,6.4146647,0.3321955,0.25378537
253,1436963028660,7.644686,0.82719666,0.30047232
254,1436963028679,9.108142,1.7052702,0.4961983
255,1436963028701,10.450092,2.7832594,1.0271125
256,1436963028725,11.805809,2.8921957,1.6771383
257,1436963028742,12.945449,1.8243817,2.5372553
258,1436963028761,13.173496,1.246182,2.5743654
259,1436963028782,13.271659,0.3890578,2.2451627
260,1436963028809,12.974179,0.15741876,2.2655134
261,1436963028851,13.358448,0.56922144,1.7429788
262,1436963028852,14.314333,1.151611,0.6135142
263,1436963028866,15.362994,1.3688848,-0.10115502
264,1436963028880,15.682021,1.0989386,-1.4377182
265,1436963028900,13.984532,0.3429694,-1.917157
266,1436963028920,10.443508,-0.31184477,-2.0667946
267,1436963028940,7.790134,-0.21547815,-2.167351
268,1436963028960,7.504027,0.046686932,-2.3762453
269,1436963028980,8.60117,0.045489833,-2.705448
270,1436963029000,10.037092,-0.17118542,-2.7844565
271,1436963029021,11.206061,-0.6889315,-2.2290018
272,1436963029042,10.875661,-1.0342951,-1.2665327
273,1436963029075,10.111312,-0.99299514,-0.83497787
274,1436963029081,8.206126,-0.53929394,-0.21308395
275,1436963029102,7.233482,0.050278235,0.017357962
276,1436963029121,7.3220673,0.57760113,0.30346507
277,1436963029143,7.6189485,0.66738373,0.2813187
278,1436963029163,7.2227077,-0.21308395,-0.030526072
279,1436963029181,6.5020533,-1.1749545,-0.077213004
280,1436963029202,6.1489086,-1.1917139,-0.01316811
281,1436963029223,6.362591,-0.59615624,-0.05746084
282,1436963029243,6.7773867,0.15682021,-0.15322891
283,1436963029263,7.2059484,0.5530606,-0.27832595
284,1436963029283,7.707534,0.074220255,0.010773907
285,1436963029304,8.680777,-0.53211135,0.7062895
286,1436963029324,10.164583,-0.9588778,1.3317747
287,1436963029343,11.510124,-1.5508442,1.7549498
288,1436963029363,11.878832,-1.9267339,1.8920178
289,1436963029384,12.382213,-2.7180176,2.1637597
290,1436963029415,12.966398,-3.145981,1.9063832
291,1436963029429,14.0952635,-2.3654714,1.5897499
292,1436963029443,15.216948,-1.5634137,0.54288524
293,1436963029481,16.676214,-0.97982705,-0.1364695
294,1436963029482,16.976686,0.022744916,-1.7932571
295,1436963029500,13.069348,0.88645315,-3.6882677
296,1436963029520,9.221867,1.6101006,-3.7253778
297,1436963029543,7.813477,1.9524715,-2.2421699
298,1436963029562,8.84478,1.4862007,-1.1725603
299,1436963029580,10.812215,0.9355343,-1.2485762
300,1436963029601,12.04463,0.33518824,-2.0141222
301,1436963029622,11.623849,-0.089782566,-1.863886
302,1436963029643,9.545682,0.15203181,-0.45609543
303,1436963029664,7.849989,0.4357447,-0.032920275
304,1436963029684,7.339425,0.6075287,-0.019153614
305,1436963029704,6.841431,0.30585927,0.049679685
306,1436963029724,6.771401,-0.40761283,-0.022744916
307,1436963029744,6.6504936,-0.9103952,0.076015905
308,1436963029764,6.47033,-0.7026982,0.110731825
309,1436963029784,6.155493,-0.31423897,0.11851298
310,1436963029804,5.4845176,0.21906945,0.033518825
311,1436963029822,5.1259856,0.415394,-0.034117375
312,1436963029844,5.5030727,0.3657143,-0.05925649
313,1436963029864,6.8013287,0.52073884,0.16340427
314,1436963029884,8.727464,1.0486604,0.31304187
315,1436963029902,10.669162,1.7567455,0.17537527
316,1436963029922,11.922526,2.4600422,0.45429978
317,1436963029943,12.283452,2.3636756,1.0462662
318,1436963029964,13.096882,1.7070658,2.0655975
319,1436963029983,13.749302,1.4969746,2.5288756
320,1436963030002,14.652514,0.9648633,2.327164
321,1436963030022,14.529213,0.6332663,0.729633
322,1436963030044,14.808736,1.5155296,-1.3000516
323,1436963030063,15.047558,2.1972785,-2.6084828
324,1436963030091,14.249091,0.91697925,-2.4366987
325,1436963030102,11.636418,-1.520318,-1.7016789
326,1436963030150,9.139865,-2.3852234,-1.9740193
327,1436963030154,8.465299,-1.3437457,-2.4588451
328,1436963030162,9.222465,0.3286042,-2.7647045
329,1436963030182,10.036493,1.2838906,-3.0256724
330,1436963030204,10.253767,1.0372878,-3.3387144
331,1436963030221,9.835381,0.27234045,-2.5037365
332,1436963030243,8.859743,-0.6194997,-1.1947067
333,1436963030262,7.9571295,-1.074398,-0.40521863
334,1436963030283,7.644686,-0.8888474,-0.27712885
335,1436963030304,7.57286,-0.06464344,0.037708677
336,1436963030324,7.890092,0.4878186,0.22625206
337,1436963030344,8.064868,0.19273324,0.06943185
338,1436963030363,7.8027034,-0.6159084,-0.24540567
339,1436963030384,7.3525934,-1.0636241,-0.44651863
340,1436963030403,7.1742253,-0.75596917,-0.57999533
341,1436963030426,7.1664443,-0.14903906,-0.46327803
342,1436963030442,7.008427,0.044292733,-0.16998832
343,1436963030462,6.754043,-0.43634325,0.12808979
344,1436963030482,6.9240313,-0.9696517,0.5315128
345,1436963030502,7.8116817,-1.1851299,0.7823054
346,1436963030526,9.524733,-1.0241197,0.9403227
347,1436963030542,11.249755,-0.91099375,0.92296475
348,1436963030564,12.108076,-1.4030021,0.85173726
349,1436963030582,12.115259,-1.8674773,1.1067197
350,1436963030606,12.008119,-2.7988217,1.6783354
351,1436963030627,12.494142,-2.5600002,1.7411832
352,1436963030646,13.59727,-1.1312603,1.2066777
353,1436963030665,15.119983,-0.75716627,-0.56323594
354,1436963030685,17.03235,-1.3676877,-1.2252327
355,1436963030704,17.536331,-1.5903485,-2.099715
356,1436963030724,13.498509,-0.61530983,-2.9119477
357,1436963030751,9.817424,1.1258733,-3.0735564
358,1436963030806,7.5806413,2.079364,-2.7844565
359,1436963030807,7.9547353,1.9901801,-2.2918496
360,1436963030808,10.311228,1.6370354,-1.8381484
361,1436963030829,11.90457,1.134253,-1.9907787
362,1436963030841,11.8022175,0.6781576,-2.0141222
363,1436963030861,9.842564,0.47046062,-0.96426475
364,1436963030883,8.789114,0.35553896,-0.52133745
365,1436963030903,7.493851,-0.03232172,0.062249243
366,1436963030922,6.809708,-0.5434838,0.17657238
367,1436963030942,6.389526,-0.8074445,-0.007182605
368,1436963030962,6.3111157,-0.521936,-0.12569559
369,1436963030982,5.847239,0.08140286,-0.39444473
370,1436963031004,5.2343235,0.6398504,-0.49919105
371,1436963031024,5.018845,0.66618663,-0.64583594
372,1436963031046,5.5581393,-0.013766659,-0.42317516
373,1436963031066,6.441001,-0.5422867,0.05925649
374,1436963031085,6.943185,-0.24001873,0.3645172
375,1436963031105,7.583634,1.1162965,0.12988544
376,1436963031125,9.490616,2.4007857,-0.10534488
377,1436963031143,11.92492,3.3183637,0.01316811
378,1436963031165,13.727754,3.4638114,0.6434417
379,1436963031184,14.255675,2.9131448,1.192911
380,1436963031205,14.176068,1.4203602,2.3989902
381,1436963031224,13.034034,0.53330845,2.7712884
382,1436963031245,12.043433,0.78888947,1.6717514
383,1436963031266,12.762891,2.110489,0.39384618
384,1436963031285,15.110406,3.0921116,-1.5562311
385,1436963031317,16.922815,2.4462755,-2.7898436
386,1436963031323,15.963939,0.47884035,-2.7335799
387,1436963031346,11.973403,-1.4101849,-2.1332338
388,1436963031365,7.8182654,-1.893215,-2.0350714
389,1436963031384,6.2123547,-0.9487024,-2.5821466
390,1436963031409,7.4567413,0.5093664,-2.3666685
391,1436963031463,9.367314,1.1073183,-2.3732524
392,1436963031464,10.688913,0.3890578,-2.6030958
393,1436963031465,10.561422,-0.8487445,-2.271499
394,1436963031482,9.978435,-1.3150153,-1.7717092
395,1436963031502,8.265383,-1.4760253,-0.6943185
396,1436963031522,7.104195,-0.700304,-0.0035913025
397,1436963031542,7.2460513,0.39085343,0.23104046
398,1436963031563,8.273763,1.0319009,0.22864626
399,1436963031584,8.967483,0.96067345,-0.075417355
400,1436963031603,8.60117,0.090979666,-0.4950012
401,1436963031624,7.504027,-0.75118077,-0.6757634
402,1436963031671,6.76781,-0.95109665,-0.4237737
403,1436963031672,6.8264675,-0.56443304,-0.24001873
404,1436963031686,7.2023573,-0.17058687,0.0023942017
405,1436963031705,7.423821,-0.23044191,0.24779987
406,1436963031726,7.548918,-0.57999533,0.6560113
407,1436963031746,7.838018,-1.027711,0.9379285
408,1436963031764,8.676587,-1.2437878,1.3186066
409,1436963031786,9.21229,-1.22224,1.5227122
410,1436963031806,10.429143,-1.2485762,2.0165164
411,1436963031826,11.273099,-1.6454151,2.457648
