id,attr_time,attr_x,attr_y,attr_z
1,1436963023610,0.26276365,9.896433,-2.2709002
2,1436963023629,0.17058687,9.820416,-2.2930467
3,1436963023649,0.1604115,9.83957,-2.35769
4,1436963023671,0.2184709,9.865308,-2.356493
5,1436963023689,0.30705637,9.860519,-2.308609
6,1436963023711,0.2681506,9.871892,-2.3505075
7,1436963023729,0.20290859,9.825804,-2.3295584
8,1436963023751,0.20051439,9.858724,-2.319383
9,1436963023769,0.17896658,9.845556,-2.307412
10,1436963023790,0.25198972,9.849147,-2.3020248
11,1436963023809,0.21428105,9.849746,-2.3403323
12,1436963023831,0.1945289,9.845556,-2.3828292
13,1436963023850,0.18914193,9.844358,-2.3397336
14,1436963023871,0.207697,9.8515415,-2.319383
15,1436963023906,0.19632454,9.87668,-2.3062148
16,1436963023908,0.22026655,9.87668,-2.2990322
17,1436963023928,0.27114335,9.860519,-2.3319526
18,1436963023948,0.25917232,9.85214,-2.321777
19,1436963023977,0.18794483,9.832987,-2.3301568
20,1436963024020,0.22445641,9.880871,-2.3343468
21,1436963024021,0.23463176,9.8677025,-2.2888567
22,1436963024032,0.22325931,9.849746,-2.2870612
23,1436963024052,0.18016368,9.849147,-2.3397336
24,1436963024068,0.2088941,9.821614,-2.3199813
25,1436963024088,0.22146365,9.900622,-2.3229742
26,1436963024108,0.23104046,9.884461,-2.296638
27,1436963024129,0.2753332,9.868899,-2.2780828
28,1436963024150,0.31244332,9.933543,-2.2655134
29,1436963024172,0.19572599,9.774927,-2.3307555
30,1436963024188,0.13227965,9.816227,-2.3600843
31,1436963024209,0.1921347,9.836577,-2.3570917
32,1436963024229,0.17477672,9.834782,-2.3145945
33,1436963024248,0.17717093,9.868899,-2.348712
34,1436963024269,0.18555063,9.837176,-2.3421278
35,1436963024292,0.22625206,9.853935,-2.345719
36,1436963024312,0.2184709,9.853337,-2.3463178
37,1436963024332,0.17956513,9.84795,-2.3199813
38,1436963024352,0.17776948,9.838373,-2.3229742
39,1436963024371,0.2124854,9.834782,-2.3157916
40,1436963024390,0.23163901,9.859323,-2.3361423
41,1436963024412,0.19931729,9.870096,-2.3529017
42,1436963024432,0.19991584,9.849147,-2.3654714
43,1436963024452,0.20171149,9.864111,-2.328361
44,1436963024470,0.18016368,9.86471,-2.3415294
45,1436963024492,0.14604631,9.841366,-2.3630772
46,1436963024512,0.18195933,9.855133,-2.3834279
47,1436963024532,0.23702596,9.853935,-2.3558946
48,1436963024552,0.20410569,9.838972,-2.3295584
49,1436963024570,0.1921347,9.838373,-2.3307555
50,1436963024590,0.17238252,9.821614,-2.3199813
51,1436963024610,0.18974048,9.889849,-2.344522
52,1436963024631,0.19692309,9.8437605,-2.3523033
53,1436963024652,0.18255788,9.831191,-2.348712
54,1436963024672,0.16280572,9.868899,-2.32058
55,1436963024690,0.1316811,9.835979,-2.3427265
56,1436963024709,0.10055647,9.806051,-2.3654714
57,1436963024746,0.15442601,9.849746,-2.3612814
58,1436963024749,0.17956513,9.862914,-2.3133974
59,1436963026175,0.18375498,9.865907,-2.2774844
60,1436963026176,0.18315643,9.873089,-2.3122003
61,1436963026177,0.16519992,9.853337,-2.3558946
62,1436963026178,0.17178397,9.838373,-2.3588872
63,1436963026179,0.15622166,9.843162,-2.3343468
64,1436963026180,0.2124854,9.845556,-2.3139958
65,1436963026181,0.16280572,9.83957,-2.337938
66,1436963026182,0.17956513,9.874885,-2.3122003
67,1436963026183,0.1400608,9.850345,-2.3199813
68,1436963026184,0.15203181,9.861717,-2.3511062
69,1436963026185,0.1364695,9.860519,-2.3253684
70,1436963026186,0.1448492,9.859921,-2.348712
71,1436963026187,0.1448492,9.856929,-2.3469162
72,1436963026188,0.16819267,9.863512,-2.331354
73,1436963026189,0.14425065,9.855731,-2.344522
74,1436963026190,0.17178397,9.848549,-2.3127987
75,1436963026191,0.21428105,9.846154,-2.2649148
76,1436963026192,0.16819267,9.818622,-2.2798786
77,1436963026193,0.15562311,9.862315,-2.3295584
78,1436963026194,0.18614918,9.86471,-2.344522
79,1436963026195,0.19931729,9.873089,-2.3301568
80,1436963026196,0.16280572,9.850943,-2.32058
81,1436963026197,0.09636662,9.837176,-2.3481133
82,1436963026198,0.15263036,9.817424,-2.3505075
83,1436963026199,0.15861586,9.745598,-2.3127987
84,1436963026200,0.01316811,9.807847,-2.4223335
85,1436963026201,-0.26396075,9.929353,-2.4851813
86,1436963026202,0.32022446,9.964667,-2.2780828
87,1436963026203,0.3824737,9.835381,-2.1278467
88,1436963026204,0.1376666,9.842564,-2.3175871
89,1436963026205,0.06404489,9.82341,-2.520496
90,1436963026206,0.19632454,9.855731,-2.4289176
91,1436963026207,0.25198972,9.883863,-2.4169466
92,1436963026208,0.16998832,9.865308,-2.3702598
93,1436963026209,0.053869538,9.849147,-2.3828292
94,1436963026210,0.05327099,9.833585,-2.397793
95,1436963026211,0.1364695,9.825205,-2.3959973
96,1436963026212,0.14664486,9.817424,-2.372654
97,1436963026213,0.16340427,9.844358,-2.3475149
98,1436963026214,0.15801731,9.853935,-2.3540988
99,1436963026215,0.17058687,9.840169,-2.3546975
100,1436963026216,0.14784196,9.818622,-2.3948002
101,1436963026217,0.2124854,9.855731,-2.3361423
102,1436963026218,0.20051439,9.873089,-2.3624785
103,1436963026219,0.1448492,9.882068,-2.3750482
104,1436963026220,0.17118542,9.847352,-2.3756466
105,1436963026221,0.18435353,9.829993,-2.3834279
106,1436963026222,0.19153613,9.816227,-2.348712
107,1436963026223,0.16101007,9.845556,-2.3403323
108,1436963026224,0.20231004,9.848549,-2.31639
109,1436963026225,0.18375498,9.835381,-2.3361423
110,1436963026226,0.130484,9.816227,-2.2984335
111,1436963026227,0.10654198,9.841366,-2.3253684
112,1436963026228,0.11911154,9.844957,-2.3762453
113,1436963026229,0.20470424,9.844358,-2.368464
114,1436963026230,0.18136078,9.827001,-2.3906105
115,1436963026231,0.17357962,9.828198,-2.3780408
116,1436963026232,0.12030864,9.834184,-2.3517046
117,1436963026233,0.15263036,9.834184,-2.3493104
118,1436963026234,0.15203181,9.85214,-2.3834279
119,1436963026235,0.19273324,9.864111,-2.3983915
120,1436963026236,0.18375498,9.848549,-2.3876176
121,1436963026237,0.1364695,9.838373,-2.3852234
122,1436963026238,0.2220622,9.834184,-2.3768437
123,1436963026239,0.15083471,9.83957,-2.3744495
124,1436963026240,0.15502456,9.8276,-2.3642743
125,1436963026241,0.16699557,9.837775,-2.3588872
126,1436963026242,0.1448492,9.865907,-2.379238
127,1436963026243,0.15861586,9.829395,-2.415151
128,1436963026244,0.20290859,9.82341,-2.3714569
129,1436963026245,0.17118542,9.831789,-2.4181437
130,1436963026246,0.16101007,9.835979,-2.4037786
131,1436963026247,0.16998832,9.8515415,-2.3720553
132,1436963026248,0.18914193,9.821015,-2.3636756
133,1436963026249,0.18315643,9.838972,-2.3720553
134,1436963026269,0.11611878,9.808446,-2.4079683
135,1436963026289,0.14544775,9.83957,-2.4157495
136,1436963026309,0.22266077,9.846753,-2.3678656
137,1436963026329,0.207697,9.8515415,-2.3475149
138,1436963026349,0.16460137,9.841965,-2.3864205
139,1436963026369,0.14604631,9.834782,-2.4396915
140,1436963026389,0.20171149,9.820416,-2.4480712
141,1436963026409,0.18016368,9.848549,-2.385822
142,1436963026429,0.18854338,9.841366,-2.4181437
143,1436963026449,0.16400282,9.821614,-2.3870192
144,1436963026469,0.17058687,9.845556,-2.3948002
145,1436963026492,0.17776948,9.840768,-2.3774424
146,1436963026514,0.19931729,9.836577,-2.3720553
147,1436963026534,0.16340427,9.837775,-2.3900118
148,1436963026554,0.14604631,9.843162,-2.3840263
149,1436963026575,0.16160862,9.850943,-2.4115596
150,1436963026592,0.18794483,9.84795,-2.40318
151,1436963026613,0.16879122,9.83957,-2.3786395
152,1436963026633,0.16519992,9.811439,-2.3810337
153,1436963026654,0.19093758,9.820416,-2.3636756
154,1436963026674,0.17836803,9.840768,-2.3822308
155,1436963026692,0.16998832,9.845556,-2.409764
156,1436963026712,0.16460137,9.802461,-2.4349031
157,1436963026792,0.12749124,9.830592,-2.4313118
158,1436963026793,0.17118542,9.825205,-2.3930047
159,1436963026796,0.17298107,9.836577,-2.4169466
160,1436963026797,0.14844051,9.824607,-2.381632
161,1436963026813,0.15023616,9.812037,-2.372654
162,1436963026834,0.10594343,9.802461,-2.4492683
163,1436963026851,-0.0023942017,9.679757,-2.516306
164,1436963026871,0.024540568,9.785102,-2.4678235
165,1436963026896,0.30346507,10.081984,-2.337938
166,1436963026914,0.57041854,9.880871,-2.2559366
167,1436963026933,0.3453636,9.818023,-2.3157916
168,1436963026952,0.09935937,9.830592,-2.4875755
169,1436963026974,0.24420857,9.840768,-2.4193408
170,1436963026992,0.30166942,9.809643,-2.3307555
171,1436963027012,0.24899697,9.867104,-2.408567
172,1436963027035,0.1448492,9.817424,-2.4193408
173,1436963027054,0.12509704,9.8042555,-2.492364
174,1436963027074,0.15741876,9.844358,-2.4660277
175,1436963027092,0.14065935,9.789292,-2.40318
176,1436963027114,0.044292733,9.735423,-2.5145104
177,1436963027135,-0.11252748,9.676167,-2.5306711
178,1436963027158,0.15382746,9.7162695,-2.379238
179,1436963027180,0.41240123,9.907805,-2.3535004
180,1436963027191,0.18016368,9.727043,-2.4690206
181,1436963027222,-0.11731588,9.798869,-2.4181437
182,1436963027232,-0.002992752,9.920973,-2.6013002
183,1436963027254,0.3489549,9.570822,-2.2068555
184,1436963027274,0.47764325,9.743802,-2.2014685
185,1436963027292,-0.09696517,9.779117,-2.397793
186,1436963027312,-0.52732295,9.800665,-2.7485435
187,1436963027333,0.7212533,9.599552,-2.5701754
188,1436963027354,2.0578163,9.856929,-2.1613655
189,1436963027375,1.5813702,9.737218,-1.9231426
190,1436963027394,1.0085574,9.7958765,-2.010531
191,1436963027413,0.7703344,10.254366,-2.4313118
192,1436963027442,0.9768343,10.01734,-2.5582044
193,1436963027497,1.1438298,9.983223,-2.380435
194,1436963027498,0.96905315,10.30225,-2.7736826
195,1436963027499,0.6386533,9.969456,-3.164536
196,1436963027516,0.23104046,9.326612,-3.4422636
197,1436963027535,-0.19512744,9.45171,-3.2998085
198,1436963027560,-0.25677812,10.020332,-2.854487
199,1436963027577,-0.049081136,10.052056,-3.105878
200,1436963027592,0.29149407,9.901819,-3.0621839
201,1436963027612,0.96426475,9.744401,-2.6659436
202,1436963027633,0.533907,9.63726,-2.5486276
203,1436963027654,0.3669114,9.93474,-2.6964695
204,1436963027673,0.54887074,10.0029745,-2.8203697
205,1436963027692,1.134253,9.749189,-2.5103204
206,1436963027712,1.2366052,9.612122,-2.0919337
207,1436963027735,0.84335756,9.754577,-2.1829133
208,1436963027755,0.7846996,9.869498,-2.3481133
209,1436963027776,1.0115502,9.725846,-2.4223335
210,1436963027795,0.79726917,9.622296,-2.2523453
211,1436963027815,0.82480246,9.727043,-2.1254525
212,1436963027835,1.0187328,9.572019,-1.9428947
213,1436963027855,1.3269863,9.405023,-2.1547816
214,1436963027876,1.3509283,9.640253,-2.1188686
215,1436963027895,1.34195,9.956886,-2.1164744
216,1436963027914,1.9752164,9.853337,-1.6412252
217,1436963027935,2.415151,10.0508585,-1.192911
218,1436963027955,1.9985598,9.910199,-2.195483
219,1436963027975,1.6466122,10.45069,-2.617461
220,1436963027995,2.7617116,11.956643,-2.0961237
221,1436963028015,2.879626,12.125435,-1.8118122
222,1436963028035,3.0232782,12.784438,-1.5664065
223,1436963028055,1.785476,13.176489,-1.869273
224,1436963028076,1.3934253,15.501858,-1.8770541
225,1436963028095,-0.5177461,16.910246,-1.1749545
226,1436963028115,-2.8963854,17.039534,-2.295441
227,1436963028135,-4.9320555,15.549742,-2.9658175
228,1436963028159,-5.1876364,13.22976,-3.6816838
229,1436963028381,-1.6286557,12.675503,-3.8217444
230,1436963028382,4.799776,15.934609,-3.1950622
231,1436963028383,12.37084,14.148535,-1.3036429
232,1436963028384,10.529699,16.034567,1.7184383
233,1436963028385,9.705495,16.25663,0.0035913025
234,1436963028386,9.138069,14.143746,-1.3850456
235,1436963028387,9.010578,13.402741,-1.0175357
236,1436963028388,7.4322004,10.771513,1.6903064
237,1436963028389,5.4982843,7.6351094,0.62728083
238,1436963028390,1.8154035,4.975151,0.43873745
239,1436963028391,-1.8602947,2.355296,0.7769185
240,1436963028417,-2.5246856,1.7363948,0.17836803
241,1436963028418,-2.40318,2.131438,0.8379706
242,1436963028432,-2.106299,1.5209166,1.7244238
243,1436963028462,-1.7729063,0.0047884034,2.2631192
244,1436963028481,-0.6560113,-0.11552023,1.1629834
245,1436963028502,-1.2018893,-0.4333505,0.8619126
246,1436963028515,0.6931214,-0.6548142,1.4059949
247,1436963028537,2.4791958,-0.10055647,2.030283
248,1436963028556,5.294777,0.75596917,2.5019407
249,1436963028575,10.395624,3.1824925,2.0638018
250,1436963028595,17.168821,5.9477954,-0.12509704
251,1436963028612,19.607914,3.8373067,5.533599
252,1436963028634,19.607914,19.289484,-17.460314
253,1436963028656,-8.477868,6.6247563,14.717756
254,1436963028676,0.06823475,-0.29209262,-3.9414546
255,1436963028696,0.6805518,12.296021,4.262876
256,1436963028716,5.744887,3.244742,-0.6973112
257,1436963028738,10.951677,14.52622,-1.2036849
258,1436963028755,8.252813,15.183429,3.5511997
259,1436963028775,1.9812019,7.6931686,-1.3784616
260,1436963028794,5.5270147,10.067618,-0.6099229
261,1436963028814,6.1985884,10.012551,1.2198458
262,1436963028835,6.2063694,8.843582,-0.5105635
263,1436963028858,5.767632,10.155006,-1.1498153
264,1436963028878,4.5040917,9.68694,-1.110311
265,1436963028898,3.1280246,9.821015,-1.7902644
266,1436963028916,2.4049757,10.972627,-1.5059528
267,1436963028934,3.1603463,10.654198,-0.83617496
268,1436963028955,2.5761611,10.006566,-1.043872
269,1436963028976,0.7248446,9.712079,-1.3994108
270,1436963028995,-0.3549404,9.044097,-2.195483
271,1436963029014,-0.37948096,8.022371,-2.4666264
272,1436963029085,-0.051475335,7.9876556,-1.8106151
273,1436963029086,1.3401544,8.441357,-2.0614076
274,1436963029087,1.9351135,9.345766,-2.1649568
275,1436963029095,1.520318,9.946711,-1.9416976
276,1436963029116,0.93493575,11.105505,-2.0440497
277,1436963029137,0.7284359,12.076353,-1.887828
278,1436963029157,1.2725182,12.728773,-2.0290859
279,1436963029175,2.0727801,12.956223,-0.8972271
280,1436963029196,2.7168205,13.463195,-0.19512744
281,1436963029223,1.3748703,14.580688,0.08798691
282,1436963029249,-1.1133038,15.528193,-0.31783026
283,1436963029260,-3.6332011,16.874334,-2.1733365
284,1436963029280,-4.3514614,17.439365,-2.0961237
285,1436963029293,-5.228338,15.239094,-2.2092497
286,1436963029313,-3.240552,13.809755,-2.6635494
287,1436963029333,0.2681506,15.004462,-4.6339774
288,1436963029353,6.0172276,15.95077,-6.0639143
289,1436963029377,14.093469,17.599178,0.59017074
290,1436963029396,16.47151,18.97824,0.46447513
291,1436963029417,10.836756,14.656704,0.010773907
292,1436963029437,8.854357,13.057378,-1.0654198
293,1436963029457,7.162853,11.856686,-0.5386954
294,1436963029477,1.6065093,6.7743936,-0.17058687
295,1436963029496,-0.866701,3.321955,-0.5494693
296,1436963029517,-1.3682863,-0.17896658,-0.046088383
297,1436963029537,-1.8986019,-0.17776948,-0.5662287
298,1436963029556,-2.867655,0.98581254,-0.33518824
299,1436963029577,-2.3756466,0.66379243,0.010175358
300,1436963029595,-1.3652935,-0.50038815,1.0953473
301,1436963029617,0.37349546,-0.93972415,0.63206923
302,1436963029637,-0.8158242,-0.089184016,0.7990648
303,1436963029657,2.0129251,-0.089184016,0.94211835
304,1436963029674,4.620809,1.8405426,2.8042088
305,1436963029696,7.9086466,3.828927,3.7469256
306,1436963029715,11.943475,4.84766,3.6942532
307,1436963029736,15.008054,5.6700683,4.084508
308,1436963029755,15.413272,6.508039,2.1930888
309,1436963029778,15.336658,3.4566288,2.35769
310,1436963029844,19.607914,15.875353,-13.39077
311,1436963029845,1.0462662,11.4915695,0.89184016
312,1436963029846,-3.1711202,6.3218894,0.5518635
313,1436963029854,8.786121,17.633894,6.1088057
314,1436963029879,4.0898952,7.282563,4.785411
315,1436963029895,3.7630866,8.02716,-3.5344403
316,1436963029915,8.338406,10.015544,-0.93254155
317,1436963029948,7.088034,8.426393,3.2956185
318,1436963029955,3.1830912,8.177396,-1.6346412
319,1436963029975,4.7429137,9.566631,-2.0308816
320,1436963029996,6.077681,10.873865,0.38965634
321,1436963030017,5.421071,10.184934,-0.29568392
322,1436963030034,4.27365,9.546281,-0.7182605
323,1436963030057,3.2010477,10.778097,-1.021127
324,1436963030077,2.3211784,10.307637,-1.5406688
325,1436963030097,3.0142999,10.209475,-0.23463176
326,1436963030117,2.8766334,11.155185,-0.670975
327,1436963030137,2.2200236,10.869676,-1.6801311
328,1436963030158,2.2852654,10.044274,-1.38325
329,1436963030176,1.543063,10.3214035,-1.8740613
330,1436963030194,0.26276365,8.891466,-2.154183
331,1436963030216,-0.65301853,8.041525,-1.9512744
332,1436963030236,-0.61171854,8.117541,-2.2439656
333,1436963030256,0.83737206,8.632893,-3.4674027
334,1436963030276,1.7579426,9.416395,-2.332551
335,1436963030297,1.4700398,9.730635,-1.7645266
336,1436963030317,-0.7038953,9.781511,-2.042254
337,1436963030337,-1.8728642,10.866683,-2.1452048
338,1436963030358,-1.2515689,11.735778,-1.99437
339,1436963030377,-0.2136825,12.249334,-1.6232687
340,1436963030398,0.7769185,12.881404,-2.219425
341,1436963030418,2.2409728,12.592902,-1.7465701
342,1436963030437,2.6898856,12.785636,-0.82599956
343,1436963030457,1.8848352,13.687651,-1.4335283
344,1436963030477,0.51475334,15.116989,-2.5731683
345,1436963030502,-2.6210523,17.606958,-1.8992004
346,1436963030570,-5.979519,17.609354,-1.3928268
347,1436963030576,-7.9750857,14.955381,-1.1145009
348,1436963030577,-5.7664347,13.608044,-2.861071
349,1436963030578,-0.84335756,15.118785,-5.928642
350,1436963030598,4.080917,12.620436,-4.437653
351,1436963030620,10.977415,13.633781,-0.81343
352,1436963030635,15.433024,17.542316,-1.1659763
353,1436963030655,12.741343,15.986683,0.094570965
354,1436963030677,11.517307,13.82831,0.28909984
355,1436963030697,10.133459,13.883976,-1.721431
356,1436963030719,6.735488,11.049839,-0.9091981
357,1436963030736,2.6114755,7.583634,0.23762453
358,1436963030758,-1.2749124,4.3406878,-0.3812766
359,1436963030778,-3.5793316,1.1420342,-1.151611
360,1436963030799,-4.322731,-1.0791864,-0.12569559
361,1436963030819,-3.1711202,-1.2797008,0.11611878
362,1436963030838,-2.4516625,0.3788824,0.44232875
363,1436963030858,-2.2050598,0.31124622,1.6621746
364,1436963030878,0.599149,-0.6817489,1.1552023
365,1436963030898,0.82599956,1.0313023,1.3652935
366,1436963030919,2.956839,1.513734,2.6982653
367,1436963030938,7.9792757,2.3660698,3.5673606
368,1436963030956,13.048998,4.8626237,2.2397757
369,1436963030978,16.084846,7.080253,1.3257892
370,1436963030998,15.796344,5.852626,0.866701
371,1436963031017,19.607914,0.15382746,-3.4159272
372,1436963031037,15.853806,16.230293,-2.373851
373,1436963031057,-10.893618,2.789245,5.720945
374,1436963031078,13.059772,8.255207,0.15801731
375,1436963031099,1.6214731,15.526997,4.919486
376,1436963031119,3.157952,7.076063,-3.9504328
377,1436963031138,9.044097,12.460623,0.18195933
378,1436963031158,7.9289975,8.365341,4.4843397
379,1436963031176,3.6044707,9.551069,0.0724246
380,1436963031199,3.5978866,11.075577,-2.4253263
381,1436963031317,5.6790466,10.330381,0.36511576
382,1436963031318,5.8262897,10.38066,0.046686932
383,1436963031319,5.8292828,9.097368,-1.3563153
384,1436963031320,5.2959743,9.464279,-1.1372458
385,1436963031321,4.5567646,9.862315,-1.1145009
386,1436963031322,2.8101943,11.174936,-1.2970588
387,1436963031336,2.5139117,12.083536,-1.9327193
388,1436963031355,1.5927427,11.647791,-1.4335283
389,1436963031376,0.45370123,10.498574,-1.5711949
390,1436963031400,0.28909984,9.612122,-1.5191209
391,1436963031416,0.4369418,8.395866,-1.774702
392,1436963031436,0.11731588,7.5351515,-1.6639702
393,1436963031456,0.31603462,7.2741833,-2.0027497
394,1436963031477,1.3144168,7.9990277,-2.556409
395,1436963031498,2.6701334,9.072827,-1.6711528
396,1436963031519,2.4408886,9.385869,-1.2892777
397,1436963031539,1.3263878,9.647436,-1.9189527
398,1436963031559,0.33518824,10.088568,-2.3888147
399,1436963031579,0.60333884,11.380837,-2.071583
400,1436963031599,2.1057005,13.18008,-1.7729063
401,1436963031647,2.641403,13.752893,-1.1785458
402,1436963031648,2.0362685,14.426861,-0.9792285
403,1436963031657,0.88166475,15.444397,-0.009576807
404,1436963031679,-1.3036429,16.303316,-1.2725182
405,1436963031696,-4.964976,16.035166,-2.2409728
406,1436963031719,-7.8625584,13.876195,-3.256713
407,1436963031739,-7.2406645,13.651139,-3.0184898
408,1436963031759,-1.5777789,15.542559,-3.6373909
409,1436963031779,3.1376014,15.006258,-4.261679
410,1436963031797,8.921394,12.919112,-2.8532898
411,1436963031819,11.448474,15.768212,1.0899603
412,1436963031838,10.976217,17.61474,-0.80804306
