id,attr_time,attr_x,attr_y,attr_z
1,1437067245642,-1.1198878,9.891046,2.433706
2,1437067245643,-1.1641805,9.858724,2.4025815
3,1437067245644,-1.18094,9.846154,2.3708582
4,1437067245660,-1.151611,9.818622,2.3810337
5,1437067245677,-1.1474211,9.81503,2.3930047
6,1437067245699,-1.1198878,9.877279,2.3959973
7,1437067245717,-1.1234791,9.88925,2.3894134
8,1437067245737,-1.1073183,9.88506,2.381632
9,1437067245759,-1.0737995,9.903017,2.392406
10,1437067245779,-1.0636241,9.871294,2.3828292
11,1437067245798,-1.0648212,9.866506,2.3876176
12,1437067245818,-1.0833763,9.872491,2.3732524
13,1437067245839,-1.0809821,9.869498,2.379238
14,1437067245859,-1.0851719,9.873688,2.4193408
15,1437067245880,-1.110311,9.896433,2.409764
16,1437067245900,-1.1354501,9.895236,2.415151
17,1437067245920,-1.1264719,9.888652,2.4133554
18,1437067245940,-1.1540052,9.871892,2.3971944
19,1437067245960,-1.1575965,9.876082,2.3774424
20,1437067245980,-1.1474211,9.873688,2.380435
21,1437067246000,-1.110311,9.838972,2.384625
22,1437067246020,-1.1055226,9.862914,2.3900118
23,1437067246039,-1.1025299,9.870695,2.3774424
24,1437067246058,-1.103727,9.861717,2.4133554
25,1437067246080,-1.0947487,9.880272,2.428319
26,1437067246100,-1.1240777,9.8916445,2.4241292
27,1437067246120,-1.115698,9.876082,2.4073699
28,1437067246138,-1.1115081,9.862914,2.4289176
29,1437067246160,-1.0696096,9.8437605,2.4289176
30,1437067246180,-1.0779893,9.840768,2.4289176
31,1437067246201,-1.0995371,9.838373,2.420538
32,1437067246221,-1.0911574,9.886856,2.416348
33,1437067246240,-1.0684125,9.835979,2.3995886
34,1437067246258,-1.06123,9.813833,2.4355016
35,1437067246279,-1.0881647,9.835979,2.4265234
36,1437067246298,-1.1264719,9.81084,2.3822308
37,1437067246319,-1.1150994,9.828198,2.368464
38,1437067246368,-1.1204864,9.822811,2.3948002
39,1437067246369,-1.0881647,9.818622,2.4259248
40,1437067246405,-1.0528502,9.848549,2.4378958
41,1437067246406,-1.0666169,9.866506,2.4115596
42,1437067246418,-1.0839748,9.872491,2.4193408
43,1437067246441,-1.0851719,9.88506,2.4378958
44,1437067246458,-1.0660183,9.865308,2.4145525
45,1437067246478,-1.0726024,9.85633,2.3983915
46,1437067246511,-1.0690111,9.864111,2.3870192
47,1437067246528,-1.055843,9.86471,2.368464
48,1437067246538,-1.0456676,9.921572,2.3397336
49,1437067246558,-1.0923545,9.916184,2.368464
50,1437067246578,-1.0726024,9.934141,2.368464
51,1437067246615,-1.0803835,9.9233675,2.3690627
52,1437067246619,-1.0875661,9.968858,2.3523033
53,1437067246638,-1.0935516,9.921572,2.3702598
54,1437067246658,-1.0702082,9.901221,2.3678656
55,1437067246680,-1.0720038,9.873089,2.3930047
56,1437067246699,-1.1168951,9.821614,2.40318
57,1437067246719,-1.1312603,9.794679,2.4121583
58,1437067246741,-1.1390414,9.782109,2.3882163
59,1437067246761,-1.1061212,9.768343,2.405574
60,1437067246779,-1.0755951,9.760562,2.4259248
61,1437067246799,-1.0360907,9.7719345,2.4253263
62,1437067246821,-1.0217255,9.782109,2.4355016
63,1437067246840,-1.0139444,9.81503,2.4331074
64,1437067246861,-1.039682,9.838972,2.457648
65,1437067246878,-1.0408791,9.859921,2.4450784
66,1437067246901,-1.0827777,9.886257,2.4277205
67,1437067246922,-1.1145009,9.892242,2.4067712
68,1437067246942,-1.1605892,9.89763,2.4193408
69,1437067246959,-1.1935096,9.894637,2.396596
70,1437067246980,-1.2306197,9.84795,2.372654
71,1437067246999,-1.2515689,9.844358,2.3505075
72,1437067247019,-1.2605472,9.8515415,2.321777
73,1437067247039,-1.2575544,9.888652,2.3529017
74,1437067247059,-1.2617443,9.906608,2.3469162
75,1437067247110,-1.2395979,9.886257,2.3624785
76,1437067247111,-1.2084733,9.929353,2.3331497
77,1437067247128,-1.2054806,9.862315,2.3654714
78,1437067247138,-1.2108675,9.921572,2.3451207
79,1437067247162,-1.252766,9.91798,2.3259668
80,1437067247180,-1.234211,9.923966,2.3056161
81,1437067247200,-1.2072762,9.890448,2.3624785
82,1437067247220,-1.1575965,9.85633,2.3995886
83,1437067247240,-1.1121067,9.874287,2.3750482
84,1437067247261,-1.115698,9.896433,2.3289597
85,1437067247279,-1.1605892,9.8754835,2.3265655
86,1437067247299,-1.1719618,9.888053,2.348712
87,1437067247319,-1.1719618,9.892841,2.3469162
88,1437067247342,-1.2228385,9.89763,2.3600843
89,1437067247362,-1.2156559,9.881469,2.3391352
90,1437067247382,-1.2252327,9.864111,2.3265655
91,1437067247402,-1.22224,9.886257,2.319383
92,1437067247419,-1.1887212,9.838972,2.3229742
93,1437067247440,-1.1127052,9.831789,2.3493104
94,1437067247459,-1.1198878,9.8683,2.3295584
95,1437067247480,-1.0223241,9.89344,2.2996306
96,1437067247502,-0.9540894,9.964667,2.336741
97,1437067247520,-0.9235633,9.867104,2.3995886
98,1437067247540,-0.86251116,9.804854,2.3959973
99,1437067247562,-0.94810385,9.936536,2.3145945
100,1437067247582,-0.98700964,9.78989,2.2906525
101,1437067247602,-0.85652566,9.753379,2.2655134
102,1437067247619,-0.7589619,9.798869,2.3002293
103,1437067247641,-0.7140707,9.802461,2.3403323
104,1437067247661,-0.8038532,9.864111,2.3235726
105,1437067247680,-1.0019734,9.898827,2.297835
106,1437067247700,-1.1677719,9.884461,2.247557
107,1437067247722,-1.2982559,9.964667,2.1996727
108,1437067247739,-1.3108255,9.997588,2.2307975
109,1437067247761,-1.2479776,10.020931,2.2637177
110,1437067247779,-1.1629834,10.014946,2.2816741
111,1437067247844,-1.0456676,9.992201,2.3056161
112,1437067247845,-0.9091981,10.016742,2.256535
113,1437067247846,-0.7835025,9.923966,2.190096
114,1437067247862,-0.6428431,9.919776,2.2230163
115,1437067247879,-0.5386954,9.931149,2.2134395
116,1437067247899,-0.55844754,9.965864,2.2463598
117,1437067247919,-0.8110358,10.022727,2.2822728
118,1437067247946,-1.1246762,9.988011,2.260725
119,1437067247959,-1.3742718,9.9951935,2.2511482
120,1437067247980,-1.5580268,9.961675,2.2750902
121,1437067248007,-1.5921441,9.94312,2.2451627
122,1437067248020,-1.4676456,9.912594,2.256535
123,1437067248042,-1.2808979,9.878476,2.2188265
124,1437067248062,-1.0845734,9.892242,2.2523453
125,1437067248080,-0.9768343,9.8754835,2.2385786
126,1437067248102,-0.8996213,9.833585,2.2469583
127,1437067248122,-0.80564886,9.836577,2.2529438
128,1437067248142,-0.8002619,9.807847,2.2403743
129,1437067248163,-0.7870938,9.796474,2.1811178
130,1437067248180,-0.84455466,9.815628,2.135628
131,1437067248203,-0.92296475,9.8683,2.1080947
132,1437067248222,-1.0217255,10.073005,2.1440077
133,1437067248245,-1.1246762,10.201095,2.2457612
134,1437067248263,-1.1528081,10.1460285,2.432509
135,1437067248286,-1.0749966,10.125677,2.4774003
136,1437067248300,-1.1282675,9.939528,2.4666264
137,1437067248325,-1.1935096,9.842564,2.315193
138,1437067248343,-1.3006501,9.779117,2.1883004
139,1437067248360,-1.3706805,9.754577,2.147599
140,1437067248379,-1.3910311,9.829395,2.1697452
141,1437067248400,-1.3341689,9.869498,2.2864625
142,1437067248426,-1.2282255,10.015544,2.3505075
143,1437067248440,-1.1091139,10.033501,2.4247277
144,1437067248460,-1.01574,10.04607,2.4187422
145,1437067248481,-0.9768343,9.988011,2.4145525
146,1437067248504,-0.89782566,9.952697,2.3750482
147,1437067248555,-0.88046765,9.929952,2.319383
148,1437067248556,-0.9504981,9.858724,2.3558946
149,1437067248560,-1.0474633,9.853337,2.4313118
150,1437067248580,-1.1749545,9.904214,2.48159
151,1437067248601,-1.2378023,9.838373,2.5767596
152,1437067248622,-1.163582,9.7084875,2.6683378
153,1437067248640,-0.9720459,9.616311,2.7569232
154,1437067248661,-0.7793127,9.564238,2.943671
155,1437067248680,-0.59136784,9.631873,3.17531
156,1437067248704,-0.53809685,9.811439,3.4518404
157,1437067248722,-0.5895722,9.988011,3.7247794
158,1437067248741,-0.6811504,10.168175,3.8187518
159,1437067248760,-0.79966336,10.317812,3.8067808
160,1437067248783,-0.8936358,10.195109,3.6499605
161,1437067248803,-0.8559271,9.841366,3.5392287
162,1437067248822,-0.65780693,9.566033,3.2968156
163,1437067248842,-0.5315128,9.268554,3.120842
164,1437067248863,-0.52073884,9.003395,3.1346085
165,1437067248882,-0.599149,8.871715,3.1453824
166,1437067248903,-0.78649527,8.804078,3.2202013
167,1437067248923,-0.9696517,8.852561,3.2752678
168,1437067248942,-1.1881226,8.934562,3.3530796
169,1437067248965,-1.436521,9.012374,3.3704374
170,1437067248983,-1.5167267,9.115324,3.4207156
171,1437067249002,-1.4514848,9.181165,3.459023
172,1437067249026,-1.3844471,9.136273,3.4757824
173,1437067249046,-1.2689269,9.149442,3.401562
174,1437067249062,-1.2000936,9.156026,3.3147724
175,1437067249080,-1.186327,9.147646,3.2489316
176,1437067249100,-1.1911154,9.101558,3.153762
177,1437067249120,-1.2826935,9.056666,3.0496144
178,1437067249147,-1.3772645,9.102755,2.9442697
179,1437067249162,-1.400608,9.16261,2.8814218
180,1437067249182,-1.3790601,9.269152,2.903568
181,1437067249202,-1.2826935,9.465476,2.9981391
182,1437067249224,-1.2665327,9.655815,3.1082723
183,1437067249275,-1.2228385,9.639654,3.1842883
184,1437067249276,-1.0827777,9.438541,3.2812533
185,1437067249298,-0.94930094,9.337985,3.345897
186,1437067249300,-0.94451255,9.232041,3.4243069
187,1437067249322,-0.8810662,9.105149,3.3961751
188,1437067249343,-0.99179804,10.177153,2.8455088
189,1437067249360,-1.3694834,11.667543,2.171541
190,1437067249382,-0.98700964,12.376825,2.384625
191,1437067249401,-0.23463176,11.712435,2.7012582
192,1437067249426,0.7374141,11.19828,1.8872294
193,1437067249440,1.0869676,10.478823,1.4586674
194,1437067249464,1.1492168,10.097546,1.2066777
195,1437067249481,1.567005,10.7912655,0.75118077
196,1437067249504,2.2307975,11.560403,0.6560113
197,1437067249525,2.700061,12.525865,0.5201403
198,1437067249543,2.6509798,12.368446,1.4580688
199,1437067249564,2.3463178,11.098921,2.7018566
200,1437067249585,1.95307,10.159795,3.1142578
201,1437067249601,1.3347675,9.361927,2.4947581
202,1437067249623,1.050456,8.55987,1.395221
203,1437067249643,1.3479356,8.021772,0.7338228
204,1437067249664,1.7459716,7.902063,0.6751649
205,1437067249683,1.87047,8.009203,0.6584055
206,1437067249703,1.6645688,8.206725,0.5117606
207,1437067249725,1.3796587,8.411429,0.36511576
208,1437067249745,1.2443863,8.254609,0.66618663
209,1437067249764,1.46585,8.00621,1.0714053
210,1437067249784,1.8776526,8.104373,1.4359225
211,1437067249803,2.112883,8.274361,1.7052702
212,1437067249823,2.0189106,8.453926,1.8405426
213,1437067249841,1.685518,8.622718,1.6783354
214,1437067249865,1.4718355,8.67958,1.5676036
215,1437067249885,1.0169371,8.771756,1.4287399
216,1437067249906,0.54049104,8.71669,1.4514848
217,1437067249950,0.06584055,8.643068,1.4670471
218,1437067249998,-0.38486794,8.672397,1.2599486
219,1437067250038,-0.79487497,8.468291,1.1917139
220,1437067250039,-1.0127473,8.069656,1.3174095
221,1437067250042,-1.0145429,8.684967,1.4520833
222,1437067250043,-1.2132617,10.994773,1.353921
223,1437067250044,-2.1643584,11.686697,4.036624
224,1437067250069,-3.8851907,14.094666,6.89171
225,1437067250089,-5.535394,17.321451,9.862914
226,1437067250129,-4.5699325,17.58601,9.701904
227,1437067250130,-2.1697452,16.709133,7.20954
228,1437067250141,-0.18255788,13.176489,5.585074
229,1437067250161,0.6434417,10.21127,4.7506948
230,1437067250181,0.89543146,9.214086,4.43466
231,1437067250201,0.5267244,8.594585,4.2730513
232,1437067250221,0.27593175,7.3789296,3.6942532
233,1437067250241,0.15502456,6.0148335,3.330933
234,1437067250261,0.038905777,4.9320555,3.176507
235,1437067250281,0.03172317,4.5142674,3.292626
236,1437067250301,-0.25139117,4.6166196,3.0119057
237,1437067250321,-0.46686932,4.8901567,2.6551697
238,1437067250341,-0.54049104,5.285799,2.5833437
239,1437067250361,-0.6302736,5.707178,2.3133974
240,1437067250381,-0.9888053,5.7748146,2.593519
241,1437067250401,-1.6292542,5.85502,3.09271
242,1437067250421,-2.131438,6.2315083,3.394978
243,1437067250441,-2.3038206,7.0227923,3.5416229
244,1437067250462,-2.0512323,7.6213427,3.5757403
245,1437067250484,-1.3742718,7.4746976,3.7750576
246,1437067250504,-0.52492875,7.021595,3.9606082
247,1437067250524,0.34596214,7.311892,3.7714663
248,1437067250543,1.6112977,10.350134,1.5610195
249,1437067250563,2.5983074,12.229582,0.5883751
250,1437067250581,4.300585,16.3099,-0.4950012
251,1437067250604,3.3255463,17.695545,2.0201077
252,1437067250625,2.3750482,18.206707,4.800973
253,1437067250642,1.1240777,17.5489,4.9105077
254,1437067250663,1.0905589,15.628152,4.921282
255,1437067250698,2.297835,14.994885,6.997653
256,1437067250702,2.0171149,14.473548,6.983288
257,1437067250724,1.5861586,13.453618,4.4639893
258,1437067250741,1.4820108,11.570579,2.4229321
259,1437067250763,0.943914,9.524135,1.9387048
260,1437067250783,-0.17178397,7.839215,1.6992847
261,1437067250802,-0.90141696,6.7761893,0.90859956
262,1437067250822,-0.97384155,6.3458314,0.29388827
263,1437067250845,-0.8535329,6.3589997,0.022744916
264,1437067250865,-0.7170634,6.202778,0.2765303
265,1437067250886,-0.50637364,5.789778,0.492607
266,1437067250905,-0.18555063,5.6987987,0.6374562
267,1437067250925,0.23044191,6.0160303,0.5105635
268,1437067250946,0.6781576,6.5259953,0.29149407
269,1437067250964,1.2210429,7.1808095,0.338181
270,1437067250982,1.5263035,7.9451585,1.1204864
271,1437067251004,1.3335704,8.783129,2.1619642
272,1437067251024,0.6087258,9.156625,2.825158
273,1437067251043,-0.28431144,10.445304,2.8335378
274,1437067251064,-1.2976574,13.130401,1.9656396
275,1437067251087,-2.5157075,13.3704195,4.771045
276,1437067251108,-5.158906,13.618818,9.264962
277,1437067251128,-8.098986,15.983092,9.67856
278,1437067251145,-6.821679,16.779762,6.8947024
279,1437067251162,-3.1022868,15.816096,4.44723
280,1437067251182,0.66738373,13.383588,4.0019083
281,1437067251203,2.047641,10.555437,4.7141833
282,1437067251228,2.219425,9.774328,5.267244
283,1437067251248,2.0506337,9.782708,4.7363296
284,1437067251268,1.4137762,9.194333,4.4179006
285,1437067251285,0.6811504,7.925406,3.6864722
286,1437067251305,0.16460137,6.461352,3.29502
287,1437067251372,-0.076614454,5.463568,3.1082723
288,1437067251373,-0.30585927,5.142745,2.954445
289,1437067251374,-0.65541273,5.205593,2.6898856
290,1437067251384,-1.1510124,5.4222684,2.4079683
291,1437067251406,-1.7340006,5.493496,2.2188265
292,1437067251423,-2.1499932,5.5790887,2.191293
293,1437067251444,-2.3463178,5.7903767,2.2894554
294,1437067251464,-2.517503,6.331466,2.231396
295,1437067251484,-2.7192147,7.092224,2.15957
296,1437067251505,-3.015497,7.929596,2.2613235
297,1437067251523,-3.165733,8.501212,2.6503813
298,1437067251546,-2.4762032,8.347384,3.3363202
299,1437067251566,-1.3497312,9.199121,3.1370027
300,1437067251582,-0.19093758,12.935273,0.89543146
301,1437067251606,1.0923545,14.672267,0.14305355
302,1437067251626,1.8136078,14.587871,1.661576
303,1437067251643,2.5971103,15.366585,3.5404258
304,1437067251663,2.8790276,16.482283,2.7234044
305,1437067251683,2.9281087,16.606182,2.7575219
306,1437067251703,3.3022027,15.35222,6.319495
307,1437067251726,3.0945058,14.936826,7.413047
308,1437067251744,2.4241292,13.561357,5.029619
309,1437067251764,1.4347254,11.370064,2.4366987
310,1437067251786,0.46866497,9.396643,1.1546037
311,1437067251804,-0.30526072,7.623737,0.919972
312,1437067251824,-0.7978677,6.326678,0.83378077
313,1437067251843,-0.8822633,5.693412,0.37588966
314,1437067251870,-0.6721721,5.443816,-0.18136078
315,1437067251886,-0.28550854,5.3558292,-0.3274071
316,1437067251905,0.015562311,5.2965727,-0.1328782
317,1437067251927,0.272939,5.2235494,0.074220255
318,1437067251946,0.41240123,5.445013,0.16101007
319,1437067251966,0.60094464,6.38354,0.1328782
320,1437067251990,0.62967503,7.382521,0.23582886
321,1437067252003,0.40581718,8.03554,0.6015432
322,1437067252026,0.050876785,7.8733325,1.6849195
323,1437067252078,0.1328782,8.701127,2.9909565
324,1437067252079,0.1352724,12.84549,2.891597
325,1437067252107,-1.3126211,13.925276,4.320337
326,1437067252108,-1.9554642,14.727333,8.909423
327,1437067252135,-4.811747,19.235615,10.897209
328,1437067252143,-6.3182983,18.256985,10.564415
329,1437067252165,-6.1141925,17.646463,7.466318
330,1437067252183,-3.4290953,14.861408,4.717176
331,1437067252206,-1.0085574,11.314998,3.620033
332,1437067252223,0.3842694,8.881889,2.9771898
333,1437067252244,0.83856916,7.9541364,3.6343982
334,1437067252267,0.7068881,7.543531,3.5823243
335,1437067252283,0.33399114,6.9168487,2.902371
336,1437067252303,-0.27473465,5.851429,2.5845408
337,1437067252327,-0.82480246,4.95899,2.6042929
338,1437067252346,-1.2797008,4.4502225,2.5127146
339,1437067252367,-1.6645688,4.4783545,2.260725
340,1437067252387,-1.8728642,4.956596,1.7896658
341,1437067252407,-1.9363106,5.4881086,1.5526398
342,1437067252427,-2.1404164,5.927445,1.6609775
343,1437067252447,-2.4863784,6.4392056,1.9722236
344,1437067252466,-3.0011318,7.1568675,2.3008277
345,1437067252487,-3.3105824,7.7470384,2.5079262
346,1437067252504,-3.0897174,7.9427643,2.7275944
347,1437067252527,-2.2876596,7.683592,3.1789012
348,1437067252549,-1.2138603,7.052121,3.5260606
349,1437067252566,-0.40761283,8.787917,2.3971944
350,1437067252586,0.55844754,12.619837,-0.31304187
351,1437067252607,1.1569979,14.499884,-0.18136078
352,1437067252627,1.0911574,15.777789,0.4225766
353,1437067252647,0.7110779,17.388489,2.9107506
354,1437067252667,0.8738836,17.6315,3.911527
355,1437067252685,1.0324994,16.912043,3.8744168
356,1437067252706,1.7471687,15.702372,6.1249666
357,1437067252726,2.1697452,13.970167,6.6391215
358,1437067252747,1.785476,12.2224,5.2780175
359,1437067252765,1.1725603,10.860698,3.3800142
360,1437067252819,0.35254622,9.426571,1.6801311
361,1437067252820,-0.23463176,8.2037325,0.6123171
362,1437067252833,-0.789488,7.1448965,0.0664391
363,1437067252844,-1.3664906,6.4140663,-0.29807812
364,1437067252868,-1.9111716,5.9561753,-0.6655881
365,1437067252886,-2.256535,5.61141,-0.65062433
366,1437067252905,-2.3942018,5.315128,-0.57879823
367,1437067252926,-2.1679497,5.498883,-0.5823896
368,1437067252951,-1.8207904,6.439804,-0.76075757
369,1437067252968,-1.3634979,7.3645644,-0.7026982
370,1437067252984,-1.2138603,7.8446016,-0.18435353
371,1437067253005,-1.5699978,8.152257,0.6500258
372,1437067253024,-1.7004818,8.735844,1.8926164
373,1437067253046,-2.059612,13.761871,1.578976
374,1437067253067,-3.7666779,15.808315,3.781043
375,1437067253087,-4.0940847,15.882536,8.756194
376,1437067253107,-4.386776,19.000385,10.195708
377,1437067253127,-2.7605145,19.017742,10.465055
378,1437067253147,-0.5781997,18.450916,7.5704656
379,1437067253167,1.7178397,15.789162,5.9747305
380,1437067253187,2.5157075,12.4390745,4.8027687
381,1437067253205,2.0973208,10.523115,4.1000705
382,1437067253227,1.0486604,9.921572,3.4913447
383,1437067253247,-0.22744916,9.498397,2.4199393
384,1437067253266,-1.3162124,8.303091,1.9871874
385,1437067253287,-2.112883,6.600814,1.7160441
386,1437067253307,-2.3050177,5.8149176,1.7118542
387,1437067253327,-2.5671828,4.7937903,1.2126632
388,1437067253347,-2.6001031,4.2461166,1.1264719
389,1437067253367,-2.8083985,4.1784806,0.6991069
390,1437067253388,-2.9861681,4.3478703,0.24720132
391,1437067255063,-3.283049,4.832696,0.66020113
392,1437067255064,-4.0378213,5.494693,0.9636662
393,1437067255065,-4.5166616,6.211158,1.3024458
394,1437067255066,-4.5765166,7.33344,1.2210429
395,1437067255067,-4.334702,8.680777,1.4317327
396,1437067255068,-3.8654387,10.163984,1.745373
397,1437067255069,-3.4374752,12.156559,1.8746599
398,1437067255070,-3.0484173,16.026787,1.1749545
399,1437067255071,-1.8447324,18.544289,2.9813797
400,1437067255072,0.31304187,16.554708,6.326678
401,1437067255073,2.31639,13.3704195,5.2678423
402,1437067255074,3.915717,12.779052,2.5611973
403,1437067255075,4.095282,13.201628,1.6567876
404,1437067255076,2.3068132,13.494319,2.088941
405,1437067255077,0.7320272,13.709798,2.545635
406,1437067255078,0.18255788,13.693637,2.3289597
407,1437067255079,-0.53330845,12.066178,2.6072857
408,1437067255080,-0.54288524,9.810242,3.229778
409,1437067255081,-0.4818331,8.173206,3.1196449
410,1437067255082,-1.1498153,6.953959,2.6372132
411,1437067255083,-1.757344,6.299743,1.7896658
412,1437067255084,-1.8800468,6.405687,0.28431144
413,1437067255085,-1.6777369,6.6726403,-0.78290397
414,1437067255086,-1.3186066,6.8599863,-0.83258367
415,1437067255087,-1.1599907,7.2843585,-0.45070848
416,1437067255088,-1.2234371,7.7757688,-0.25198972
417,1437067255089,-1.1755531,7.768586,0.12928689
418,1437067255090,-1.1282675,8.010401,0.50038815
