id,attr_time,attr_x,attr_y,attr_z
1,1437230989520,-9.54894,-2.40965,0.0370941
2,1437230989538,-9.51456,-2.35452,0.0653076
3,1437230989579,-9.54956,-2.32092,0.0759583
4,1437230989598,-9.56854,-2.36877,0.109085
5,1437230989618,-9.57165,-2.34448,0.0513
6,1437230989638,-9.57481,-2.36508,0.0981445
7,1437230989658,-9.57153,-2.38657,0.0904694
8,1437230989676,-9.5629,-2.36002,0.119431
9,1437230989697,-9.58865,-2.34428,0.114899
10,1437230989716,-9.60573,-2.35567,0.150253
11,1437230989736,-9.6223,-2.34935,0.152237
12,1437230989757,-9.55832,-2.36198,0.0908508
13,1437230989776,-9.53804,-2.39038,0.0889435
14,1437230989796,-9.52104,-2.39374,0.0575714
15,1437230989816,-9.55473,-2.40067,0.109222
16,1437230989835,-9.56441,-2.41362,0.0883942
17,1437230989855,-9.56625,-2.43483,0.0571289
18,1437230989874,-9.55306,-2.47984,0.0950775
19,1437230989894,-9.52661,-2.48822,0.118927
20,1437230989914,-9.56161,-2.46402,0.0834656
21,1437230989934,-9.61121,-2.47058,0.116058
22,1437230989954,-9.60506,-2.46661,0.158066
23,1437230989974,-9.60744,-2.44331,0.0938873
24,1437230989992,-9.57271,-2.43652,0.0840149
25,1437230990013,-9.59293,-2.42776,0.0770569
26,1437230990031,-9.57835,-2.43686,0.0537872
27,1437230990053,-9.552,-2.40553,0.0339508
28,1437230990072,-9.52428,-2.38077,0.137375
29,1437230990091,-9.47172,-2.31741,0.0742493
30,1437230990112,-9.50713,-2.33076,0.0700378
31,1437230990131,-9.54356,-2.32593,0.0646667
32,1437230990151,-9.52985,-2.30431,0.0830841
33,1437230990169,-9.52606,-2.31134,0.0967712
34,1437230990190,-9.52828,-2.3595,0.120895
35,1437230990208,-9.53078,-2.36029,0.128174
36,1437230990230,-9.55742,-2.30685,0.14653
37,1437230990250,-9.56392,-2.30948,0.150864
38,1437230990269,-9.55891,-2.31221,0.154144
39,1437230990289,-9.54718,-2.34755,0.163818
40,1437230990309,-9.54257,-2.31071,0.160538
41,1437230990328,-9.52295,-2.32069,0.101242
42,1437230990349,-9.54688,-2.30031,0.110443
43,1437230990368,-9.53404,-2.30481,0.113419
44,1437230990387,-9.54323,-2.29691,0.112106
45,1437230990408,-9.54956,-2.30905,0.0820007
46,1437230990427,-9.52498,-2.36981,0.134186
47,1437230990447,-9.53328,-2.28035,0.121918
48,1437230990467,-9.50716,-2.30533,0.0733643
49,1437230990485,-9.56122,-2.33345,0.0669861
50,1437230990506,-9.56653,-2.35475,0.0107574
51,1437230990545,-9.53766,-2.34384,0.0879822
52,1437230990565,-9.55853,-2.35114,0.0901184
53,1437230990586,-9.56927,-2.32704,0.0493011
54,1437230990605,-9.53973,-2.3567,0.0865478
55,1437230990624,-9.57021,-2.31699,0.137329
56,1437230990645,-9.55196,-2.31499,0.168472
57,1437230990662,-9.54747,-2.31928,0.193649
58,1437230990684,-9.57947,-2.32063,0.162262
59,1437230990703,-9.55749,-2.31509,0.215683
60,1437230990723,-9.58659,-2.30389,0.252975
61,1437230990743,-9.57042,-2.34615,0.201584
62,1437230990763,-9.5867,-2.37738,0.150131
63,1437230990783,-9.57594,-2.40584,0.174362
64,1437230990802,-9.57579,-2.37288,0.174149
65,1437230990822,-9.59876,-2.37114,0.163101
66,1437230990841,-9.56387,-2.36882,0.156509
67,1437230990861,-9.57475,-2.4187,0.118271
68,1437230990881,-9.61197,-2.38422,0.146423
69,1437230990901,-9.62666,-2.37105,0.0883484
70,1437230990920,-9.62695,-2.41052,0.0592194
71,1437230990941,-9.60802,-2.41017,0.128296
72,1437230990959,-9.58615,-2.36076,0.094986
73,1437230990978,-9.59453,-2.35396,0.0296783
74,1437230991000,-9.54701,-2.3548,0.0756988
75,1437230991018,-9.50375,-2.26578,0.139374
76,1437230991039,-9.49934,-2.28667,0.10817
77,1437230991058,-9.51219,-2.24942,0.114761
78,1437230991078,-9.5576,-2.31427,0.0741882
79,1437230991097,-9.57919,-2.33151,0.0792084
80,1437230991118,-9.61934,-2.3367,0.0625458
81,1437230991137,-9.63406,-2.37189,0.020752
82,1437230991155,-9.62865,-2.37321,0.0926361
83,1437230991181,-9.61217,-2.37486,0.0976257
84,1437230991196,-9.54839,-2.37132,0.145248
85,1437230991216,-9.52525,-2.35429,0.175919
86,1437230991237,-9.54414,-2.37878,0.154358
87,1437230991255,-9.53626,-2.32773,0.147217
88,1437230991276,-9.57578,-2.31529,0.169296
89,1437230991295,-9.59181,-2.36359,0.123596
90,1437230991315,-9.63159,-2.38309,0.109589
91,1437230991335,-9.60475,-2.39706,0.105713
92,1437230991354,-9.58351,-2.38741,0.0862579
93,1437230991373,-9.5934,-2.37451,0.0992584
94,1437230991394,-9.53436,-2.33876,0.0951233
95,1437230991414,-9.53592,-2.34023,0.0487824
96,1437230991434,-9.50082,-2.32457,0.0842133
97,1437230991453,-9.46494,-2.32372,0.0565643
98,1437230991473,-9.48669,-2.31659,0.0731964
99,1437230991512,-9.49648,-2.33336,0.0989227
100,1437230991533,-9.536,-2.35561,0.0827484
101,1437230991551,-9.50839,-2.3642,0.104446
102,1437230991572,-9.50891,-2.37845,0.0949249
103,1437230991591,-9.54724,-2.35448,0.0683441
104,1437230991611,-9.64145,-2.42084,0.191208
105,1437230991631,-9.63121,-2.3532,0.250809
106,1437230991650,-9.78995,-2.30501,0.417816
107,1437230991670,-9.96584,-2.3138,0.730972
108,1437230991688,-10.0076,-2.23494,0.825104
109,1437230991710,-10.0509,-2.16737,0.857956
110,1437230991729,-10.0782,-2.11707,0.942322
111,1437230991749,-9.92102,-1.99809,0.953583
112,1437230991769,-9.83897,-1.83192,0.837708
113,1437230991788,-9.69403,-1.86172,0.607941
114,1437230991808,-9.54347,-1.91902,0.439423
115,1437230991828,-9.42799,-1.89917,0.319672
116,1437230991848,-9.47455,-1.78729,0.167892
117,1437230991867,-9.66298,-1.74829,-0.00134277
118,1437230991887,-9.52712,-1.77725,-0.223038
119,1437230991907,-9.38866,-1.85558,-0.244125
120,1437230991927,-9.23762,-1.88913,-0.248611
121,1437230991947,-9.09184,-1.8667,-0.260559
122,1437230991964,-9.17389,-1.78018,-0.24205
123,1437230991985,-9.26477,-2.0009,-0.0551453
124,1437230992005,-9.20027,-1.98128,0.287216
125,1437230992025,-9.26073,-1.95605,0.316788
126,1437230992045,-9.30902,-2.06384,0.356354
127,1437230992065,-9.33402,-2.25903,0.46283
128,1437230992084,-9.49957,-2.1481,0.412781
129,1437230992104,-9.82324,-2.10344,0.242981
130,1437230992125,-9.95192,-2.31238,0.278763
131,1437230992142,-9.80302,-2.36722,0.798965
132,1437230992164,-9.64909,-2.14397,1.36827
133,1437230992182,-9.38025,-2.33612,1.33122
134,1437230992202,-8.83,-2.70322,1.10458
135,1437230992222,-9.08041,-2.28372,1.12256
136,1437230992243,-9.52054,-2.20807,0.781204
137,1437230992262,-9.86531,-2.55753,0.71431
138,1437230992280,-10.4025,-2.73216,1.02153
139,1437230992302,-10.1089,-2.50618,1.33821
140,1437230992321,-9.53712,-2.00777,1.33168
141,1437230992341,-9.41403,-2.18654,0.866974
142,1437230992361,-9.24947,-2.15622,0.636398
143,1437230992380,-9.08076,-1.91791,0.509476
144,1437230992400,-9.37604,-2.10066,0.565475
145,1437230992421,-9.5856,-2.34171,0.769775
146,1437230992440,-9.94571,-3.44031,0.272034
147,1437230992479,-10.0009,-4.89647,-0.474106
148,1437230992498,-9.77069,-5.77428,-0.979843
149,1437230992518,-9.41495,-5.84665,-1.11272
150,1437230992538,-9.5424,-6.02197,-1.15405
151,1437230992558,-9.80502,-6.34702,-0.880417
152,1437230992578,-9.82217,-6.38626,-0.515533
153,1437230992598,-9.99776,-6.52226,-0.101181
154,1437230992617,-10.0031,-6.45573,0.457001
155,1437230992637,-9.60208,-6.55872,0.967422
156,1437230992657,-9.29353,-6.67038,0.906143
157,1437230992675,-8.96834,-6.85928,0.685516
158,1437230992696,-8.90491,-6.9196,0.494354
159,1437230992716,-8.96265,-6.85809,0.602005
160,1437230992736,-8.83548,-6.68854,0.826752
161,1437230992756,-9.11523,-6.74011,0.973053
162,1437230992774,-9.53259,-7.01263,0.923874
163,1437230992795,-9.68431,-7.25539,0.973587
164,1437230992814,-10.0855,-7.30675,0.920502
165,1437230992835,-10.1458,-6.88609,0.757111
166,1437230992854,-10.3038,-7.02318,0.786011
167,1437230992873,-10.4822,-6.40807,0.824753
168,1437230992894,-10.3498,-5.41162,0.988052
169,1437230992913,-9.80824,-4.39845,1.03828
170,1437230992933,-8.91502,-3.37497,1.03557
171,1437230992952,-8.99379,-2.9726,0.66127
172,1437230992973,-8.95537,-1.29597,-0.128647
173,1437230992992,-8.38229,1.04601,-1.035
174,1437230993012,-7.73404,3.42369,-2.14269
175,1437230993032,-7.15895,3.86639,-1.56779
176,1437230993051,-6.43903,2.38135,-1.50929
177,1437230993071,-6.40787,1.11815,-1.46458
178,1437230993091,-7.82436,2.08339,-1.5833
179,1437230993109,-8.74205,2.07953,-1.09962
180,1437230993131,-10.8052,0.707367,-1.12761
181,1437230993150,-14.1764,-1.90419,-0.75296
182,1437230993169,-18.3457,-7.55481,-0.473709
183,1437230993190,-19.5774,-16.0296,-2.53983
184,1437230993209,-19.5774,-19.9123,-5.19833
185,1437230993229,-18.5506,-19.9123,-5.04716
186,1437230993249,-13.5124,-19.7916,-2.8354
187,1437230993267,-8.84177,-18.3564,-0.711639
188,1437230993288,-5.41194,-17.0905,-0.992096
189,1437230993308,-2.12675,-15.6414,-2.14244
190,1437230993328,0.739151,-15.0106,-1.17633
191,1437230993348,3.09207,-14.4901,-0.820251
192,1437230993367,4.51086,-14.6574,-1.18329
193,1437230993387,5.52599,-13.2552,-2.06068
194,1437230993406,6.30614,-11.1114,-2.78938
195,1437230993427,5.35168,-8.97458,-3.2551
196,1437230993466,3.55255,-9.60538,-5.5957
197,1437230993485,1.79164,-10.2876,-5.47752
198,1437230993505,0.393311,-9.45956,-4.39252
199,1437230993525,-1.09181,-11.6504,-6.4565
200,1437230993544,-4.20781,-18.2989,-8.50868
201,1437230993565,-9.2337,-19.9123,-9.03027
202,1437230993584,-8.20988,-19.9123,-9.19067
203,1437230993604,-10.6973,-19.9123,-10.5133
204,1437230993623,-12.0735,-19.9123,-9.97603
205,1437230993643,-11.986,-19.5851,-8.22804
206,1437230993663,-12.3171,-15.6398,-6.2854
207,1437230993683,-11.2944,-10.8881,-4.52595
208,1437230993703,-11.5105,-7.33488,-3.46873
209,1437230993723,-12.2335,-3.07663,-2.82391
210,1437230993742,-12.3983,1.89995,-1.68098
211,1437230995667,-12.1956,8.24373,-1.23286
212,1437230995668,-11.0766,11.4514,-0.431534
213,1437230995669,-8.57179,9.92468,-0.907516
214,1437230995670,-8.81012,8.22018,-2.20816
215,1437230995671,-8.52769,4.53276,-3.18358
216,1437230995672,-6.76236,-0.836624,-1.68372
217,1437230995673,-4.50369,-6.49358,-2.91452
218,1437230995674,-5.44977,-9.84401,-5.57529
219,1437230995675,-8.24126,-11.0548,-8.63686
220,1437230995676,-9.80023,-19.9123,-16.6869
221,1437230995677,-6.57001,-19.9123,-18.7462
222,1437230995678,-2.10391,-19.9123,-11.8663
223,1437230995679,-2.94229,-19.2767,-6.88272
224,1437230995680,-1.75224,-15.4247,-5.18013
225,1437230995681,2.39998,-18.738,-4.73692
226,1437230995682,5.56209,-19.144,-4.53239
227,1437230995683,7.68903,-14.2835,-2.17183
228,1437230995684,9.93233,-9.60207,-0.336212
229,1437230995685,11.6402,-7.16634,1.33466
230,1437230995686,11.0198,-6.69745,1.81644
231,1437230995687,9.24837,-7.30865,2.08009
232,1437230995688,7.76428,-6.46983,1.03336
233,1437230995689,6.60294,-4.49927,1.07501
234,1437230995690,5.75934,-4.80392,1.66777
235,1437230995691,4.54915,-12.8409,-2.91711
236,1437230995692,-1.34798,-19.7809,-7.01694
237,1437230995693,-8.78636,-19.9123,-9.36627
238,1437230995694,-7.47711,-19.9123,-10.8604
239,1437230995695,-16.3011,-19.9123,-9.99918
240,1437230995696,-17.2765,-19.1207,-8.42731
241,1437230995697,-12.2627,-15.268,-5.40405
242,1437230995698,-12.382,-11.4945,-4.79953
243,1437230995699,-12.1678,-7.0834,-4.83296
244,1437230995700,-11.4743,-2.2408,-4.73076
245,1437230995701,-11.254,3.69235,-5.15421
246,1437230995702,-10.5901,9.04332,-6.09825
247,1437230995703,-9.24715,11.7984,-4.64328
248,1437230995704,-7.13705,11.4341,-3.36064
249,1437230995705,-6.383,8.66847,-1.72664
250,1437230995706,-5.53625,5.60318,-1.02446
251,1437230995707,-4.84822,4.16522,-1.72655
252,1437230995708,-4.81928,2.29167,-3.11693
253,1437230995709,-7.75038,-4.90463,-7.88889
254,1437230995710,-15.398,-16.3679,-12.3068
255,1437230995711,-8.31979,-19.9123,-12.7474
256,1437230995712,-9.87221,-19.9123,-15.3832
257,1437230995713,-6.89745,-19.9123,-9.47449
258,1437230995714,-3.3201,-19.9123,-5.09193
259,1437230995715,-1.352,-18.4295,-2.65331
260,1437230995716,1.48495,-16.253,-2.31526
261,1437230995717,4.43167,-16.0259,-1.73914
262,1437230995718,6.26181,-14.4058,-0.82251
263,1437230995719,7.59383,-11.5715,0.16951
264,1437230995720,10.1232,-8.53316,1.28859
265,1437230995721,12.5287,-7.96277,0.961441
266,1437230995722,11.2174,-8.2182,-0.0462646
267,1437230995723,8.47049,-7.19627,-0.871658
268,1437230995724,6.78021,-5.40875,0.0996551
269,1437230995725,6.37866,-5.09802,0.991043
270,1437230995726,5.85841,-9.2437,-2.46494
271,1437230995727,2.4456,-18.4481,-8.04892
272,1437230995728,-4.63141,-19.9123,-10.6219
273,1437230995729,-3.30789,-19.9123,-12.5531
274,1437230995730,-11.78,-19.9123,-12.9699
275,1437230995731,-13.0011,-19.6516,-9.99716
276,1437230995732,-9.73688,-16.5261,-6.74944
277,1437230995733,-11.8788,-12.2235,-5.77484
278,1437230995734,-11.9001,-7.42499,-5.10056
279,1437230995735,-10.9991,-2.41699,-3.90799
280,1437230995736,-10.7922,3.32892,-3.20021
281,1437230995737,-10.6134,8.41382,-3.35735
282,1437230995738,-9.24396,10.4606,-2.78639
283,1437230995739,-7.77081,10.2617,-2.58209
284,1437230995740,-6.50455,7.23424,-2.18018
285,1437230995741,-5.92592,4.36002,-1.83719
286,1437230995742,-5.25371,3.1539,-0.10025
287,1437230995743,-2.61392,1.10765,-0.383026
288,1437230995744,-1.72653,-7.99701,-10.9029
289,1437230995745,-13.4173,-19.8164,-16.8585
290,1437230995746,-4.45531,-19.9123,-15.6782
291,1437230995747,-3.19714,-19.9123,-8.32677
292,1437230995748,-5.56358,-19.9123,-2.47101
293,1437230995749,-1.89294,-18.452,-0.325439
294,1437230995750,1.92497,-14.586,0.618896
295,1437230995751,4.19997,-14.1078,1.15402
296,1437230995752,5.16754,-13.4564,2.40311
297,1437230995753,6.50452,-10.8092,4.60078
298,1437230995754,7.19247,-7.76506,5.19884
299,1437230995755,8.06499,-5.36122,3.87712
300,1437230995756,8.87337,-2.43851,3.00404
301,1437230995757,9.81885,0.730103,1.43161
302,1437230995758,10.9923,1.73245,-0.331833
303,1437230995759,9.27518,-2.87001,1.54817
304,1437230995760,6.55244,-9.08704,2.44788
305,1437230995761,5.2424,-17.742,0.466492
306,1437230995762,-0.500732,-19.9123,-2.66821
307,1437230995763,3.76869,-19.9123,-3.95287
308,1437230995764,-5.82057,-19.9123,-5.85028
309,1437230995765,-9.90703,-19.9123,-7.38106
310,1437230995766,-8.67407,-19.9123,-5.45393
311,1437230995774,-10.7598,-17.6244,-4.43063
312,1437230995794,-11.7342,-11.3124,-3.66034
313,1437230995814,-12.3401,-5.27995,-2.59201
314,1437230995834,-12.8973,0.713272,-1.97818
315,1437230995853,-12.9985,7.17924,-2.25053
316,1437230995873,-12.391,12.9011,-3.23961
317,1437230995892,-12.4366,15.9849,-3.79869
318,1437230995913,-12.2742,11.7957,-3.44609
319,1437230995932,-11.7412,5.99461,-3.43187
320,1437230995951,-10.2878,2.10236,-2.73216
321,1437230995972,-7.85548,-5.62785,-2.13034
322,1437230995991,-9.60315,-17.7893,-7.02864
323,1437230996011,-9.13603,-19.9123,-8.23827
324,1437230996031,-7.14879,-19.9123,-13.5677
325,1437230996049,-5.83736,-19.9123,-17.3493
326,1437230996070,-1.92543,-19.9123,-10.9384
327,1437230996089,-0.433411,-19.328,-7.21584
328,1437230996109,0.284454,-15.1647,-4.87094
329,1437230996130,2.71101,-13.3141,-2.80336
330,1437230996149,5.16554,-13.0741,-2.14093
331,1437230996169,7.30489,-12.6146,-2.09285
332,1437230996188,9.37344,-10.7287,-0.973526
333,1437230996208,9.94315,-7.8878,0.0206451
334,1437230996227,11.2153,-6.01642,0.106857
335,1437230996248,11.3622,-4.93297,0.187729
336,1437230996267,9.53746,-4.68637,0.245132
337,1437230996287,8.32687,-4.61078,-0.0738678
338,1437230996307,7.98619,-3.98553,-0.756912
339,1437230996327,7.75606,-3.66853,-1.3372
340,1437230996366,7.63344,-9.03993,-5.64885
341,1437230996386,4.44673,-19.4985,-9.80193
342,1437230996405,-7.29282,-19.9123,-14.1558
343,1437230996425,-10.1122,-19.9123,-13.0352
344,1437230996445,-12.4661,-19.9123,-12.1838
345,1437230996465,-12.679,-19.3793,-8.35161
346,1437230996484,-14.5283,-13.6033,-6.01268
347,1437230996505,-14.1835,-7.5442,-4.8037
348,1437230996524,-12.4062,-1.8373,-3.17342
349,1437230996543,-11.9598,4.47234,-1.9411
350,1437230996563,-11.0608,9.57915,-1.91971
351,1437230996583,-10.7793,11.8547,-2.59073
352,1437230996603,-9.98831,13.0456,-2.6756
353,1437230996623,-8.1037,11.0636,-1.98953
354,1437230996643,-7.07782,7.86261,-1.53152
355,1437230996662,-5.85738,5.15976,-0.930664
356,1437230996683,-3.17526,0.588257,-3.42279
357,1437230996700,-11.5916,-13.5171,-11.1494
358,1437230996720,-9.91548,-19.9123,-12.9786
359,1437230996742,-1.49797,-19.9123,-13.8138
360,1437230996760,-1.31366,-19.9123,-11.7209
361,1437230996780,1.32172,-19.9123,-4.05548
362,1437230996801,2.9939,-16.2937,-1.95316
363,1437230996820,5.06099,-12.6646,0.00514221
364,1437230996840,7.57733,-11.1828,1.42549
365,1437230996860,8.55675,-9.37225,1.05988
366,1437230996879,9.40511,-6.60411,0.653503
367,1437230996898,10.0246,-3.81306,0.577011
368,1437230996919,9.94727,-2.38185,-0.427948
369,1437230996938,9.65755,-3.05247,-0.916306
370,1437230996958,8.11356,-4.89896,-1.76897
371,1437230996978,6.81934,-5.05823,-2.45012
372,1437230996998,6.56842,-4.44975,-2.18918
373,1437230997017,6.77992,-6.28554,-2.11861
374,1437230997036,6.05032,-13.8818,-4.6748
375,1437230997057,-0.907837,-19.9123,-7.79675
376,1437230997076,-1.438,-19.9123,-9.19334
377,1437230997097,-3.47975,-19.9123,-9.64041
378,1437230997115,-6.81931,-19.9123,-9.00297
379,1437230997136,-5.70508,-19.1186,-6.57449
380,1437230997156,-7.15048,-14.0547,-4.79959
381,1437230997175,-8.56738,-9.00998,-3.42194
382,1437230997195,-8.51132,-4.14545,-1.86208
383,1437230997213,-7.96901,0.260986,0.210266
384,1437230997234,-8.72191,4.63522,1.5603
385,1437230997253,-10.3114,8.36908,1.81487
386,1437230997274,-10.2365,8.48254,2.02966
387,1437230997294,-9.11574,6.54475,0.514725
388,1437230997334,-10.0891,3.91505,-2.16162
389,1437230997352,-9.0152,0.166122,-3.33846
390,1437230997373,-5.12004,-8.95039,-0.92691
391,1437230997392,-6.6821,-17.5116,-8.50975
392,1437230997412,-6.54259,-19.9123,-11.4638
393,1437230997431,-7.03311,-19.9123,-12.3201
394,1437230997451,-5.84036,-19.9123,-10.3526
395,1437230997471,-2.10199,-19.9123,-5.67494
396,1437230997491,0.505661,-19.2723,-3.58995
397,1437230997511,2.46638,-17.2383,-2.44597
398,1437230997529,4.45843,-16.0575,-1.2012
399,1437230997550,5.84326,-14.2198,-0.968613
400,1437230999385,7.44664,-11.4485,-1.0242
401,1437230999386,9.5585,-8.82841,-0.971909
402,1437230999387,11.2635,-6.05644,-1.56708
403,1437230999388,12.8854,-4.46794,-1.40695
404,1437230999389,11.4933,-4.75295,-1.78067
405,1437230999390,8.26036,-4.6786,-2.3116
406,1437230999391,6.65738,-3.32544,-2.53221
407,1437230999392,6.3868,-2.23439,-2.81985
408,1437230999393,6.334,-3.5984,-4.26149
409,1437230999394,6.7233,-15.9207,-6.90849
410,1437230999395,-2.33549,-19.9123,-8.60815
411,1437230999396,-4.78232,-19.9123,-12.1829
412,1437230999397,-6.75745,-19.9123,-9.81384
413,1437230999398,-8.98523,-19.657,-7.39296
414,1437230999399,-8.40474,-14.4599,-5.04596
415,1437230999400,-7.98721,-9.25563,-3.38597
416,1437230999401,-8.68556,-4.69008,-2.57579
417,1437230999402,-8.25693,0.396149,-1.58589
418,1437230999403,-8.08369,5.44417,-1.03336
419,1437230999404,-9.97584,8.32413,-1.43353
420,1437230999405,-9.85944,8.26733,-1.27312
421,1437230999406,-7.65074,6.53032,0.02948
422,1437230999407,-6.64859,4.58563,0.187637
423,1437230999408,-7.07466,1.81271,-1.1019
424,1437230999409,-7.04002,-3.96701,-3.78169
425,1437230999410,-3.28543,-16.6357,-8.41144
426,1437230999411,-2.56172,-19.9123,-8.67938
427,1437230999412,-5.08339,-19.9123,-9.901
428,1437230999413,-5.61024,-19.9123,-11.0124
429,1437230999414,-1.56653,-19.9123,-6.06309
430,1437230999415,2.31621,-19.6067,-2.63661
431,1437230999416,3.70395,-17.1797,-1.87378
432,1437230999417,5.19595,-14.8979,-1.14745
433,1437230999418,6.78062,-13.1202,-0.478577
434,1437230999419,8.13013,-10.897,-0.0306091
435,1437230999420,8.99248,-8.34053,0.559525
436,1437230999421,10.222,-4.94383,0.516235
437,1437230999422,11.335,-2.72775,0.198624
438,1437230999423,9.97018,-2.04268,-0.460525
439,1437230999424,8.13072,-2.64423,-0.860855
440,1437230999425,7.54688,-3.87471,-1.06812
441,1437230999426,7.31331,-4.71109,-1.61668
442,1437230999427,8.04192,-7.66698,-3.71007
443,1437230999428,7.9225,-17.8107,-8.2807
444,1437230999429,-2.02287,-19.9123,-9.55762
445,1437230999430,-3.90437,-19.9123,-11.6999
446,1437230999431,-4.39175,-19.9123,-8.89317
447,1437230999432,-7.09151,-19.6431,-6.56895
448,1437230999433,-7.17621,-15.7534,-4.68036
449,1437230999434,-7.42642,-10.4596,-3.29082
450,1437230999435,-8.93849,-5.31261,-2.37041
