id,attr_time,attr_x,attr_y,attr_z
1,1436543307017,9.643845,0.036511578,2.12246
2,1436543307037,9.537901,0.11851298,2.0931308
3,1436543307057,9.622895,0.10235212,2.112883
4,1436543307077,9.737218,-0.036511578,2.1200657
5,1436543307097,9.7479925,-0.07182605,2.1015105
6,1436543307117,9.722255,-0.008978256,2.1140802
7,1436543307137,9.631873,0.12210429,2.1529858
8,1436543307179,9.648034,0.1412579,2.1481974
9,1436543307180,9.6767645,0.093972415,2.1637597
10,1436543307196,9.67856,0.010773907,2.1942859
11,1436543307216,9.665392,-0.008379706,2.124854
12,1436543307238,9.627684,0.05626374,2.0787656
13,1436543307257,9.624092,0.10055647,2.0853498
14,1436543307277,9.704298,0.0712275,2.1170728
15,1436543307301,9.745,0.06823475,2.11827
16,1436543307321,9.65821,0.08080431,2.1206641
17,1436543307337,9.605537,0.09816227,2.1308396
18,1436543307357,9.687539,0.11731588,2.110489
19,1436543307377,9.759963,0.110133275,2.1535845
20,1436543307407,9.720459,0.061052144,2.1272483
21,1436543307416,9.655217,-0.020350715,2.1667526
22,1436543307436,9.58818,0.011971008,2.1092918
23,1436543307456,9.6288805,0.11312603,2.124854
24,1436543307477,9.718064,0.15562311,2.1140802
25,1436543307501,9.715072,0.12629414,2.0991163
26,1436543307518,9.714474,0.092775315,2.0398598
27,1436543307539,9.680955,0.044292733,2.1481974
28,1436543307558,9.623494,0.010773907,2.1583729
29,1436543307577,9.594165,0.038905777,2.1571758
30,1436543307599,9.633669,0.11671733,2.1362264
31,1436543307616,9.7563715,0.16280572,2.111686
32,1436543307638,9.775525,0.09816227,2.086547
33,1436543307657,9.64564,0.005985504,2.0733786
34,1436543307679,9.626487,0.022146367,2.12246
35,1436543307702,9.621099,0.051475335,2.1787236
36,1436543307722,9.651027,0.04189853,2.1691468
37,1436543307738,9.662399,0.044891283,2.0961237
38,1436543307759,9.710882,0.10654198,2.1152773
39,1436543307782,9.697714,0.091578215,2.1122844
40,1436543307801,9.614515,0.05925649,2.1458032
41,1436543307821,9.607333,0.0700304,2.180519
42,1436543307840,9.728839,0.08678981,2.1559787
43,1436543307861,9.730036,0.05746084,2.1051018
44,1436543307882,9.619304,0.017956512,2.0949266
45,1436543307903,9.648633,0.05865794,2.1015105
46,1436543307921,9.758766,0.10115502,2.1458032
47,1436543307946,9.718663,0.044891283,2.1404164
48,1436543307959,9.564836,0.031124622,2.148796
49,1436543307979,9.555858,0.0796072,2.1080947
50,1436543308008,9.685144,0.13826515,2.1086931
51,1436543308066,9.73662,0.1376666,2.100912
52,1436543308067,9.777321,0.08319851,2.1362264
53,1436543308068,9.711481,0.03232172,2.131438
54,1436543308078,9.589376,0.050278235,2.1470003
55,1436543308098,9.586384,0.061052144,2.1452048
56,1436543308120,9.703101,0.089184016,2.1499932
57,1436543308140,9.737218,0.107140526,2.1930888
58,1436543308158,9.675568,0.0688333,2.1230583
59,1436543308179,9.589975,0.055066638,2.1140802
60,1436543308200,9.629479,0.076614454,2.1440077
61,1436543308223,9.737218,0.079008654,2.1619642
62,1436543308243,9.688137,0.05686229,2.136825
63,1436543308259,9.58818,0.037110128,2.1068976
64,1436543308278,9.668385,0.05686229,2.1918917
65,1436543308302,9.717466,0.02932897,2.168548
66,1436543308320,9.64564,0.035913024,2.078167
67,1436543308342,9.615712,0.08439561,2.0967221
68,1436543308362,9.651027,0.14784196,2.2050598
69,1436543308381,9.719262,0.076015905,2.1984756
70,1436543308402,9.665392,0.0023942017,2.2008698
71,1436543308420,9.606135,0.048482586,2.1428106
72,1436543308442,9.63726,0.1364695,2.1242554
73,1436543308463,9.713875,0.095169514,2.1601684
74,1436543308479,9.698911,-0.022146367,2.168548
75,1436543308503,9.65821,-0.05207389,2.1643584
76,1436543308521,9.612122,0.038307227,2.211644
77,1436543308541,9.596559,0.11372458,2.183512
78,1436543308560,9.644443,0.1328782,2.160767
79,1436543308579,9.718064,0.079008654,2.1763294
80,1436543308601,9.672575,-0.04309563,2.144606
81,1436543308621,9.606734,-0.0077811554,2.1703439
82,1436543308641,9.59177,0.049679685,2.1745336
83,1436543308662,9.661801,0.14185645,2.1511903
84,1436543308683,9.697714,0.10055647,2.1523874
85,1436543308702,9.681553,0.030526072,2.154183
86,1436543308721,9.622895,0.035913024,2.1697452
87,1436543308739,9.631275,0.05805939,2.1841104
88,1436543308808,9.664794,0.011372458,2.1470003
89,1436543308809,9.642049,0.02873042,2.1416135
90,1436543308810,9.627085,0.074220255,2.1517887
91,1436543308819,9.668385,0.10115502,2.144606
92,1436543308840,9.7162695,0.095169514,2.154183
93,1436543308859,9.700109,0.054468088,2.1655555
94,1436543308879,9.668983,0.013766659,2.202067
95,1436543308899,9.611523,0.065242,2.1757307
96,1436543308926,9.590573,0.059855044,2.143409
97,1436543308939,9.633669,0.059855044,2.1176715
98,1436543308963,9.692925,0.079008654,2.1523874
99,1436543308982,9.736021,0.0724246,2.1649568
100,1436543308999,9.713276,0.04129998,2.1320367
101,1436543309022,9.669582,0.055066638,2.1218612
102,1436543309042,9.603143,0.09756372,2.1188686
103,1436543309062,9.601946,0.06943185,2.1410148
104,1436543309082,9.664794,-0.01316811,2.1499932
105,1436543309103,9.722255,0.017956512,2.1338322
106,1436543309122,9.625289,0.12569559,2.0859482
107,1436543309142,9.58818,0.15083471,2.0883424
108,1436543309162,9.682152,0.011971008,2.143409
109,1436543309182,9.777321,-0.11133038,2.1158757
110,1436543309200,9.71986,0.04129998,2.0320787
111,1436543309222,9.559449,0.24121583,2.1027076
112,1436543309242,9.551069,0.16579847,2.2008698
113,1436543309262,9.622296,0.049081136,2.2014685
114,1436543309282,9.76116,-0.09696517,2.190096
115,1436543309300,9.753978,-0.016759412,2.1033063
116,1436543309322,9.67856,0.15801731,2.059612
117,1436543309340,9.659407,0.17118542,2.0638018
118,1436543309360,9.665991,0.0664391,2.123657
119,1436543309379,9.679757,-0.019153614,2.110489
120,1436543309410,9.663596,-0.014963761,2.1559787
121,1436543309421,9.662998,0.08200141,2.071583
122,1436543309440,9.703101,0.15981296,2.0655975
123,1436543309462,9.716867,0.14305355,2.1033063
124,1436543309492,9.652225,0.012569559,2.134431
125,1436543309564,9.661202,-0.0047884034,2.1577742
126,1436543309565,9.731233,0.07062895,2.094328
127,1436543309566,9.6528225,0.11432313,2.0805612
128,1436543309567,9.562442,0.05925649,2.0919337
129,1436543309581,9.602545,0.02813187,2.1003134
130,1436543309607,9.736021,0.014963761,2.0901382
131,1436543309621,9.734824,0.059855044,2.0608091
132,1436543309640,9.627085,0.12509704,2.0649989
133,1436543309663,9.655815,0.12569559,2.0973208
134,1436543309680,9.703699,0.037708677,2.1254525
135,1436543309703,9.669582,-0.018555064,2.0979192
136,1436543309720,9.621099,0.022744916,2.0829554
137,1436543309745,9.675568,0.11432313,2.1027076
138,1436543309763,9.710283,0.13227965,2.0913353
139,1436543309783,9.664794,0.04129998,2.111686
140,1436543309804,9.615712,0.011971008,2.1416135
141,1436543309820,9.65821,0.08559271,2.0883424
142,1436543309843,9.739014,0.142455,2.0566192
143,1436543309863,9.713875,0.08439561,2.1206641
144,1436543309883,9.69532,0.048482586,2.136825
145,1436543309905,9.663596,0.046088383,2.1517887
146,1436543309922,9.631275,0.065242,2.1278467
147,1436543309954,9.603742,0.094570965,2.099715
148,1436543309962,9.704897,0.10354923,2.1086931
149,1436543309983,9.720459,0.06404489,2.094328
150,1436543310002,9.706094,0.022146367,2.0973208
151,1436543310022,9.563639,0.053869538,2.0871453
152,1436543310043,9.626487,0.10354923,2.1272483
153,1436543310063,9.781511,0.08379706,2.134431
154,1436543310081,9.76116,0.04249708,2.0847511
155,1436543310104,9.598354,0.10354923,2.0308816
156,1436543310120,9.590573,0.16220717,2.204461
157,1436543310143,9.734225,0.05327099,2.2014685
158,1436543310163,9.715671,-0.02932897,2.184709
159,1436543310182,9.630077,0.045489833,2.1769278
160,1436543310211,9.626487,0.08200141,2.1428106
161,1436543310267,9.688137,0.12090719,2.099715
162,1436543310268,9.646837,0.073621705,2.0458453
163,1436543310269,9.611523,0.044891283,2.047641
164,1436543310289,9.674371,-0.010175358,2.0566192
165,1436543310300,9.794081,0.0011971008,2.11827
166,1436543310328,9.691729,0.094570965,2.0769699
167,1436543310342,9.546879,0.18914193,2.111686
168,1436543310360,9.624092,0.09876082,2.12246
169,1436543310386,9.770139,-0.032920275,2.1410148
170,1436543310403,9.737218,-0.015562311,2.0787656
171,1436543310422,9.618706,0.06284779,2.0667946
172,1436543310444,9.642049,0.130484,2.1122844
173,1436543310461,9.70789,0.093373865,2.1577742
174,1436543310480,9.66659,0.020949265,2.147599
175,1436543310503,9.622895,-0.021547815,2.1021092
176,1436543310523,9.621698,0.0011971008,2.0590134
177,1436543310544,9.688736,0.092176765,2.0189106
178,1436543310564,9.725846,0.108936176,2.0398598
179,1436543310584,9.709685,0.02813187,2.1134815
180,1436543310604,9.674969,-0.01436521,2.1631613
181,1436543310624,9.628283,0.03172317,2.1452048
182,1436543310644,9.61272,0.079008654,2.1039047
183,1436543310664,9.709086,0.06703765,2.1003134
184,1436543310682,9.741408,0.05327099,2.1039047
185,1436543310704,9.679159,0.08080431,2.082357
186,1436543310724,9.585187,0.107739076,2.098518
187,1436543310744,9.623494,0.0712275,2.1284454
188,1436543310764,9.742605,0.0077811554,2.119467
189,1436543310784,9.743802,0.01616086,2.0805612
190,1436543310805,9.634268,0.093373865,2.0171149
191,1436543310823,9.618706,0.11252748,2.0494366
192,1436543310844,9.64145,0.05805939,2.0811598
193,1436543310864,9.705495,0.01316811,2.1164744
194,1436543310883,9.637859,0.02633622,2.094328
195,1436543310903,9.642648,0.0700304,2.071583
196,1436543310923,9.737218,0.11432313,2.0099323
197,1436543311050,9.758766,0.061650693,2.0290859
198,1436543311051,9.6923275,0.0712275,1.9740193
199,1436543311052,9.593566,0.061650693,2.0530279
200,1436543311053,9.665991,0.050876785,2.1493945
201,1436543311081,9.7479925,0.01616086,2.0979192
202,1436543311082,9.743802,0.077213004,2.0608091
203,1436543311083,9.637859,0.13467385,2.0093338
204,1436543311084,9.667787,0.08259996,2.018312
205,1436543311136,9.715072,0.019752163,2.005144
206,1436543311137,9.718663,0.023343466,1.9955671
207,1436543311179,9.673772,-0.010773907,2.0272903
208,1436543311196,9.652225,-0.037110128,2.1122844
209,1436543311197,9.716867,-0.025737667,2.0709844
210,1436543311202,9.702502,0.095169514,2.0207062
211,1436543311227,9.612122,0.15083471,1.9865888
212,1436543311243,9.629479,0.08439561,2.0009542
213,1436543311262,9.7240505,-0.026934769,2.0057425
214,1436543311281,9.790489,-0.047884032,1.9901801
215,1436543311302,9.726444,0.035314474,1.9668367
216,1436543311320,9.669582,0.06823475,1.951873
217,1436543311340,9.657611,0.06344634,1.9566613
218,1436543311360,9.7084875,-0.0011971008,1.9620483
219,1436543311380,9.822212,-0.0047884034,1.9470845
220,1436543311400,9.862914,0.019752163,1.9554642
221,1436543311421,9.733028,0.05327099,1.9877859
222,1436543311440,9.673173,0.06284779,2.0278888
223,1436543311460,9.651626,0.019153614,2.066196
224,1436543311483,9.661801,0.017357962,2.1164744
225,1436543311502,9.662998,0.025737667,2.046444
226,1436543311522,9.656414,0.05566519,1.982399
227,1436543311542,9.648633,0.08678981,1.9387048
228,1436543311564,9.685743,0.06344634,1.9327193
229,1436543311585,9.746795,0.0023942017,1.9488802
230,1436543311605,9.743802,-0.023942016,1.9644425
231,1436543311624,9.635465,0.049679685,1.9692309
232,1436543311642,9.636662,0.08439561,2.0129251
233,1436543311662,9.736021,0.022744916,2.0242975
234,1436543311682,9.778519,-0.046088383,2.022502
235,1436543311706,9.645041,0.01316811,1.9841946
236,1436543311738,9.6288805,0.08499416,2.0189106
237,1436543311742,9.661801,0.08200141,2.0398598
238,1436543311762,9.688137,0.055066638,1.9937714
239,1436543311782,9.713875,0.02633622,2.0458453
240,1436543311801,9.718663,0.08080431,2.034473
241,1436543311822,9.703699,0.05566519,2.0853498
242,1436543311845,9.660006,-0.04070143,2.0308816
243,1436543311863,9.624691,-0.013766659,2.0482395
244,1436543311882,9.664195,0.091578215,2.1033063
245,1436543311905,9.781511,0.09816227,2.0506337
246,1436543311925,9.730036,0.046088383,2.0518308
247,1436543311944,9.634866,-0.013766659,2.0727801
248,1436543311966,9.643246,-0.03232172,2.0787656
249,1436543312010,9.675568,0.004189853,2.1206641
250,1436543312011,9.663596,0.036511578,2.0751743
251,1436543312021,9.655815,0.06943185,2.083554
252,1436543312041,9.68694,0.05686229,2.1122844
253,1436543312061,9.688736,0.0053869537,2.0751743
254,1436543312082,9.651027,0.006584055,2.0925324
255,1436543312101,9.662399,0.050876785,2.1188686
256,1436543312121,9.718663,0.0664391,2.1098902
257,1436543312144,9.72824,0.04070143,2.1176715
258,1436543312165,9.657013,0.049081136,2.1188686
259,1436543312182,9.567828,0.051475335,2.1122844
260,1436543312204,9.635465,-0.002992752,2.1308396
261,1436543312224,9.711481,-0.025737667,2.0907366
262,1436543312243,9.692925,0.026934769,2.094328
263,1436543312266,9.671378,0.091578215,2.0853498
264,1436543312282,9.662399,0.09876082,2.071583
265,1436543312304,9.674969,0.05626374,2.0973208
266,1436543312324,9.667787,-0.01316811,2.1200657
267,1436543312343,9.664195,-0.049081136,2.1098902
268,1436543312366,9.67018,-0.020949265,2.1176715
269,1436543312436,9.654618,0.044891283,2.112883
270,1436543312437,9.687539,0.08379706,2.1254525
271,1436543312438,9.687539,0.044292733,2.1176715
272,1436543312444,9.680955,-0.006584055,2.095525
273,1436543312463,9.67018,-0.029927522,2.1027076
274,1436543312485,9.626487,0.034117375,2.0721815
275,1436543312502,9.657611,0.090979666,2.099715
276,1436543312527,9.718663,0.06823475,2.1404164
277,1436543312542,9.706094,-0.029927522,2.1266496
278,1436543312567,9.6845455,0.027533319,2.0362685
279,1436543312588,9.610924,0.11971009,2.0679917
280,1436543312603,9.639056,0.077213004,2.171541
281,1436543312625,9.724648,-0.037110128,2.1709423
282,1436543312646,9.758167,-0.011971008,2.1266496
283,1436543312666,9.715671,0.02873042,2.1092918
284,1436543312686,9.584588,0.110731825,2.0614076
285,1436543312706,9.624092,0.09935937,2.0937295
286,1436543312726,9.764751,0.037708677,2.1080947
287,1436543312746,9.743204,-0.04369418,2.1158757
288,1436543312766,9.601946,-0.007182605,2.147599
289,1436543312786,9.585785,0.050278235,2.0973208
290,1436543312807,9.663596,0.108936176,2.1284454
291,1436543312823,9.692925,0.077811554,2.1332338
292,1436543312846,9.670779,0.017357962,2.1218612
293,1436543312864,9.664195,0.04070143,2.1458032
294,1436543312883,9.698911,0.092775315,2.134431
295,1436543312903,9.687539,0.08200141,2.135628
296,1436543312929,9.634866,0.006584055,2.1051018
297,1436543312948,9.632472,0.024540568,2.1110873
298,1436543312969,9.713875,0.075417355,2.1122844
299,1436543312986,9.709685,0.079008654,2.0973208
300,1436543313005,9.676167,0.0676362,2.1188686
301,1436543313024,9.646238,0.030526072,2.1499932
302,1436543313044,9.704298,0.049679685,2.1416135
303,1436543313065,9.664794,0.046686932,2.1033063
304,1436543313089,9.609727,0.04249708,2.1057005
305,1436543313166,9.667188,0.06404489,2.1086931
306,1436543313167,9.778519,0.08319851,2.135628
307,1436543313168,9.69951,-0.013766659,2.142212
308,1436543313169,9.555259,-0.036511578,2.1134815
309,1436543313185,9.615114,0.08619126,2.0787656
310,1436543313205,9.797073,0.10175357,2.1170728
311,1436543313224,9.746197,0.055066638,2.1086931
312,1436543313244,9.558251,-0.008978256,2.131438
313,1436543313265,9.566631,0.02633622,2.1284454
314,1436543313284,9.637859,0.036511578,2.1284454
315,1436543313305,9.744401,0.05686229,2.0512323
316,1436543313324,9.762358,0.060453594,1.9997569
317,1436543313346,9.647436,0.074818805,2.1200657
318,1436543313364,9.5809965,-0.023942016,2.1589713
319,1436543313386,9.624092,-0.040102877,2.099715
320,1436543313406,9.639654,0.09696517,2.0937295
321,1436543313427,9.67018,0.12270284,2.106299
322,1436543313446,9.716867,0.010773907,2.1051018
323,1436543313466,9.611523,-0.023343466,2.0069396
324,1436543313486,9.459491,0.047285482,1.9973627
325,1436543313507,9.26556,0.074220255,2.0775685
326,1436543313527,9.00579,-0.022744916,2.2224178
327,1436543313544,8.970475,-0.0077811554,2.111686
328,1436543313567,9.244013,0.3764882,1.934515
329,1436543313587,9.734824,0.6302736,1.8297687
330,1436543313608,9.989806,0.59615624,1.951873
331,1436543313627,10.326192,0.48841715,2.3301568
332,1436543313647,10.403405,0.45010993,2.6396074
333,1436543313666,10.025121,0.38187516,2.823961
334,1436543313686,9.423578,0.33758244,2.8293478
335,1436543313707,8.965088,0.3274071,2.6569653
336,1436543313727,8.860941,0.3453636,2.4331074
337,1436543313747,9.087193,0.39444473,2.2409728
338,1436543313765,9.376891,0.45729253,2.1996727
339,1436543313784,9.520543,0.5398925,2.107496
340,1436543313804,9.563639,0.60094464,2.1021092
341,1436543313827,9.600749,0.55006784,2.1350293
342,1436543313895,9.554661,0.5291186,2.094328
343,1436543313896,9.49301,0.5327099,2.1452048
344,1436543313897,9.52593,0.53211135,2.2391772
345,1436543313903,9.546879,0.4914099,2.232593
346,1436543313924,9.556456,0.3585317,2.0506337
347,1436543313944,9.540894,-0.094570965,1.9680338
348,1436543313979,9.482835,-0.6099229,1.99437
349,1436543313987,9.152434,-0.89603,1.8860323
350,1436543314005,8.7849245,-1.1306617,1.8668787
351,1436543314026,8.905831,-1.4754268,2.112883
352,1436543314044,9.802461,-1.7705121,2.7156234
353,1436543314067,11.072584,-1.7585411,2.8574798
354,1436543314087,11.828553,-1.2078748,2.871845
355,1436543314107,11.575367,-0.27234045,2.9496565
356,1436543314124,10.511144,-0.033518825,2.5833437
357,1436543314147,9.646837,-0.415394,2.1015105
358,1436543314167,9.417592,-0.48722005,1.4012065
359,1436543314187,9.380483,-0.5057751,0.90620536
360,1436543314207,9.211093,-0.88046765,0.80086046
361,1436543314226,9.200318,-1.2318168,0.700304
362,1436543314247,9.46847,-2.0350714,0.6374562
363,1436543314265,9.97604,-2.6132712,0.78649527
364,1436543314286,10.535685,-2.7700913,1.2731167
365,1436543314307,10.849923,-2.4408886,1.970428
366,1436543314327,10.831967,-1.9470845,2.3104045
367,1436543314346,10.486005,-1.347337,2.4528596
368,1436543314365,9.864111,-0.87448215,2.2319946
369,1436543314386,9.465476,-0.75716627,2.184709
370,1436543314407,9.435549,-1.1528081,2.456451
371,1436543314432,9.419388,-1.6819267,2.4073699
372,1436543314447,9.218874,-1.79206,2.433706
373,1436543314466,8.388085,-1.4622587,2.232593
374,1436543314487,7.0610995,-1.0319009,2.0290859
375,1436543314504,5.827487,-0.99658644,1.9710265
376,1436543314526,5.527613,-1.2731167,0.95588505
377,1436543314547,5.9400144,-1.9213469,-0.30765492
378,1436543314618,8.225879,-0.33039984,-4.7267528
379,1436543314619,10.994174,2.4546554,-4.732738
380,1436543314620,12.482769,3.8181531,-0.4961983
381,1436543314626,13.056779,2.6964695,1.7699136
382,1436543314645,13.628395,0.866701,2.2008698
383,1436543314664,15.118187,0.46746787,1.5245079
384,1436543314684,16.654066,1.1749545,0.5141548
385,1436543314704,16.78874,1.2186487,0.6667852
386,1436543314730,15.937004,0.52373165,1.5646108
387,1436543314745,14.659099,0.6619968,1.2240356
388,1436543314769,12.749125,0.8295909,1.5454572
389,1436543314788,11.660959,0.8343793,1.4682442
390,1436543314805,10.79366,1.7615339,0.4417302
391,1436543314828,8.127716,1.5328877,-0.5542577
392,1436543314845,5.808932,0.3842694,-0.32321724
393,1436543314867,0.004189853,-1.4526819,-0.7781156
394,1436543314887,-3.5116954,-1.2246342,-3.2333694
395,1436543314908,-1.650802,-0.25198972,-2.9442697
396,1436543314926,0.94930094,-1.2054806,-0.623091
397,1436543314946,2.0590134,-2.64679,2.396596
398,1436543314967,5.345055,-0.350152,3.9378633
399,1436543314988,12.065579,0.5847838,-4.3119574
400,1436543315007,19.607914,-2.1493945,-6.2805896
401,1436543315026,19.607914,-7.185598,4.3185415
402,1436543315048,19.607914,0.6811504,8.331821
403,1436543315065,17.03235,4.3436804,4.8320975
404,1436543315085,13.619416,-0.7302315,2.4211364
405,1436543315106,11.52449,-5.040992,0.30226797
406,1436543315127,12.774861,-4.2359414,-0.504578
407,1436543315152,13.252505,-2.2421699,-0.14664486
408,1436543315167,13.059772,1.4083891,0.24600422
409,1436543315188,10.449493,2.6743233,0.50876784
410,1436543315205,5.2223525,1.8363527,-0.11372458
411,1436543315226,-3.0137014,1.3210008,-1.4263457
412,1436543315246,-6.4787097,0.98102415,-2.3762453
413,1436543315267,-3.5990837,-1.596334,-2.8790276
414,1436543315286,0.3764882,-2.0500352,-0.43993455
415,1436543315345,3.9911342,-0.86490536,2.1751323
