id,attr_time,attr_x,attr_y,attr_z
1,1436374238017,-0.021911465,0.09691508,0.075428575
2,1436374238037,-0.01091589,0.0914173,0.07451228
3,1436374238059,-0.019468006,0.08561408,0.073901415
4,1436374238080,-0.05001127,0.0614849,0.073901415
5,1436374238096,-0.054898188,0.050183892,0.07420685
6,1436374238121,-0.037488528,0.068509854,0.07726118
7,1436374238141,-0.026492953,0.0746185,0.07756661
8,1436374238159,-0.03840483,0.07522937,0.07787204
9,1436374238176,-0.05520362,0.060568605,0.08001007
10,1436374238197,-0.052149296,0.05995774,0.07481772
11,1436374238221,-0.041764587,0.051405624,0.075123146
12,1436374238241,-0.029547282,0.08439235,0.07481772
13,1436374238257,-0.014581084,0.09660965,0.07603945
14,1436374238281,-0.03412877,0.07309134,0.075428575
15,1436374238298,-0.049705833,0.06728812,0.07176339
16,1436374238318,-0.027409252,0.099053115,0.067792766
17,1436374238341,-0.023133196,0.093249895,0.069319926
18,1436374238357,-0.013359353,0.08469778,0.06473844
19,1436374238380,-0.010305025,0.099053115,0.05801892
20,1436374238401,-0.015802812,0.0895847,0.06015695
21,1436374238420,-0.018551707,0.09416619,0.049161375
22,1436374238438,-0.0045018047,0.11432475,0.04763421
23,1436374238457,7.968396e-05,0.14486802,0.0512994
24,1436374238479,-0.020995166,0.122265995,0.06260041
25,1436374238497,-0.036572233,0.1167682,0.07115252
26,1436374238517,-0.03901569,0.082865186,0.07176339
27,1436374238541,-0.032601606,0.081948884,0.06840363
28,1436374238557,-0.028630983,0.08469778,0.062294975
29,1436374238578,-0.020384304,0.11004869,0.05465916
30,1436374238602,-0.032601606,0.1176845,0.06046238
31,1436374238622,-0.02832555,0.12929094,0.07787204
32,1436374238640,-0.017329976,0.133567,0.08489699
33,1436374238664,-0.014886517,0.12715292,0.09100564
34,1436374238680,-0.014275651,0.11890623,0.09467083
35,1436374238701,0.004050307,0.10241287,0.09070021
36,1436374238722,0.02115453,0.09294446,0.08947848
37,1436374238741,0.015045881,0.05415452,0.09008934
38,1436374238762,0.004355736,0.055376247,0.079399206
39,1436374238781,-0.0072507,0.08836297,0.058935218
40,1436374238802,-0.03137988,0.1204334,0.059546083
41,1436374238819,-0.047567807,0.10729979,0.05099397
42,1436374238841,-0.045429777,0.10577263,0.052521132
43,1436374238862,-0.053065594,0.122265995,0.057408053
44,1436374238881,-0.054287322,0.08653037,0.058629785
45,1436374238901,-0.063755736,0.09722052,0.0653493
46,1436374238922,-0.05825795,0.081643455,0.056797188
47,1436374238941,-0.042375453,0.09996941,0.055270027
48,1436374238961,-0.027409252,0.11127041,0.04885594
49,1436374238981,-0.009999592,0.10791066,0.052521132
50,1436374239002,-0.0014474764,0.09111187,0.059546083
51,1436374239023,-0.009694159,0.087752104,0.069319926
52,1436374239042,-0.013664786,0.07217504,0.07115252
53,1436374239061,-0.017635409,0.087752104,0.073901415
54,1436374239082,-0.045429777,0.09019557,0.073595986
55,1436374239172,-0.04878954,0.0764511,0.06748733
56,1436374239173,-0.03840483,0.07889456,0.06321128
57,1436374239174,-0.030769013,0.09691508,0.06687646
58,1436374239175,-0.036572233,0.08469778,0.070847094
59,1436374239191,-0.043597184,0.099358544,0.07665031
60,1436374239202,-0.035961367,0.08500321,0.08306439
61,1436374239219,-0.0106104575,0.070342444,0.082453534
62,1436374239239,-0.013970219,0.06515009,0.073595986
63,1436374239264,-0.034434203,0.087141246,0.07298512
64,1436374239288,-0.03321247,0.07278591,0.0690145
65,1436374239298,-0.008472431,0.099358544,0.06046238
66,1436374239320,-0.03168531,0.110659555,0.07481772
67,1436374239339,-0.046346076,0.06912072,0.07665031
68,1436374239360,-0.042680882,0.097525954,0.07726118
69,1436374239382,-0.033517905,0.08989014,0.07329055
70,1436374239402,-0.029241849,0.077061966,0.068098195
71,1436374239422,-0.012137622,0.10516177,0.06137868
72,1436374239442,-0.009999592,0.11737907,0.06504387
73,1436374239461,-0.0069452673,0.110354125,0.059546083
74,1436374239481,-0.0005311817,0.11737907,0.061989546
75,1436374239502,-0.0045018047,0.10577263,0.06290584
76,1436374239522,-0.016108245,0.09844225,0.051604833
77,1436374239539,-0.024049494,0.1036346,0.053131998
78,1436374239567,-0.011221323,0.09569335,0.053131998
79,1436374239579,0.00221771,0.10607806,0.06015695
80,1436374239602,-0.0066398345,0.10577263,0.061989546
81,1436374239622,-0.0045018047,0.112492144,0.056797188
82,1436374239642,-0.011221323,0.11585191,0.06382214
83,1436374239662,-0.026187524,0.09691508,0.06993079
84,1436374239683,-0.017635409,0.07767283,0.066571034
85,1436374239702,-0.011832189,0.110354125,0.06993079
86,1436374239722,-0.028936416,0.11432475,0.0803155
87,1436374239742,-0.043291748,0.09172273,0.07573401
88,1436374239763,-0.03137988,0.11127041,0.07267968
89,1436374239782,-0.00938873,0.110659555,0.07481772
90,1436374239801,0.013213284,0.08408692,0.07176339
91,1436374239829,0.009548098,0.09538792,0.07298512
92,1436374239902,-0.014886517,0.06789899,0.07695574
93,1436374239903,-0.027103819,0.05904144,0.073901415
94,1436374239904,-0.027714685,0.07889456,0.06962536
95,1436374239905,-0.014886517,0.09844225,0.070847094
96,1436374239920,-0.01091589,0.0914173,0.073901415
97,1436374239941,-0.017635409,0.0895847,0.07267968
98,1436374239959,-0.019468006,0.10821609,0.07267968
99,1436374239986,-0.0124430545,0.07767283,0.07115252
100,1436374240001,0.004050307,0.082865186,0.057713486
101,1436374240021,-0.00358551,0.09172273,0.056491755
102,1436374240042,-0.020078871,0.09111187,0.05924065
103,1436374240062,-0.025271226,0.09996941,0.06168411
104,1436374240083,-0.026492953,0.111881286,0.06504387
105,1436374240101,-0.03046358,0.08469778,0.06993079
106,1436374240123,-0.025576659,0.056597978,0.069319926
107,1436374240143,-0.011832189,0.040715482,0.06870906
108,1436374240163,-0.019162573,0.050489325,0.063516706
109,1436374240183,-0.020078871,0.045602404,0.06137868
110,1436374240203,-0.01885714,0.05445995,0.05924065
111,1436374240220,-0.026492953,0.077367395,0.05557546
112,1436374240243,-0.046346076,0.08561408,0.062294975
113,1436374240263,-0.06558833,0.06820442,0.06473844
114,1436374240284,-0.076889336,0.071564175,0.0653493
115,1436374240300,-0.06009054,0.08653037,0.066571034
116,1436374240323,-0.025576659,0.0923336,0.06046238
117,1436374240343,-0.028020117,0.07981086,0.0653493
118,1436374240363,-0.04420805,0.070037015,0.06565473
119,1436374240383,-0.04573521,0.055070817,0.06748733
120,1436374240403,-0.0353505,0.059346873,0.06290584
121,1436374240420,-0.003890939,0.087141246,0.06290584
122,1436374240443,-0.022827763,0.08836297,0.050077673
123,1436374240463,-0.046040643,0.09813681,0.046107046
124,1436374240483,-0.048484102,0.0914173,0.032057147
125,1436374240505,-0.014581084,0.088668406,0.023199601
126,1436374240523,-0.007861566,0.11340845,0.02442133
127,1436374240543,-0.02466036,0.112492144,0.030835416
128,1436374240561,-0.037793964,0.1176845,0.031140849
129,1436374240622,-0.046040643,0.12990181,0.038471233
130,1436374240632,-0.05153843,0.10607806,0.047023345
131,1436374240633,-0.051843863,0.11432475,0.056797188
132,1436374240640,-0.05245473,0.12440402,0.06504387
133,1436374240661,-0.043291748,0.14975493,0.06137868
134,1436374240682,-0.028630983,0.16075051,0.052826565
135,1436374240701,-0.01519195,0.14517343,0.04885594
136,1436374240720,0.014435016,0.15830705,0.038776666
137,1436374240740,0.010769822,0.15219839,0.03541691
138,1436374240763,-0.0063344017,0.14242455,0.035111472
139,1436374240786,-0.012748487,0.13448331,0.036333203
140,1436374240801,-0.023438629,0.15311468,0.036638636
141,1436374240824,-0.031074446,0.16991347,0.040914692
142,1436374240844,-0.032601606,0.15708531,0.037860367
143,1436374240863,-0.025882091,0.13631588,0.036333203
144,1436374240884,-0.01885714,0.13051268,0.045801617
145,1436374240903,-0.019468006,0.15830705,0.051604833
146,1436374240924,-0.008777864,0.13417786,0.055270027
147,1436374240944,-0.007556133,0.13814849,0.060767815
148,1436374240964,-0.029547282,0.12868008,0.0653493
149,1436374240984,-0.045429777,0.10699436,0.06840363
150,1436374241003,-0.04084829,0.106383495,0.07206882
151,1436374241022,-0.027409252,0.10332917,0.058629785
152,1436374241044,-0.025576659,0.12532032,0.051604833
153,1436374241064,-0.032296173,0.15189296,0.04763421
154,1436374241084,-0.04084829,0.13998109,0.051910266
155,1436374241104,-0.05001127,0.11524104,0.0512994
156,1436374241122,-0.03840483,0.09416619,0.053742863
157,1436374241143,-0.02252233,0.08805754,0.061989546
158,1436374241164,-0.03290704,0.076145664,0.0653493
159,1436374241185,-0.04878954,0.09263903,0.066571034
160,1436374241204,-0.026187524,0.10607806,0.063516706
161,1436374241221,-0.012748487,0.11737907,0.07298512
162,1436374241243,-0.021911465,0.08439235,0.08184266
163,1436374241262,-0.03321247,0.08133802,0.082453534
164,1436374241290,-0.0362668,0.087446675,0.08428612
165,1436374241302,-0.030769013,0.07400764,0.079399206
166,1436374241349,-0.028630983,0.06942615,0.07665031
167,1436374241350,-0.031074446,0.08439235,0.07695574
168,1436374241369,-0.01519195,0.10852152,0.07145795
169,1436374241381,-0.028630983,0.11524104,0.078177474
170,1436374241411,-0.05276016,0.09660965,0.08306439
171,1436374241424,-0.054287322,0.08225432,0.07787204
172,1436374241441,-0.045124345,0.10699436,0.07206882
173,1436374241462,-0.03840483,0.11157585,0.070847094
174,1436374241481,-0.025576659,0.09508249,0.06993079
175,1436374241505,-0.009694159,0.10729979,0.0690145
176,1436374241527,-0.0029746443,0.109132394,0.06382214
177,1436374241542,-0.008472431,0.09080643,0.05068854
178,1436374241561,-0.01091589,0.11432475,0.050077673
179,1436374241581,-0.025882091,0.097525954,0.04519075
180,1436374241601,-0.030769013,0.11401931,0.046107046
181,1436374241621,-0.047567807,0.1204334,0.047023345
182,1436374241644,-0.0503167,0.11585191,0.05068854
183,1436374241664,-0.020689737,0.123487726,0.0522157
184,1436374241684,-0.0051126704,0.13662133,0.052521132
185,1436374241704,-0.009999592,0.13631588,0.043663587
186,1436374241724,-0.0032800734,0.13601047,0.034500606
187,1436374241743,-0.003890939,0.16777545,0.027475657
188,1436374241762,0.014435016,0.123487726,0.019839842
189,1436374241784,0.038869627,0.15219839,0.025948495
190,1436374241804,0.040091358,0.18457425,0.025643062
191,1436374241822,0.011380687,0.15158752,0.030529983
192,1436374241842,-0.009083297,0.15219839,0.035111472
193,1436374241863,-0.021911465,0.14456257,0.033278875
194,1436374241886,-0.009083297,0.12837464,0.037554935
195,1436374241906,-0.008472431,0.12012796,0.034806043
196,1436374241926,-0.0026692078,0.121960565,0.043358155
197,1436374241942,-0.010305025,0.13998109,0.045801617
198,1436374241963,-0.023744062,0.13203984,0.056186326
199,1436374241983,-0.028630983,0.11982253,0.06260041
200,1436374242004,-0.017024543,0.10180201,0.0671819
201,1436374242023,-0.031990744,0.09111187,0.07481772
202,1436374242090,-0.04878954,0.056597978,0.07665031
203,1436374242091,-0.036572233,0.08622494,0.07054166
204,1436374242092,-0.017329976,0.109132394,0.06046238
205,1436374242119,-0.027409252,0.116462775,0.056186326
206,1436374242121,-0.047262374,0.12806922,0.055270027
207,1436374242144,-0.062534004,0.1204334,0.06748733
208,1436374242165,-0.040237423,0.09538792,0.06596017
209,1436374242181,-0.023744062,0.08805754,0.07206882
210,1436374242201,-0.022827763,0.088973835,0.08001007
211,1436374242226,-0.026187524,0.076145664,0.082453534
212,1436374242243,-0.025882091,0.09263903,0.07298512
213,1436374242263,-0.021911465,0.106383495,0.07206882
214,1436374242282,-0.0029746443,0.106383495,0.06748733
215,1436374242303,-0.015802812,0.09386076,0.069319926
216,1436374242325,-0.036877666,0.097525954,0.06962536
217,1436374242345,-0.020078871,0.11157585,0.069319926
218,1436374242366,-0.018551707,0.11707364,0.073901415
219,1436374242385,-0.047262374,0.097525954,0.07267968
220,1436374242405,-0.048178673,0.09202816,0.07054166
221,1436374242425,-0.03137988,0.09080643,0.07176339
222,1436374242445,-0.001752913,0.082865186,0.06504387
223,1436374242463,-0.0069452673,0.09538792,0.06290584
224,1436374242482,-0.009999592,0.100885704,0.056491755
225,1436374242507,0.004355736,0.1353996,0.056491755
226,1436374242523,-0.0051126704,0.121960565,0.06015695
227,1436374242545,-0.030769013,0.11463018,0.07176339
228,1436374242563,-0.037488528,0.094471626,0.07603945
229,1436374242582,-0.016413677,0.10119114,0.07573401
230,1436374242602,-0.0048072413,0.10943782,0.06504387
231,1436374242627,-0.011526756,0.11432475,0.062294975
232,1436374242648,-0.01519195,0.122265995,0.06382214
233,1436374242663,-0.014275651,0.122265995,0.06748733
234,1436374242686,-0.017329976,0.100885704,0.06596017
235,1436374242702,-0.02832555,0.10607806,0.067792766
236,1436374242722,-0.026798386,0.09844225,0.0662656
237,1436374242742,-0.014275651,0.102107435,0.059851516
238,1436374242763,-0.008777864,0.11554648,0.058324352
239,1436374242831,-0.010305025,0.1204334,0.043358155
240,1436374242832,-0.015497379,0.13295613,0.021061573
241,1436374242833,-0.00358551,0.15616901,0.013120323
242,1436374242851,0.02543059,0.18732314,0.006095376
243,1436374242862,0.02970665,0.19587526,0.0048736446
244,1436374242886,0.043145686,0.13937022,0.0091497
245,1436374242902,0.0770487,0.120738834,0.021367006
246,1436374242925,0.098734416,0.13662133,0.03938753
247,1436374242945,0.07582698,0.15189296,0.0653493
248,1436374242964,0.010158956,0.1045509,0.073901415
249,1436374242983,-0.0503167,0.018724333,0.07054166
250,1436374243003,-0.0503167,0.093555324,0.087035015
251,1436374243025,-0.08971751,0.17510584,0.0980306
252,1436374243043,-0.12270423,0.14547887,0.11238593
253,1436374243066,-0.16271591,0.07064788,0.11757828
254,1436374243085,-0.13308895,0.0184189,0.11666198
255,1436374243106,-0.07078069,0.062401198,0.0980306
256,1436374243126,-0.035961367,0.062095765,0.09100564
257,1436374243145,-0.024049494,0.043769807,0.07756661
258,1436374243167,-0.0353505,0.058430575,0.06046238
259,1436374243186,-0.03504507,0.10424547,0.07115252
260,1436374243206,-0.023744062,0.088668406,0.0671819
261,1436374243226,-0.033823337,0.08989014,0.07298512
262,1436374243244,-0.046040643,0.098747686,0.085507855
263,1436374243266,-0.046346076,0.07858913,0.08611872
264,1436374243283,-0.041459154,0.085919514,0.07603945
265,1436374243302,-0.025882091,0.106383495,0.06993079
266,1436374243323,-0.013970219,0.10729979,0.06137868
267,1436374243348,-0.0014474764,0.12440402,0.05435373
268,1436374243370,-0.008166999,0.13387243,0.056797188
269,1436374243388,-0.025271226,0.112186715,0.06412757
270,1436374243406,-0.024965793,0.11493561,0.058935218
271,1436374243423,-0.03504507,0.13051268,0.06443301
272,1436374243442,-0.053676456,0.11493561,0.067792766
273,1436374243463,-0.038099393,0.11401931,0.0662656
274,1436374243485,-0.024354927,0.11707364,0.0662656
275,1436374243503,-0.033823337,0.11463018,0.054964595
276,1436374243558,-0.039321125,0.11737907,0.06504387
277,1436374243559,-0.03840483,0.106383495,0.080926366
278,1436374243577,-0.023133196,0.10302374,0.07054166
279,1436374243583,-0.008472431,0.11524104,0.073595986
280,1436374243603,-0.0048072413,0.08225432,0.079399206
281,1436374243623,-0.0063344017,0.10394004,0.07267968
282,1436374243643,-0.024049494,0.12104426,0.069319926
283,1436374243664,-0.057036217,0.11982253,0.0662656
284,1436374243683,-0.048178673,0.11524104,0.06687646
285,1436374243704,-0.030158147,0.110354125,0.0662656
286,1436374243726,-0.023133196,0.100885704,0.06137868
287,1436374243744,-0.024354927,0.12440402,0.05435373
288,1436374243765,-0.019162573,0.12898551,0.058629785
289,1436374243783,-0.011526756,0.1195171,0.059546083
290,1436374243805,-0.035655934,0.11554648,0.06840363
291,1436374243826,-0.043291748,0.08927927,0.06473844
292,1436374243846,-0.036877666,0.11432475,0.07176339
293,1436374243866,-0.014886517,0.10394004,0.06473844
294,1436374243883,-0.020384304,0.11982253,0.06870906
295,1436374243906,-0.035655934,0.087446675,0.0671819
296,1436374243926,-0.027103819,0.10577263,0.068098195
297,1436374243946,-0.027103819,0.10699436,0.06748733
298,1436374243964,-0.022216897,0.11401931,0.058935218
299,1436374243985,-0.023133196,0.1204334,0.06504387
300,1436374244005,-0.036877666,0.10699436,0.07145795
301,1436374244028,-0.03046358,0.08133802,0.06473844
302,1436374244049,-0.02252233,0.10332917,0.06473844
303,1436374244066,-0.024965793,0.1054672,0.059851516
304,1436374244084,-0.026187524,0.11432475,0.06015695
305,1436374244104,-0.037488528,0.11157585,0.0671819
306,1436374244124,-0.03168531,0.09263903,0.07329055
307,1436374244150,-0.027409252,0.07889456,0.070847094
308,1436374244169,-0.040237423,0.0755348,0.07481772
309,1436374244190,-0.038099393,0.077061966,0.070847094
310,1436374244204,-0.03412877,0.09722052,0.07023622
311,1436374244229,-0.025576659,0.10332917,0.07115252
312,1436374244285,-0.024354927,0.10668893,0.07115252
313,1436374244286,-0.023744062,0.10760523,0.066571034
314,1436374244298,-0.03046358,0.10119114,0.072374254
315,1436374244305,-0.026798386,0.08072716,0.07267968
316,1436374244355,-0.043597184,0.10394004,0.07176339
317,1436374244356,-0.051232997,0.07095331,0.073595986
318,1436374244365,-0.053065594,0.077367395,0.07176339
319,1436374244386,-0.043902613,0.087446675,0.07329055
320,1436374244404,-0.020995166,0.08255975,0.07267968
321,1436374244424,-0.008777864,0.09538792,0.061073247
322,1436374244448,-0.027714685,0.12684748,0.06321128
323,1436374244471,-0.034739636,0.11432475,0.06993079
324,1436374244489,-0.0353505,0.10516177,0.06870906
325,1436374244504,-0.020384304,0.09263903,0.073595986
326,1436374244526,-0.021606032,0.08530864,0.073595986
327,1436374244546,-0.023744062,0.087446675,0.06962536
328,1436374244566,-0.023438629,0.087141246,0.0662656
329,1436374244586,-0.023744062,0.11096498,0.06504387
330,1436374244609,-0.023744062,0.09111187,0.063516706
331,1436374244624,-0.023438629,0.1186008,0.06168411
332,1436374244644,-0.034434203,0.11432475,0.05924065
333,1436374244664,-0.023438629,0.12501489,0.06015695
334,1436374244684,-0.025271226,0.122265995,0.068098195
335,1436374244710,-0.03412877,0.10760523,0.07481772
336,1436374244724,-0.017329976,0.09080643,0.070847094
337,1436374244754,-0.030769013,0.099358544,0.070847094
338,1436374244764,-0.031074446,0.07095331,0.06443301
339,1436374244790,-0.01519195,0.09630422,0.06473844
340,1436374244804,-0.026798386,0.093249895,0.07329055
341,1436374244824,-0.054898188,0.08805754,0.079399206
342,1436374244844,-0.12667486,0.07248048,0.04305272
343,1436374244864,-0.20058954,-0.015484117,-0.06171067
344,1436374244884,-0.15446922,0.07492393,-0.21106723
345,1436374244904,-0.203033,0.328433,-0.23092034
346,1436374244924,-0.43760526,0.33515254,-0.109358154
347,1436374244944,-0.6575167,0.19373724,-0.051020525
348,1436374244964,-0.7396781,0.046824135,0.10077949
349,1436374244985,-0.892089,-0.10161612,0.17286158
350,1436374245006,-1.0041828,-0.17217106,0.17408332
351,1436374245024,-1.0063208,-0.28518113,0.023199601
352,1436374245044,-1.1107787,-0.48462865,-0.072706245
353,1436374245085,-1.1492633,-0.22714892,-0.022920728
354,1436374245086,-1.1138331,-0.27235296,-0.0100925565
355,1436374245109,-0.9754721,-0.6758294,-0.13287646
356,1436374245124,-0.760753,-0.88169104,-0.3307968
357,1436374245145,-0.50296783,-0.6361232,-0.46396545
358,1436374245165,-0.35483304,-0.2784616,-0.5818624
359,1436374245184,-0.21280685,-0.0044885427,-0.71900165
360,1436374245207,-0.22196984,-0.011513494,-0.75931877
361,1436374245223,-0.48555818,-0.3878065,-0.6194306
362,1436374245243,-0.68042415,-0.7421083,-0.46304914
363,1436374245265,-0.6254463,-0.9809567,-0.4526644
364,1436374245284,-0.41011634,-0.9232299,-0.42303747
365,1436374245303,-0.29130304,-0.70209664,-0.3756954
366,1436374245325,-0.25312397,-0.66483384,-0.36072922
367,1436374245344,-0.24518272,-0.55976504,-0.29811552
368,1436374245365,-0.26045436,-0.67888373,-0.25902015
369,1436374245385,-0.31115615,-0.68713045,-0.22145194
370,1436374245404,-0.34292117,-0.65536547,-0.11241249
371,1436374245425,-0.3646069,-0.7543256,-0.13806883
372,1436374245445,-0.3255115,-0.61779726,-0.13654166
373,1436374245465,-0.24854246,-0.54113364,-0.14539921
374,1436374245485,-0.15324749,-0.4956242,-0.110885315
375,1436374245504,-0.05245473,-0.5698443,-0.10966358
376,1436374245524,0.0046611726,-0.37161857,-0.05896177
