id,attr_time,attr_x,attr_y,attr_z
1,1436800486872,-0.014966198,0.03176499,0.0
2,1436800486873,-0.018325957,0.025961773,0.0018325958
3,1436800486874,-0.015882496,0.022602014,-0.0033597588
4,1436800486875,-0.011301007,0.01985312,-0.0018325958
5,1436800486893,-0.01160644,0.02565634,0.0061086523
6,1436800486915,-0.013744468,0.023823744,0.0030543262
7,1436800486931,-0.018020526,0.028099801,0.004886922
8,1436800486951,-0.017715093,0.02687807,0.0070249503
9,1436800486973,-0.01038471,0.018325957,0.009773844
10,1436800486993,-0.008857546,0.014966198,0.0021380284
11,1436800487013,-0.008552114,0.021380283,-0.0036651916
12,1436800487033,-0.013744468,0.026267206,-0.0033597588
13,1436800487057,-0.01160644,0.025350908,-0.00061086525
14,1436800487075,-0.011911872,0.022907447,-0.002443461
15,1436800487094,-0.008552114,0.023823744,-0.002443461
16,1436800487115,0.0012217305,0.020158553,-0.0070249503
17,1436800487134,-0.004276057,0.015577064,-0.010995574
18,1436800487154,-0.008246681,0.011911872,-0.009773844
19,1436800487176,-0.014049901,0.013744468,-0.007941248
20,1436800487194,-0.01160644,0.018936822,-0.008552114
21,1436800487215,-0.01038471,0.021685716,-0.008552114
22,1436800487236,-0.0106901415,0.024740042,-0.007330383
23,1436800487254,-0.009162978,0.027488936,-0.005192355
24,1436800487276,-0.010995574,0.021380283,-0.008246681
25,1436800487296,-0.004886922,0.015271631,-0.011301007
26,1436800487316,-0.00580322,0.018020526,-0.018936822
27,1436800487336,-0.00061086525,0.016187929,-0.013439035
28,1436800487357,-0.0061086523,0.017104227,-0.014660766
29,1436800487374,-0.009162978,0.01863139,-0.016187929
30,1436800487392,-0.008857546,0.022907447,-0.01863139
31,1436800487413,-0.0076358155,0.026267206,-0.02076942
32,1436800487433,-0.008857546,0.022296581,-0.014966198
33,1436800487457,-0.009468411,0.022602014,-0.013744468
34,1436800487477,-0.015271631,0.021380283,-0.013439035
35,1436800487497,-0.0125227375,0.018325957,-0.016187929
36,1436800487516,-0.011911872,0.021380283,-0.01740966
37,1436800487536,-0.0125227375,0.025961773,-0.01282817
38,1436800487613,-0.014660766,0.02321288,-0.009162978
39,1436800487614,-0.012217305,0.018325957,-0.007941248
40,1436800487615,-0.012217305,0.01985312,-0.0070249503
41,1436800487618,-0.0106901415,0.01863139,-0.014966198
42,1436800487633,-0.013744468,0.016493361,-0.011301007
43,1436800487655,-0.013439035,0.020158553,-0.008857546
44,1436800487672,-0.014049901,0.022296581,-0.007330383
45,1436800487692,-0.0125227375,0.021991149,-0.010079277
46,1436800487714,-0.0143553335,0.025961773,-0.010079277
47,1436800487734,-0.011301007,0.021380283,-0.014049901
48,1436800487753,-0.013439035,0.018325957,-0.009162978
49,1436800487773,-0.014049901,0.023823744,-0.008857546
50,1436800487798,-0.014049901,0.022907447,-0.013439035
51,1436800487816,-0.018936822,0.021685716,-0.013439035
52,1436800487836,-0.01282817,0.02565634,-0.013744468
53,1436800487856,-0.014049901,0.020463986,-0.008857546
54,1436800487876,-0.013439035,0.022296581,-0.01160644
55,1436800487896,-0.017104227,0.027183503,-0.0106901415
56,1436800487916,-0.014966198,0.02565634,-0.009162978
57,1436800487936,-0.014660766,0.023518313,-0.01740966
58,1436800487956,-0.015271631,0.01985312,-0.01740966
59,1436800487976,-0.01740966,0.02443461,-0.016493361
60,1436800487994,-0.013744468,0.026572637,-0.015882496
61,1436800488013,-0.01160644,0.026572637,-0.008552114
62,1436800488036,-0.012217305,0.02565634,-0.014660766
63,1436800488052,-0.01160644,0.025350908,-0.015271631
64,1436800488074,-0.007941248,0.02443461,-0.013133603
65,1436800488092,-0.007941248,0.027794369,-0.018936822
66,1436800488118,-0.0033597588,0.022907447,-0.01985312
67,1436800488139,-0.0021380284,0.01282817,-0.019242255
68,1436800488156,-0.004276057,0.014660766,-0.022296581
69,1436800488176,-0.009773844,0.020158553,-0.01985312
70,1436800488195,-0.010079277,0.024129177,-0.015577064
71,1436800488213,-0.00061086525,0.01863139,-0.011301007
72,1436800488233,-0.008857546,0.013744468,-0.009468411
73,1436800488255,-0.010995574,0.016798794,-0.009162978
74,1436800488275,-0.013744468,0.023823744,-0.011301007
75,1436800488347,-0.0143553335,0.027183503,-0.014660766
76,1436800488348,-0.010079277,0.025350908,-0.016798794
77,1436800488349,-0.004276057,0.01985312,-0.018936822
78,1436800488357,-0.008857546,0.01863139,-0.014660766
79,1436800488374,-0.0061086523,0.02687807,-0.021380283
80,1436800488395,-0.004886922,0.020463986,-0.017104227
81,1436800488413,-0.007330383,0.01863139,-0.016798794
82,1436800488439,-0.0036651916,0.013744468,-0.018936822
83,1436800488467,-0.007330383,0.0143553335,-0.014660766
84,1436800488474,-0.0070249503,0.015882496,-0.019242255
85,1436800488495,-0.0067195175,0.01985312,-0.018020526
86,1436800488514,-0.004276057,0.01282817,-0.01985312
87,1436800488536,-0.005192355,0.009162978,-0.021991149
88,1436800488556,-0.009468411,0.013133603,-0.02076942
89,1436800488576,-0.015577064,0.01740966,-0.020463986
90,1436800488596,-0.009162978,0.01863139,-0.0125227375
91,1436800488615,-0.0076358155,0.024129177,-0.011911872
92,1436800488636,-0.010079277,0.025961773,-0.007941248
93,1436800488656,-0.007330383,0.01740966,-0.004581489
94,1436800488676,-0.013439035,0.01863139,-0.004276057
95,1436800488696,-0.01160644,0.016798794,-0.0012217305
96,1436800488716,-0.009468411,0.01985312,-0.0012217305
97,1436800488735,-0.008246681,0.025045475,-0.006414085
98,1436800488754,-0.01038471,0.02565634,-0.009773844
99,1436800488776,-0.007941248,0.022907447,-0.015577064
100,1436800488794,-0.002443461,0.021991149,-0.015577064
101,1436800488814,-0.0027488936,0.0143553335,-0.013439035
102,1436800488833,-0.0061086523,0.015271631,-0.016493361
103,1436800488857,-0.007941248,0.025350908,-0.018325957
104,1436800488877,-0.008857546,0.02443461,-0.013439035
105,1436800488896,-0.016493361,0.025961773,-0.008857546
106,1436800488917,-0.0125227375,0.026267206,-0.014049901
107,1436800489098,-0.0036651916,0.026572637,-0.01863139
108,1436800489099,-0.01038471,0.025961773,-0.017104227
109,1436800489100,-0.011911872,0.02321288,-0.015271631
110,1436800489101,-0.0067195175,0.022907447,-0.012217305
111,1436800489102,-0.0061086523,0.015577064,-0.01985312
112,1436800489103,-0.009162978,0.02107485,-0.01985312
113,1436800489104,-0.008246681,0.020463986,-0.02076942
114,1436800489105,-0.0033597588,0.0143553335,-0.020463986
115,1436800489106,-0.0076358155,0.021685716,-0.022296581
116,1436800489188,-0.0061086523,0.017715093,-0.02687807
117,1436800489189,0.0015271631,0.01160644,-0.029626964
118,1436800489190,0.0018325958,0.014660766,-0.032375857
119,1436800489208,-0.0012217305,0.014049901,-0.03359759
120,1436800489209,-0.004886922,0.020158553,-0.038179077
121,1436800489215,-0.0070249503,0.021991149,-0.040927973
122,1436800489233,-0.0033597588,0.020463986,-0.03726278
123,1436800489254,-0.0021380284,0.022602014,-0.03176499
124,1436800489274,-0.0018325958,0.02107485,-0.029932396
125,1436800489296,-0.006414085,0.023823744,-0.031154128
126,1436800489314,-0.0076358155,0.035124753,-0.028099801
127,1436800489336,-0.004581489,0.029932396,-0.020463986
128,1436800489358,-0.005497787,0.032375857,-0.02076942
129,1436800489374,-0.0106901415,0.025045475,-0.018325957
130,1436800489395,-0.004886922,0.024129177,-0.024740042
131,1436800489414,-0.0067195175,0.0290161,-0.035430185
132,1436800489434,-0.0076358155,0.03145956,-0.04062254
133,1436800489454,-0.01282817,0.028099801,-0.04550946
134,1436800489474,-0.007941248,0.03023783,-0.050396383
135,1436800489494,-0.008857546,0.03390302,-0.0421497
136,1436800489525,-0.004581489,0.032375857,-0.038789943
137,1436800489534,-0.017104227,0.030848695,-0.032986723
138,1436800489552,-0.011301007,0.030543262,-0.027488936
139,1436800489572,-0.01160644,0.024740042,-0.025961773
140,1436800489598,-0.015271631,0.022602014,-0.029932396
141,1436800489615,-0.01160644,0.02687807,-0.029321533
142,1436800489632,-0.013439035,0.019547688,-0.02687807
143,1436800489655,-0.024129177,0.02321288,-0.020463986
144,1436800489675,-0.02687807,0.02687807,-0.020463986
145,1436800489693,-0.022296581,0.030543262,-0.018936822
146,1436800489716,-0.014966198,0.026267206,-0.014966198
147,1436800489733,-0.01740966,0.019547688,-0.017715093
148,1436800489753,-0.014049901,0.02107485,-0.021380283
149,1436800489775,-0.01740966,0.02443461,-0.019242255
150,1436800489793,-0.016798794,0.028405234,-0.014660766
151,1436800489814,-0.019242255,0.024129177,-0.013439035
152,1436800489836,-0.015271631,0.016493361,-0.011911872
153,1436800489855,-0.018325957,0.018020526,-0.01863139
154,1436800489874,-0.015271631,0.023823744,-0.029626964
155,1436800489898,-0.011301007,0.025045475,-0.028710667
156,1436800489918,-0.008857546,0.029626964,-0.025045475
157,1436800489937,-0.010995574,0.020158553,-0.01985312
158,1436800489957,-0.011911872,0.02321288,-0.01863139
159,1436800489978,-0.009468411,0.019547688,-0.021991149
160,1436800489998,-0.008857546,0.021380283,-0.025350908
161,1436800490018,-0.0070249503,0.02107485,-0.022907447
162,1436800490039,-0.014049901,0.018020526,-0.018936822
163,1436800490056,-0.013744468,0.02321288,-0.024129177
164,1436800490078,-0.018936822,0.023823744,-0.021991149
165,1436800490097,-0.022296581,0.022907447,-0.014049901
166,1436800490117,-0.0125227375,0.025350908,-0.015271631
167,1436800490138,-0.004886922,0.02107485,-0.019242255
168,1436800490156,-0.011911872,0.016798794,-0.014660766
169,1436800490175,-0.007941248,0.02443461,-0.02565634
170,1436800490196,-0.0070249503,0.022602014,-0.023518313
171,1436800490220,-0.005497787,0.023518313,-0.023518313
172,1436800490241,-0.0061086523,0.018936822,-0.01740966
173,1436800490260,-0.0070249503,0.022602014,-0.024129177
174,1436800490278,-0.009468411,0.026267206,-0.026572637
175,1436800490296,-0.010079277,0.027183503,-0.021380283
176,1436800490317,-0.009468411,0.021991149,-0.015882496
177,1436800490338,-0.004886922,0.02076942,-0.01985312
178,1436800490365,-0.009162978,0.018936822,-0.018020526
179,1436800490441,-0.011911872,0.026267206,-0.021685716
180,1436800490442,-0.004886922,0.029626964,-0.023823744
181,1436800490443,-0.009468411,0.023823744,-0.016493361
182,1436800490444,-0.006414085,0.019242255,-0.016493361
183,1436800490475,-0.0021380284,0.019547688,-0.012217305
184,1436800490476,-0.004886922,0.019547688,-0.014660766
185,1436800490502,-0.0061086523,0.016187929,-0.016187929
186,1436800490516,-0.0061086523,0.01740966,-0.015882496
187,1436800490548,-0.005497787,0.019547688,-0.015882496
188,1436800490556,-0.011301007,0.021991149,-0.0076358155
189,1436800490576,-0.0036651916,0.02107485,-0.009773844
190,1436800490602,-0.003970624,0.019547688,-0.013133603
191,1436800490620,-0.010079277,0.023518313,-0.013133603
192,1436800490636,-0.007941248,0.02321288,-0.004276057
193,1436800490670,-0.009773844,0.021685716,-0.0070249503
194,1436800490698,-0.0125227375,0.02107485,-0.012217305
195,1436800490699,-0.009773844,0.026572637,-0.014966198
196,1436800490716,-0.014660766,0.025350908,-0.015271631
197,1436800490735,-0.008552114,0.022602014,-0.018936822
198,1436800490755,-0.006414085,0.023823744,-0.0143553335
199,1436800490775,-0.00061086525,0.019547688,-0.015577064
200,1436800490795,-0.004276057,0.022907447,-0.01740966
201,1436800490816,-0.005192355,0.021685716,-0.021685716
202,1436800490835,-0.0030543262,0.027183503,-0.02076942
203,1436800490855,-0.0076358155,0.024740042,-0.016798794
204,1436800490875,-0.0027488936,0.01863139,-0.016187929
205,1436800490895,-0.0033597588,0.022602014,-0.015271631
206,1436800490916,0.0009162979,0.022296581,-0.020158553
207,1436800490935,-0.009773844,0.01863139,-0.014660766
208,1436800490955,0.00030543262,0.020158553,-0.010995574
209,1436800490976,-0.0033597588,0.020463986,-0.010995574
210,1436800490995,0.0,0.020158553,-0.013439035
211,1436800491017,0.0012217305,0.015271631,-0.01863139
212,1436800491037,-0.0030543262,0.013744468,-0.02076942
213,1436800491056,-0.009162978,0.015577064,-0.021380283
214,1436800491076,-0.0076358155,0.019242255,-0.01863139
215,1436800491097,-0.005497787,0.020463986,-0.02107485
216,1436800491121,-0.0015271631,0.018325957,-0.022907447
217,1436800491135,-0.0030543262,0.018325957,-0.016798794
218,1436800491155,-0.00580322,0.016187929,-0.016187929
219,1436800491175,-0.01160644,0.019242255,-0.01282817
220,1436800491195,-0.009773844,0.020158553,-0.013133603
221,1436800491216,-0.009162978,0.019547688,-0.013744468
222,1436800491235,-0.009773844,0.025350908,-0.015882496
223,1436800491255,-0.008552114,0.026572637,-0.013439035
224,1436800491279,-0.008246681,0.022296581,-0.018020526
225,1436800491299,-0.008552114,0.023518313,-0.016493361
226,1436800491316,-0.004276057,0.02321288,-0.025045475
227,1436800491335,-0.0018325958,0.02443461,-0.022296581
228,1436800491359,-0.002443461,0.021685716,-0.027794369
229,1436800491379,-0.0018325958,0.02321288,-0.02443461
230,1436800491399,-0.002443461,0.020158553,-0.021991149
231,1436800491419,-0.002443461,0.01985312,-0.021380283
232,1436800491439,-0.007941248,0.023518313,-0.021685716
233,1436800491460,-0.006414085,0.0290161,-0.01863139
234,1436800491475,-0.0027488936,0.025961773,-0.018325957
235,1436800491499,-0.009773844,0.022602014,-0.01740966
236,1436800491518,-0.008857546,0.018936822,-0.021991149
237,1436800491540,-0.0030543262,0.028099801,-0.02321288
238,1436800491556,-0.004886922,0.02321288,-0.01985312
239,1436800491579,-0.009468411,0.017715093,-0.017715093
240,1436800491600,-0.0070249503,0.01985312,-0.01985312
241,1436800491618,-0.0106901415,0.022602014,-0.024129177
242,1436800491639,-0.010995574,0.021380283,-0.01863139
243,1436800491660,-0.016493361,0.022296581,-0.016187929
244,1436800491679,-0.013744468,0.024129177,-0.015271631
245,1436800491699,-0.009468411,0.023823744,-0.016493361
246,1436800491720,-0.01282817,0.022907447,-0.016187929
247,1436800491746,-0.015271631,0.022907447,-0.016187929
248,1436800491813,-0.014966198,0.021991149,-0.013439035
249,1436800491814,-0.011911872,0.025350908,-0.011911872
250,1436800491817,-0.010995574,0.022907447,-0.016493361
251,1436800491818,-0.016798794,0.023518313,-0.012217305
252,1436800491839,-0.017715093,0.017715093,-0.010995574
253,1436800491860,-0.015577064,0.027183503,-0.015882496
254,1436800491876,-0.015577064,0.028710667,-0.016493361
255,1436800491904,-0.010995574,0.02565634,-0.017715093
256,1436800491917,-0.009468411,0.022907447,-0.020158553
257,1436800491937,-0.01282817,0.021685716,-0.019242255
258,1436800491964,-0.0143553335,0.024740042,-0.020463986
259,1436800491977,-0.016187929,0.024740042,-0.02321288
260,1436800491999,-0.013744468,0.028099801,-0.023823744
261,1436800492019,-0.008552114,0.021380283,-0.021685716
262,1436800492037,-0.01038471,0.025350908,-0.02107485
263,1436800492059,-0.0143553335,0.024129177,-0.019547688
264,1436800492080,-0.010079277,0.029321533,-0.02565634
265,1436800492100,-0.01038471,0.025045475,-0.02107485
266,1436800492120,-0.0076358155,0.02076942,-0.02107485
267,1436800492140,-0.008246681,0.020463986,-0.024129177
268,1436800492160,-0.007941248,0.026572637,-0.02076942
269,1436800492180,-0.009773844,0.02443461,-0.01985312
270,1436800492199,-0.009162978,0.023518313,-0.022602014
271,1436800492220,-0.01038471,0.018325957,-0.021685716
272,1436800492237,-0.0106901415,0.023823744,-0.021685716
273,1436800492258,-0.0070249503,0.027488936,-0.02076942
274,1436800492279,-0.008246681,0.024129177,-0.021991149
275,1436800492298,-0.0106901415,0.025961773,-0.022907447
276,1436800492321,-0.009468411,0.0290161,-0.019547688
277,1436800492341,-0.0067195175,0.022296581,-0.021685716
278,1436800492367,-0.005497787,0.018936822,-0.02076942
279,1436800492379,-0.006414085,0.02107485,-0.02076942
280,1436800492399,-0.008552114,0.020158553,-0.02321288
281,1436800492418,-0.0061086523,0.021991149,-0.022296581
282,1436800492439,-0.01160644,0.022602014,-0.020463986
283,1436800492466,-0.0030543262,0.021380283,-0.02107485
284,1436800492529,-0.004886922,0.019242255,-0.016798794
285,1436800492541,-0.010079277,0.024740042,-0.014660766
286,1436800492542,-0.01038471,0.022602014,-0.022296581
287,1436800492543,-0.013133603,0.022602014,-0.020158553
288,1436800492557,-0.008246681,0.02565634,-0.021991149
289,1436800492578,-0.007330383,0.020158553,-0.019547688
290,1436800492598,-0.0067195175,0.016798794,-0.017715093
291,1436800492620,-0.009162978,0.021380283,-0.01740966
292,1436800492638,-0.009468411,0.019242255,-0.021991149
293,1436800492658,-0.009468411,0.023823744,-0.017715093
294,1436800492681,-0.007330383,0.02076942,-0.020463986
295,1436800492698,-0.01282817,0.021685716,-0.01863139
296,1436800492719,-0.007330383,0.02321288,-0.017715093
297,1436800492738,-0.0027488936,0.02321288,-0.01985312
298,1436800492760,-0.015271631,0.026267206,-0.01985312
299,1436800492780,-0.008246681,0.02321288,-0.018020526
300,1436800492801,-0.012217305,0.020463986,-0.018020526
301,1436800492820,-0.008857546,0.02321288,-0.022602014
302,1436800492841,-0.003970624,0.023823744,-0.021685716
303,1436800492861,-0.008552114,0.024740042,-0.024740042
304,1436800492881,-0.014049901,0.026267206,-0.021685716
305,1436800492907,-0.0036651916,0.024740042,-0.02321288
306,1436800492932,-0.005497787,0.019242255,-0.025961773
307,1436800492937,-0.008857546,0.025961773,-0.028099801
308,1436800492957,-0.010079277,0.02565634,-0.022907447
309,1436800492978,-0.01038471,0.022907447,-0.022907447
310,1436800493017,-0.009773844,0.021380283,-0.022907447
311,1436800493018,-0.0027488936,0.019242255,-0.023823744
312,1436800493050,-0.01038471,0.016493361,-0.023518313
313,1436800493060,-0.0036651916,0.02076942,-0.023823744
314,1436800493080,-0.0106901415,0.025045475,-0.02076942
315,1436800493097,-0.011301007,0.027183503,-0.02076942
316,1436800493118,-0.007941248,0.026267206,-0.022907447
317,1436800493159,-0.0012217305,0.022296581,-0.02687807
318,1436800493160,-0.0061086523,0.02321288,-0.02321288
319,1436800493247,-0.005192355,0.021685716,-0.022602014
320,1436800493248,-0.008552114,0.02443461,-0.024129177
321,1436800493249,-0.007941248,0.027794369,-0.021380283
322,1436800493250,-0.010079277,0.026572637,-0.024740042
323,1436800493284,-0.008552114,0.025350908,-0.023823744
324,1436800493285,-0.008552114,0.02321288,-0.023518313
325,1436800493299,-0.009773844,0.018936822,-0.02565634
326,1436800493318,-0.011911872,0.024129177,-0.0290161
327,1436800493340,-0.01160644,0.02321288,-0.021685716
328,1436800493360,-0.008552114,0.025045475,-0.023823744
329,1436800493380,-0.008857546,0.02321288,-0.025961773
330,1436800493399,-0.008246681,0.028710667,-0.029932396
331,1436800493420,-0.010995574,0.025961773,-0.027183503
332,1436800493439,-0.0125227375,0.03023783,-0.02443461
333,1436800493460,-0.010995574,0.032375857,-0.02443461
334,1436800493481,-0.010079277,0.027488936,-0.028405234
335,1436800493501,-0.005192355,0.025350908,-0.028710667
336,1436800493521,-0.009773844,0.027794369,-0.024129177
337,1436800493541,-0.009162978,0.030848695,-0.02076942
338,1436800493561,-0.014660766,0.029626964,-0.014966198
339,1436800493581,-0.014049901,0.020158553,-0.018325957
340,1436800493601,-0.0030543262,0.018325957,-0.028405234
341,1436800493620,-0.007941248,0.024740042,-0.025350908
342,1436800493641,-0.010995574,0.027183503,-0.023823744
343,1436800493663,-0.0106901415,0.023823744,-0.021380283
344,1436800493679,-0.013744468,0.020158553,-0.018020526
345,1436800493701,-0.010995574,0.017104227,-0.01863139
346,1436800493722,-0.013439035,0.01985312,-0.018325957
347,1436800493741,-0.008246681,0.02321288,-0.016798794
348,1436800493762,-0.012217305,0.02443461,-0.016798794
349,1436800493781,-0.01160644,0.023518313,-0.016187929
350,1436800493801,-0.008552114,0.022907447,-0.014049901
351,1436800493821,-0.00580322,0.023823744,-0.02321288
352,1436800493841,-0.012217305,0.02107485,-0.021685716
353,1436800493862,-0.0106901415,0.020158553,-0.021991149
354,1436800493882,-0.0125227375,0.021685716,-0.02321288
355,1436800493902,-0.008857546,0.025350908,-0.022602014
356,1436800493921,-0.009162978,0.025045475,-0.022907447
357,1436800493945,-0.016493361,0.027183503,-0.02076942
358,1436800494020,-0.015271631,0.029321533,-0.021380283
359,1436800494021,-0.011911872,0.027794369,-0.026572637
360,1436800494022,-0.0067195175,0.03023783,-0.029321533
