id,attr_time,attr_x,attr_y,attr_z
1,1436800486859,-0.019242255,0.009468411,-0.020463986
2,1436800486879,-0.016187929,0.01282817,-0.021685716
3,1436800486899,-0.032375857,0.021685716,-0.025045475
4,1436800486919,-0.040317107,0.009162978,-0.017715093
5,1436800486939,-0.05100725,0.0290161,-0.009162978
6,1436800486959,-0.0009162979,0.023823744,-0.006414085
7,1436800486979,0.016187929,0.030848695,-0.012217305
8,1436800486999,0.006414085,0.03145956,-0.0143553335
9,1436800487020,0.016798794,0.04153884,-0.0143553335
10,1436800487039,0.021991149,0.04734206,-0.018020526
11,1436800487059,0.021380283,0.05497787,-0.016798794
12,1436800487081,0.02687807,0.056505036,-0.0076358155
13,1436800487102,0.043676864,0.03359759,-0.002443461
14,1436800487122,0.054367006,0.031154128,-0.0021380284
15,1436800487141,0.052534413,0.032986723,-0.009468411
16,1436800487161,0.040011674,0.04184427,-0.010079277
17,1436800487183,0.042760566,0.047647487,-0.006414085
18,1436800487203,0.049480084,0.041233405,0.004886922
19,1436800487223,0.06505715,0.03390302,0.0033597588
20,1436800487244,0.06383542,0.036957346,-0.0018325958
21,1436800487261,0.05467244,0.028710667,0.0070249503
22,1436800487282,0.056199603,0.02565634,0.006414085
23,1436800487303,0.058643065,0.032070424,0.0036651916
24,1436800487321,0.05589417,0.03145956,0.0030543262
25,1436800487344,0.044593163,0.03023783,0.0012217305
26,1436800487377,0.025961773,0.030848695,0.0070249503
27,1436800487383,0.015577064,0.029932396,0.008857546
28,1436800487405,0.021991149,0.030543262,0.007330383
29,1436800487421,0.018325957,0.033292156,0.003970624
30,1436800487441,0.005192355,0.030543262,0.007330383
31,1436800487462,0.0106901415,0.019242255,0.01160644
32,1436800487480,0.009773844,0.008552114,0.019242255
33,1436800487502,-0.015577064,0.0125227375,0.007941248
34,1436800487522,0.00061086525,0.028405234,0.0021380284
35,1436800487543,0.027183503,0.021380283,0.004581489
36,1436800487563,0.029321533,0.015577064,0.013439035
37,1436800487582,0.013744468,0.022602014,0.019242255
38,1436800487601,0.01038471,0.023518313,0.017104227
39,1436800487623,0.015271631,0.032070424,0.00580322
40,1436800487643,0.02443461,0.036957346,0.004276057
41,1436800487663,0.032070424,0.03481932,0.007941248
42,1436800487684,0.02687807,0.03359759,0.014660766
43,1436800487702,0.009468411,0.02565634,0.017715093
44,1436800487721,0.005497787,0.027183503,0.013133603
45,1436800487741,0.018936822,0.02321288,0.011911872
46,1436800487763,0.02321288,0.031154128,0.014049901
47,1436800487785,0.027488936,0.032070424,0.01863139
48,1436800487804,0.026267206,0.034208454,0.016493361
49,1436800487825,0.03145956,0.030848695,0.022907447
50,1436800487843,0.038789943,0.03970624,0.015882496
51,1436800487865,0.028099801,0.044593163,0.018020526
52,1436800487884,0.032375857,0.04428773,0.01985312
53,1436800487904,0.039095376,0.038179077,0.01863139
54,1436800487923,0.032375857,0.044898596,0.015882496
55,1436800487942,0.03023783,0.042760566,0.018020526
56,1436800487962,0.03756821,0.042760566,0.015882496
57,1436800487983,0.028099801,0.047036625,0.021380283
58,1436800488012,0.032070424,0.03848451,0.020158553
59,1436800488102,0.034513887,0.046120327,0.018020526
60,1436800488103,0.022602014,0.04642576,0.021991149
61,1436800488104,-0.0009162979,0.032070424,0.015271631
62,1436800488105,0.009773844,0.05589417,0.014966198
63,1436800488106,0.021991149,0.05131268,0.01160644
64,1436800488127,0.0143553335,0.02565634,0.018020526
65,1436800488145,0.010995574,0.029626964,0.021685716
66,1436800488163,0.01038471,0.04734206,0.0143553335
67,1436800488196,0.015271631,0.052839845,0.005192355
68,1436800488202,0.01740966,0.053145275,0.0012217305
69,1436800488222,0.013439035,0.055283304,0.003970624
70,1436800488242,0.008246681,0.043982297,0.007941248
71,1436800488262,0.009162978,0.035430185,0.007941248
72,1436800488282,0.015577064,0.03573562,0.00580322
73,1436800488306,0.021380283,0.03848451,0.0021380284
74,1436800488325,0.018020526,0.036957346,0.002443461
75,1436800488344,0.01282817,0.037873644,0.005192355
76,1436800488362,0.00580322,0.04062254,0.008857546
77,1436800488382,0.0125227375,0.036651913,0.0125227375
78,1436800488405,0.020463986,0.0421497,0.0106901415
79,1436800488427,0.02321288,0.05009095,0.010079277
80,1436800488445,0.017715093,0.053145275,0.0076358155
81,1436800488464,0.004886922,0.049785517,0.008857546
82,1436800488485,-0.002443461,0.044593163,0.005192355
83,1436800488504,-0.0018325958,0.04337143,0.0033597588
84,1436800488525,0.0036651916,0.04153884,0.0
85,1436800488545,0.004581489,0.04520403,0.0009162979
86,1436800488566,0.005497787,0.04062254,0.006414085
87,1436800488585,0.015882496,0.03940081,0.0018325958
88,1436800488605,0.00580322,0.045814894,0.008246681
89,1436800488625,-0.014660766,0.035124753,0.002443461
90,1436800488646,-0.008246681,0.04917465,-0.004886922
91,1436800488666,0.0021380284,0.05100725,-0.011911872
92,1436800488686,-0.0076358155,0.044593163,-0.01160644
93,1436800488706,-0.016187929,0.03726278,-0.006414085
94,1436800488723,-0.0125227375,0.048258353,-0.0125227375
95,1436800488749,-0.0076358155,0.05497787,-0.015271631
96,1436800488817,-0.00030543262,0.05955936,-0.009773844
97,1436800488818,0.008246681,0.059864793,-0.00580322
98,1436800488819,0.007330383,0.050701816,0.009162978
99,1436800488826,0.009773844,0.044898596,0.01863139
100,1436800488843,0.014966198,0.045814894,0.019242255
101,1436800488867,0.028710667,0.043066,0.018325957
102,1436800488882,0.029932396,0.040011674,0.0143553335
103,1436800488902,0.028710667,0.044593163,0.01985312
104,1436800488924,0.018325957,0.04428773,0.016493361
105,1436800488943,0.022296581,0.04550946,0.022907447
106,1436800488964,0.019547688,0.03634648,0.02076942
107,1436800488984,0.020463986,0.035124753,0.013744468
108,1436800489003,0.03634648,0.032375857,0.014660766
109,1436800489023,0.035124753,0.032070424,0.013439035
110,1436800489045,0.032375857,0.03145956,0.014966198
111,1436800489066,0.03634648,0.03848451,0.019242255
112,1436800489085,0.043982297,0.03940081,0.02321288
113,1436800489105,0.044593163,0.032986723,0.017104227
114,1436800489125,0.028710667,0.03756821,0.014049901
115,1436800489146,0.016493361,0.04428773,0.01740966
116,1436800489165,0.0030543262,0.030543262,0.018020526
117,1436800489184,-0.01160644,0.018936822,0.0067195175
118,1436800489204,-0.00580322,0.046731193,0.0076358155
119,1436800489223,0.018325957,0.03481932,0.0106901415
120,1436800489246,0.010995574,0.022907447,0.014660766
121,1436800489266,0.00030543262,0.019242255,0.01863139
122,1436800489285,0.0036651916,0.032986723,0.01740966
123,1436800489304,0.004886922,0.04153884,0.007330383
124,1436800489325,-0.0015271631,0.0421497,0.009468411
125,1436800489346,-0.011301007,0.03970624,0.0070249503
126,1436800489365,-0.0143553335,0.029932396,0.014966198
127,1436800489384,-0.015577064,0.024129177,0.012217305
128,1436800489404,-0.019547688,0.022907447,0.0061086523
129,1436800489425,-0.0070249503,0.015882496,0.00061086525
130,1436800489446,-0.004886922,0.02443461,0.005497787
131,1436800489466,-0.0027488936,0.028405234,0.01160644
132,1436800489534,-0.004581489,0.028099801,0.011301007
133,1436800489535,0.0009162979,0.03145956,0.018325957
134,1436800489536,0.004581489,0.027183503,0.0125227375
135,1436800489558,0.0070249503,0.028710667,0.01038471
136,1436800489564,0.013133603,0.03481932,0.009773844
137,1436800489584,0.0106901415,0.03573562,0.013133603
138,1436800489606,-0.0021380284,0.03390302,0.016187929
139,1436800489623,0.00580322,0.03145956,0.014660766
140,1436800489643,0.0076358155,0.03390302,0.015882496
141,1436800489668,0.017104227,0.03573562,0.017104227
142,1436800489684,0.020463986,0.038789943,0.014660766
143,1436800489705,0.028710667,0.040927973,0.01160644
144,1436800489725,0.027183503,0.035430185,0.02107485
145,1436800489744,0.014660766,0.02565634,0.01863139
146,1436800489764,0.030848695,0.048258353,0.014966198
147,1436800489783,0.047036625,0.04062254,0.02076942
148,1436800489809,0.03359759,0.029932396,0.022296581
149,1436800489826,0.026572637,0.034208454,0.023823744
150,1436800489846,0.038179077,0.03940081,0.020463986
151,1436800489867,0.043982297,0.049785517,0.016187929
152,1436800489886,0.04184427,0.052839845,0.011301007
153,1436800489907,0.043982297,0.051923547,0.0067195175
154,1436800489925,0.0421497,0.053450707,0.009773844
155,1436800489944,0.03634648,0.05467244,0.011911872
156,1436800489964,0.03848451,0.057421334,0.007941248
157,1436800489986,0.040317107,0.057421334,0.0061086523
158,1436800490006,0.046120327,0.05955936,0.004886922
159,1436800490029,0.043066,0.053450707,0.009773844
160,1436800490049,0.03023783,0.043982297,0.0033597588
161,1436800490070,0.038789943,0.036651913,0.004581489
162,1436800490088,0.043066,0.04642576,0.0012217305
163,1436800490106,0.03756821,0.044593163,-0.0018325958
164,1436800490124,0.03481932,0.044898596,-0.0018325958
165,1436800490144,0.037873644,0.041233405,0.00061086525
166,1436800490169,0.03970624,0.03573562,-0.0012217305
167,1436800490190,0.03726278,0.040927973,0.00030543262
168,1436800490210,0.03481932,0.049480084,0.0015271631
169,1436800490225,0.040317107,0.04520403,0.0033597588
170,1436800490249,0.040011674,0.04184427,0.0012217305
171,1436800490305,0.04062254,0.04520403,-0.0009162979
172,1436800490306,0.035124753,0.04428773,0.0027488936
173,1436800490307,0.019547688,0.026267206,0.0015271631
174,1436800490328,0.030543262,0.050701816,-0.0021380284
175,1436800490345,0.04520403,0.05681047,-0.003970624
176,1436800490367,0.03268129,0.042455133,0.008246681
177,1436800490386,0.01985312,0.036651913,0.0070249503
178,1436800490407,0.0061086523,0.04550946,0.007330383
179,1436800490427,0.0067195175,0.042455133,0.0015271631
180,1436800490445,0.008246681,0.050396383,0.0061086523
181,1436800490464,0.016798794,0.044898596,0.008246681
182,1436800490484,0.018936822,0.041233405,0.008246681
183,1436800490507,-0.009468411,0.03970624,0.007330383
184,1436800490524,-0.021380283,0.03390302,0.01282817
185,1436800490547,-0.010995574,0.02687807,0.011911872
186,1436800490567,-0.0012217305,0.027794369,0.011911872
187,1436800490587,-0.012217305,0.032070424,0.01160644
188,1436800490607,0.013439035,0.037873644,0.015271631
189,1436800490628,0.023518313,0.046120327,0.017715093
190,1436800490648,0.02321288,0.045814894,0.01863139
191,1436800490666,0.023518313,0.056199603,0.015882496
192,1436800490685,-0.00030543262,0.057726767,0.019242255
193,1436800490704,-0.0070249503,0.048258353,0.023823744
194,1436800490725,0.0018325958,0.03970624,0.015271631
195,1436800490745,-0.004276057,0.03726278,0.018020526
196,1436800490766,-0.0143553335,0.0290161,0.01863139
197,1436800490788,-0.0012217305,0.028405234,0.011911872
198,1436800490807,0.004276057,0.03604105,0.013133603
199,1436800490826,0.008552114,0.040927973,0.014049901
200,1436800490846,0.021380283,0.040011674,0.016798794
201,1436800490864,-0.00030543262,0.04550946,0.01160644
202,1436800490886,-0.023518313,0.030848695,0.014966198
203,1436800490907,-0.027794369,0.047036625,0.01985312
204,1436800490927,0.015882496,0.039095376,0.022296581
205,1436800490948,0.018020526,0.043676864,0.015577064
206,1436800490966,-0.007941248,0.038789943,0.009162978
207,1436800490994,-0.005192355,0.035430185,0.011301007
208,1436800491049,-0.003970624,0.03756821,0.007941248
209,1436800491050,-0.012217305,0.058948494,0.00580322
210,1436800491051,0.01282817,0.061086524,0.0027488936
211,1436800491075,0.02687807,0.044898596,0.003970624
212,1436800491085,0.03268129,0.044593163,0.005192355
213,1436800491113,0.030848695,0.0421497,0.003970624
214,1436800491127,0.032986723,0.035124753,-0.004886922
215,1436800491148,0.038789943,0.04337143,-0.00061086525
216,1436800491168,0.03634648,0.036957346,0.008246681
217,1436800491186,0.03756821,0.029626964,0.008552114
218,1436800491206,0.044898596,0.030543262,0.01038471
219,1436800491225,0.03756821,0.027488936,0.006414085
220,1436800491248,0.03634648,0.032070424,0.004581489
221,1436800491265,0.049480084,0.039095376,-0.0033597588
222,1436800491288,0.05009095,0.035430185,-0.00061086525
223,1436800491308,0.04337143,0.03481932,-0.0012217305
224,1436800491328,0.022296581,0.04153884,-0.0012217305
225,1436800491348,0.021380283,0.048258353,-0.0033597588
226,1436800491368,0.032986723,0.048258353,-0.006414085
227,1436800491388,0.032070424,0.057726767,-0.007941248
228,1436800491406,0.03359759,0.0571159,-0.0067195175
229,1436800491425,0.042760566,0.05131268,-0.0033597588
230,1436800491446,0.045814894,0.04734206,-0.0018325958
231,1436800491468,0.05009095,0.044593163,0.002443461
232,1436800491485,0.030848695,0.03145956,0.002443461
233,1436800491507,0.030543262,0.058643065,-0.003970624
234,1436800491526,0.06383542,0.057726767,-0.004886922
235,1436800491546,0.08124508,0.052839845,0.0015271631
236,1436800491606,0.052534413,0.03023783,0.01038471
237,1436800491607,0.029932396,0.040011674,0.010079277
238,1436800491608,0.03390302,0.03940081,0.0036651916
239,1436800491625,0.029626964,0.052839845,-0.0009162979
240,1436800491645,0.017104227,0.046120327,0.0012217305
241,1436800491667,0.015882496,0.035124753,0.009773844
242,1436800491686,0.00580322,0.02687807,0.008552114
243,1436800491711,-0.0036651916,0.030543262,0.0076358155
244,1436800491754,-0.005192355,0.020463986,-0.00030543262
245,1436800491755,0.0106901415,0.019547688,0.0027488936
246,1436800491771,0.022296581,0.02107485,0.0021380284
247,1436800491786,0.021380283,0.028710667,-0.002443461
248,1436800491807,0.02076942,0.02443461,0.0067195175
249,1436800491825,0.02565634,0.027183503,0.007330383
250,1436800491847,0.027488936,0.032986723,0.01038471
251,1436800491867,0.02107485,0.03634648,0.0076358155
252,1436800491885,0.016187929,0.046120327,0.011911872
253,1436800491908,0.013133603,0.04062254,0.014966198
254,1436800491927,0.010995574,0.036651913,0.014049901
255,1436800491952,0.014049901,0.038179077,0.004886922
256,1436800491969,0.014966198,0.044593163,0.006414085
257,1436800491986,0.014966198,0.046731193,0.0106901415
258,1436800492007,0.02321288,0.046120327,0.009162978
259,1436800492026,0.027488936,0.047647487,0.009162978
260,1436800492046,0.02565634,0.049785517,0.007941248
261,1436800492067,0.02443461,0.049480084,0.01160644
262,1436800492086,0.029321533,0.04642576,0.017715093
263,1436800492106,0.00580322,0.030543262,0.01160644
264,1436800492128,0.016187929,0.04642576,0.008246681
265,1436800492145,0.027488936,0.049480084,0.005192355
266,1436800492166,0.014660766,0.032070424,0.011911872
267,1436800492186,0.00580322,0.03359759,0.012217305
268,1436800492209,0.009773844,0.04428773,0.009162978
269,1436800492229,0.015271631,0.051923547,0.004581489
270,1436800492248,0.020158553,0.052534413,0.0
271,1436800492267,0.014049901,0.04642576,0.0009162979
272,1436800492285,0.011911872,0.03634648,0.008246681
273,1436800492305,0.005192355,0.039095376,0.0061086523
274,1436800492325,0.0070249503,0.03481932,0.004581489
275,1436800492344,0.010079277,0.034208454,0.004886922
276,1436800492367,0.0076358155,0.03756821,0.004276057
277,1436800492389,0.013439035,0.027794369,0.0106901415
278,1436800492409,0.012217305,0.030848695,0.014660766
279,1436800492426,0.016798794,0.03268129,0.016798794
280,1436800492458,0.018325957,0.03359759,0.008857546
281,1436800492467,0.02107485,0.04337143,0.0067195175
282,1436800492485,0.016798794,0.042455133,0.009468411
283,1436800492505,0.0125227375,0.04337143,0.008857546
284,1436800492527,0.01038471,0.03756821,0.009468411
285,1436800492548,0.0106901415,0.037873644,0.013744468
286,1436800492567,0.008857546,0.036957346,0.009773844
287,1436800492587,0.015882496,0.0421497,0.010995574
288,1436800492605,0.01985312,0.043066,0.013133603
289,1436800492627,0.021380283,0.04184427,0.01282817
290,1436800492646,0.027488936,0.037873644,0.009468411
291,1436800492667,0.026572637,0.04520403,0.014660766
292,1436800492686,0.021685716,0.041233405,0.013439035
293,1436800492710,0.019547688,0.04153884,0.012217305
294,1436800492729,0.03023783,0.043676864,0.0125227375
295,1436800492749,0.024740042,0.040317107,0.014049901
296,1436800492767,-0.0076358155,0.03176499,0.00580322
297,1436800492786,0.0021380284,0.048563786,0.0076358155
298,1436800492807,0.03268129,0.046120327,0.003970624
299,1436800492830,0.013439035,0.02443461,0.012217305
300,1436800492845,0.009162978,0.032375857,0.0143553335
301,1436800492866,0.015577064,0.03848451,0.0070249503
302,1436800492886,0.028099801,0.047036625,-0.0021380284
303,1436800492907,0.0290161,0.043982297,0.003970624
304,1436800492926,0.02565634,0.04062254,0.010079277
305,1436800492947,0.014049901,0.035430185,0.006414085
306,1436800492968,0.013133603,0.036651913,0.0021380284
307,1436800492988,0.014049901,0.036957346,-0.0021380284
308,1436800493005,0.01740966,0.040317107,-0.0033597588
309,1436800493026,0.015577064,0.040011674,0.0030543262
310,1436800493047,0.016493361,0.035124753,0.011301007
311,1436800493093,0.017104227,0.03573562,0.01282817
312,1436800493094,0.022602014,0.03268129,0.0070249503
313,1436800493109,0.025350908,0.040927973,0.0061086523
314,1436800493127,0.023823744,0.04062254,0.007330383
315,1436800493150,0.01863139,0.03634648,0.004886922
316,1436800493169,0.013133603,0.036651913,0.0021380284
317,1436800493187,0.008246681,0.03756821,0.0076358155
318,1436800493207,0.002443461,0.040927973,0.009162978
319,1436800493227,0.0033597588,0.034513887,0.007941248
320,1436800493251,0.0070249503,0.037873644,0.005192355
321,1436800493268,0.011911872,0.037873644,0.0070249503
322,1436800493293,0.016187929,0.039095376,0.007941248
323,1436800493307,0.027488936,0.040927973,-0.00030543262
324,1436800493327,0.02107485,0.044898596,0.0
325,1436800493347,0.0143553335,0.047647487,0.006414085
326,1436800493368,0.005497787,0.044593163,0.006414085
327,1436800493389,-0.0015271631,0.04734206,0.0015271631
328,1436800493438,-0.0030543262,0.048258353,-0.0061086523
329,1436800493439,-0.014049901,0.03634648,0.00580322
330,1436800493448,-0.022296581,0.030543262,0.0027488936
331,1436800493469,0.0018325958,0.050701816,0.0030543262
332,1436800493491,-0.00030543262,0.041233405,0.0012217305
333,1436800493511,-0.015577064,0.0290161,0.009162978
334,1436800493528,-0.027488936,0.040927973,0.0076358155
335,1436800493547,-0.022602014,0.043982297,0.002443461
336,1436800493570,-0.01282817,0.045814894,-0.0009162979
337,1436800493589,-0.013439035,0.05467244,0.0067195175
338,1436800493608,-0.03481932,0.05009095,0.01160644
339,1436800493628,-0.027488936,0.03359759,0.013744468
340,1436800493647,-0.02687807,0.038789943,0.002443461
341,1436800493667,-0.0290161,0.046731193,-0.0009162979
342,1436800493687,-0.0106901415,0.049480084,0.0027488936
343,1436800493707,-0.011911872,0.048258353,0.002443461
344,1436800493728,-0.014660766,0.03848451,0.004886922
345,1436800493748,-0.0076358155,0.043676864,0.004581489
346,1436800493856,0.004886922,0.042455133,0.0070249503
347,1436800493857,-0.0030543262,0.044593163,0.011911872
348,1436800493858,-0.0106901415,0.044898596,0.009773844
349,1436800493859,-0.01985312,0.047036625,0.011301007
350,1436800493860,-0.016493361,0.043066,0.009162978
351,1436800493897,-0.0027488936,0.04550946,0.01282817
352,1436800493898,0.0021380284,0.043982297,0.014660766
353,1436800493916,-0.008857546,0.044593163,0.009773844
354,1436800493927,-0.006414085,0.04337143,0.010995574
355,1436800493961,0.004276057,0.043676864,0.012217305
356,1436800493968,0.006414085,0.042760566,0.0033597588
357,1436800493989,-0.010995574,0.04153884,0.007330383
358,1436800494011,-0.017715093,0.03359759,0.01282817
359,1436800494028,-0.015577064,0.025045475,0.0143553335
360,1436800494051,-0.007330383,0.027488936,0.015882496
361,1436800494068,0.011911872,0.032070424,0.014049901
362,1436800494092,0.018020526,0.024129177,0.016798794
363,1436800494110,0.003970624,0.026267206,0.004276057
364,1436800494131,0.0030543262,0.03756821,0.008857546
365,1436800494149,0.02443461,0.033292156,0.009773844
366,1436800494170,0.018020526,0.024740042,0.006414085
367,1436800494189,0.027794369,0.03756821,0.01740966
368,1436800494211,0.040011674,0.026572637,0.01160644
369,1436800494240,0.033292156,0.03756821,0.005192355
370,1436800494250,0.030848695,0.046120327,0.006414085
371,1436800494269,0.031154128,0.03848451,0.0125227375
