id,attr_time,attr_x,attr_y,attr_z
1,1436170463008,-0.41240123,10.01734,-1.0845734
2,1436170463028,-0.37828386,10.011953,-1.0779893
3,1436170463048,-0.39324763,9.983821,-1.0887632
4,1436170463068,-0.40701428,9.993398,-1.0588357
5,1436170463088,-0.4297592,9.9790325,-1.0552444
6,1436170463107,-0.41299978,9.979631,-1.0809821
7,1436170463128,-0.3866636,10.011953,-1.0923545
8,1436170463147,-0.41180268,9.999383,-1.1270704
9,1436170463169,-0.42916065,10.007763,-1.0857705
10,1436170463214,-0.4333505,9.97185,-1.0785879
11,1436170463217,-0.44951138,9.99639,-1.0510546
12,1436170463232,-0.4189853,9.985018,-1.0498575
13,1436170463246,-0.40581718,9.974244,-1.0989386
14,1436170463267,-0.40102878,9.985617,-1.1097125
15,1436170463285,-0.44232875,10.013748,-1.0785879
16,1436170463306,-0.4369418,10.008362,-1.0528502
17,1436170463334,-0.44891283,9.9928,-1.0815806
18,1436170463346,-0.45010993,9.983223,-1.0600328
19,1436170463366,-0.44352585,9.954493,-1.0779893
20,1436170463392,-0.45489833,9.998785,-1.0606314
21,1436170463407,-0.37828386,9.98442,-1.074398
22,1436170463426,-0.45370123,9.986814,-1.110311
23,1436170463446,-0.45130703,9.998785,-1.091756
24,1436170463469,-0.4345476,9.989208,-1.0672154
25,1436170463489,-0.4357447,9.983821,-1.0875661
26,1436170463509,-0.46208093,9.978435,-1.1019313
27,1436170463527,-0.43993455,9.986814,-1.0630256
28,1436170463549,-0.47105917,9.9712515,-1.074398
29,1436170463572,-0.415394,9.97185,-1.0827777
30,1436170463588,-0.4321534,9.997588,-1.1192893
31,1436170463607,-0.42556936,9.993997,-1.0827777
32,1436170463638,-0.45070848,9.985617,-1.0714053
33,1436170463647,-0.46387658,9.966463,-1.0953473
34,1436170463668,-0.45190558,9.983821,-1.0576386
35,1436170463687,-0.4381389,9.976639,-1.073201
36,1436170463719,-0.4297592,9.977836,-1.0989386
37,1436170463735,-0.43873745,9.989806,-1.1162965
38,1436170463869,-0.45310268,10.006566,-1.1049241
39,1436170463870,-0.45789108,9.979631,-1.0522517
40,1436170463871,-0.49081135,9.981427,-1.0995371
41,1436170463872,-0.40402153,9.959281,-1.0384849
42,1436170463873,-0.45310268,9.961675,-1.0821792
43,1436170463874,-0.4794389,9.982025,-1.0881647
44,1436170463875,-0.47105917,9.987412,-1.0827777
45,1436170464199,-0.42317516,10.011354,-1.0773908
46,1436170464200,-0.4381389,9.995792,-1.0839748
47,1436170464201,-0.46028528,9.989806,-1.0977415
48,1436170464202,-0.439336,9.9790325,-1.0935516
49,1436170464203,-0.45310268,9.976639,-1.1013328
50,1436170464204,-0.49440265,9.988609,-1.039682
51,1436170464205,-0.39264908,9.983821,-1.073201
52,1436170464206,-0.45968673,10.006566,-1.1210849
53,1436170464207,-0.4213795,9.972448,-1.1055226
54,1436170464208,-0.5434838,10.011354,-1.0474633
55,1436170464209,-0.48123455,10.000581,-1.0720038
56,1436170464210,-0.5021838,9.996989,-1.0372878
57,1436170464211,-0.43514615,9.993997,-1.049259
58,1436170464212,-0.42317516,9.980828,-1.0648212
59,1436170464213,-0.45489833,9.993997,-1.0247183
60,1436170464214,-0.4201824,9.995792,-1.0319009
61,1436170464215,-0.42437226,9.97185,-1.0187328
62,1436170464228,-0.45250413,9.997588,-1.0576386
63,1436170464249,-0.44651863,9.970653,-1.0456676
64,1436170464270,-0.42676646,9.970055,-1.0247183
65,1436170464289,-0.48362875,9.970653,-1.049259
66,1436170464309,-0.46507367,10.002377,-1.0313023
67,1436170464329,-0.47046062,10.005369,-1.0390835
68,1436170464350,-0.4333505,9.985617,-1.0229226
69,1436170464370,-0.44651863,9.993997,-1.0654198
70,1436170464390,-0.45250413,10.007763,-1.0265139
71,1436170464408,-0.40761283,9.98442,-0.99658644
72,1436170464430,-0.41060558,10.016742,-1.062427
73,1436170464449,-0.39145198,9.991602,-1.0205284
74,1436170464469,-0.39983168,9.959281,-1.0456676
75,1436170464489,-0.41718966,9.966463,-0.985214
76,1436170464510,-0.40043023,9.989806,-1.027711
77,1436170464529,-0.4201824,10.040085,-1.0193313
78,1436170464549,-0.43993455,10.020332,-1.0462662
79,1436170464569,-0.45848963,9.974843,-0.9911995
80,1436170464594,-0.4177882,9.9928,-1.0881647
81,1436170464662,-0.4333505,9.986814,-1.0223241
82,1436170464663,-0.41000703,9.982025,-1.0163386
83,1436170464664,-0.41299978,9.998186,-1.0163386
84,1436170464668,-0.40102878,10.018537,-1.0019734
85,1436170464687,-0.4297592,9.970653,-1.0319009
86,1436170464707,-0.35314476,9.993997,-1.0019734
87,1436170464727,-0.3573346,10.010158,-0.99299514
88,1436170464752,-0.3549404,9.974843,-1.0145429
89,1436170464768,-0.40162733,9.999383,-1.0223241
90,1436170464788,-0.40641573,10.006566,-1.0019734
91,1436170464808,-0.37588966,9.9928,-0.997185
92,1436170464827,-0.36990416,9.979631,-1.0073603
93,1436170464848,-0.41180268,10.037092,-1.0480618
94,1436170464870,-0.39564183,9.986216,-1.0295067
95,1436170464890,-0.40701428,9.991602,-1.0049661
96,1436170464910,-0.38367084,9.999383,-1.0456676
97,1436170464930,-0.37588966,9.9951935,-1.0145429
98,1436170464950,-0.35194764,9.991602,-1.0127473
99,1436170464968,-0.3764882,9.981427,-0.9900024
100,1436170464990,-0.34835634,10.006566,-1.0103531
101,1436170465010,-0.3693056,9.99639,-1.0348936
102,1436170465030,-0.40282443,9.991004,-1.0229226
103,1436170465050,-0.36870706,9.979631,-1.0366893
104,1436170465069,-0.43394905,10.001179,-1.0390835
105,1436170465090,-0.4189853,10.016742,-1.0175357
106,1436170465111,-0.3764882,9.970055,-1.0354922
107,1436170465130,-0.45190558,10.033501,-1.0528502
108,1436170465148,-0.39264908,9.986216,-0.99179804
109,1436170465170,-0.36750996,10.00896,-1.0426749
110,1436170465190,-0.3513491,9.974843,-1.0217255
111,1436170465210,-0.43634325,9.978435,-1.0151415
112,1436170465231,-0.39863458,10.007763,-0.99538934
113,1436170465251,-0.4285621,9.998186,-1.0540473
114,1436170465268,-0.3866636,9.98442,-1.0702082
115,1436170465289,-0.41180268,9.967062,-1.0540473
116,1436170465307,-0.4285621,10.038888,-1.0468647
117,1436170465377,-0.36391866,9.987412,-1.0283096
118,1436170465378,-0.3764882,9.998785,-1.055843
119,1436170465379,-0.4141969,9.999383,-1.0295067
120,1436170465396,-0.4237737,9.978435,-1.0456676
121,1436170465407,-0.3776853,9.9928,-1.0348936
122,1436170465430,-0.3812766,9.985617,-1.0696096
123,1436170465447,-0.374094,9.986216,-1.0654198
124,1436170465468,-0.41180268,9.9951935,-1.0265139
125,1436170465489,-0.4369418,9.982025,-1.0426749
126,1436170465509,-0.39444473,10.003573,-1.0636241
127,1436170465528,-0.44352585,10.005967,-1.067814
128,1436170465550,-0.41599256,10.008362,-1.0941502
129,1436170465569,-0.4141969,9.977836,-1.0809821
130,1436170465590,-0.43993455,9.983223,-1.079785
131,1436170465610,-0.42796355,9.979631,-1.0534488
132,1436170465631,-0.42317516,9.980229,-1.0779893
133,1436170465651,-0.46267948,9.999383,-1.0582372
134,1436170465671,-0.39205053,9.932345,-1.0319009
135,1436170465691,-0.4189853,9.9928,-1.0444705
136,1436170465711,-0.40521863,9.997588,-1.0887632
137,1436170465731,-0.46447513,9.994595,-1.09834
138,1436170465750,-0.45669398,9.974843,-1.0564415
139,1436170465771,-0.42556936,9.9951935,-1.0684125
140,1436170465789,-0.3842694,9.986814,-1.0869676
141,1436170465810,-0.40821138,9.990405,-1.0911574
142,1436170465831,-0.37948096,9.987412,-1.0887632
143,1436170465851,-0.40581718,9.998186,-1.0761937
144,1436170465871,-0.45250413,9.972448,-1.06123
145,1436170465890,-0.4141969,9.982025,-1.0408791
146,1436170465911,-0.40342298,10.003573,-1.074398
147,1436170465931,-0.40940848,9.988011,-1.0911574
148,1436170465951,-0.45010993,9.98442,-1.0905589
149,1436170465971,-0.45130703,9.988011,-1.074398
150,1436170465991,-0.4345476,10.002377,-1.0737995
151,1436170466008,-0.4333505,9.980229,-1.0809821
152,1436170466030,-0.39743748,10.00896,-1.1162965
153,1436170466057,-0.4758476,10.0269165,-1.0989386
154,1436170466130,-0.41240123,9.983821,-1.0534488
155,1436170466131,-0.45549688,9.979631,-1.0654198
156,1436170466132,-0.43275195,9.964667,-1.0408791
157,1436170466133,-0.47644615,9.969456,-1.0869676
158,1436170466149,-0.41599256,9.991004,-1.0564415
159,1436170466176,-0.43035775,9.997588,-1.067814
160,1436170466189,-0.4417302,9.983223,-1.0714053
161,1436170466209,-0.42197806,9.980828,-1.0534488
162,1436170466230,-0.42796355,9.977836,-1.0827777
163,1436170466249,-0.41180268,9.998785,-1.091756
164,1436170466270,-0.43873745,9.992201,-1.0887632
165,1436170466289,-0.46926352,9.988011,-1.06123
166,1436170466309,-0.4441244,9.998785,-1.0456676
167,1436170466329,-0.38307226,9.9790325,-1.0576386
168,1436170466352,-0.38486794,9.982025,-1.0642227
169,1436170466372,-0.4249708,9.982025,-1.067814
170,1436170466392,-0.43514615,9.992201,-1.0426749
171,1436170466412,-0.42916065,10.012551,-1.06123
172,1436170466432,-0.4261679,9.96766,-1.0672154
173,1436170466455,-0.41479546,9.992201,-1.0354922
174,1436170466468,-0.427365,9.988609,-1.0660183
175,1436170466488,-0.39803603,10.020931,-1.0726024
176,1436170466508,-0.4165911,10.010158,-1.0779893
177,1436170466529,-0.40043023,9.961675,-1.0480618
178,1436170466550,-0.46447513,9.999982,-1.0372878
179,1436170466570,-0.36511576,9.974843,-1.0061632
180,1436170466592,-0.43873745,9.970653,-1.0528502
181,1436170466612,-0.40821138,9.997588,-1.0498575
182,1436170466630,-0.4177882,10.004171,-1.033098
183,1436170466651,-0.439336,9.987412,-1.0163386
184,1436170466671,-0.39444473,9.986814,-1.0193313
185,1436170466691,-0.40880993,10.012551,-1.0480618
186,1436170466712,-0.38187516,9.982624,-1.0708067
187,1436170466732,-0.39025488,10.001179,-1.0582372
188,1436170466749,-0.41299978,9.988011,-1.049259
189,1436170466771,-0.39264908,9.993997,-1.0217255
190,1436170466801,-0.37588966,10.00477,-1.0594343
191,1436170466869,-0.41479546,9.999383,-1.0827777
192,1436170466870,-0.4345476,10.005369,-1.0498575
193,1436170466871,-0.40821138,9.980828,-1.01574
194,1436170466872,-0.38067806,9.9790325,-1.0468647
195,1436170466889,-0.39205053,10.001778,-1.0684125
196,1436170466909,-0.40821138,9.992201,-1.06123
197,1436170466929,-0.4189853,10.00896,-1.0660183
198,1436170466949,-0.39324763,9.994595,-1.0696096
199,1436170466969,-0.4237737,10.010158,-1.0522517
200,1436170466991,-0.41120413,9.961675,-1.0313023
201,1436170467010,-0.3776853,9.990405,-1.043872
202,1436170467030,-0.3657143,9.99639,-1.0468647
203,1436170467051,-0.3878607,9.980828,-1.0570401
204,1436170467072,-0.39863458,9.98442,-1.0217255
205,1436170467092,-0.40701428,9.999982,-1.0522517
206,1436170467112,-0.42437226,9.999982,-1.0648212
207,1436170467132,-0.40641573,9.991602,-1.0690111
208,1436170467152,-0.43873745,10.004171,-1.1246762
209,1436170467172,-0.40581718,9.997588,-1.0366893
210,1436170467192,-0.36511576,9.989208,-1.050456
211,1436170467212,-0.3681085,10.010756,-1.0067618
212,1436170467232,-0.38067806,10.009559,-1.0384849
213,1436170467250,-0.3345897,9.995792,-1.0540473
214,1436170467271,-0.3369839,9.986814,-1.0486604
215,1436170467292,-0.39205053,9.997588,-1.0313023
216,1436170467312,-0.3669114,10.000581,-1.0295067
217,1436170467332,-0.38187516,9.99639,-1.0169371
218,1436170467350,-0.3705027,10.0029745,-1.0630256
219,1436170467372,-0.374094,9.988609,-1.0468647
220,1436170467392,-0.41180268,9.985617,-1.0821792
221,1436170467413,-0.41180268,10.0029745,-1.0408791
222,1436170467430,-0.41240123,9.9928,-1.0247183
223,1436170467452,-0.37828386,9.997588,-1.0013748
224,1436170467470,-0.3752911,10.023924,-1.0606314
225,1436170467492,-0.35673606,9.986814,-1.0259154
226,1436170467511,-0.39025488,9.981427,-1.0444705
227,1436170467532,-0.3812766,9.999383,-1.0313023
228,1436170467578,-0.39923313,9.989806,-1.050456
229,1436170467579,-0.41240123,9.993398,-1.0540473
230,1436170467597,-0.4189853,10.005967,-1.039682
231,1436170467610,-0.3878607,10.008362,-1.0642227
232,1436170467630,-0.38067806,9.986814,-1.0815806
233,1436170467651,-0.40102878,9.9928,-1.0606314
234,1436170467672,-0.4189853,9.989208,-1.0390835
235,1436170467693,-0.3728969,9.989806,-1.0480618
236,1436170467710,-0.34835634,9.985617,-1.0618285
237,1436170467731,-0.3465607,10.008362,-1.0444705
238,1436170467751,-0.37588966,10.001778,-1.0486604
239,1436170467773,-0.40162733,9.993398,-1.0336965
240,1436170467790,-0.3477578,9.998785,-1.0522517
241,1436170467811,-0.3752911,9.985617,-1.0540473
242,1436170467860,-0.39624038,10.0029745,-1.0486604
243,1436170467861,-0.4201824,10.0029745,-1.0402806
244,1436170467872,-0.39384618,9.980229,-1.0648212
245,1436170467893,-0.42197806,10.011354,-1.0522517
246,1436170467912,-0.40162733,9.992201,-1.0342951
247,1436170467933,-0.40761283,9.980828,-1.0384849
248,1436170467953,-0.3633201,9.982624,-1.0199299
249,1436170467972,-0.41359833,9.960478,-1.0642227
250,1436170467990,-0.45968673,9.986216,-1.0067618
251,1436170468014,-0.37828386,10.00896,-1.0737995
252,1436170468030,-0.39504328,10.011953,-1.0690111
253,1436170468052,-0.38187516,10.018537,-1.0714053
254,1436170468070,-0.41958386,9.981427,-1.0737995
255,1436170468092,-0.37588966,9.968259,-1.0498575
256,1436170468114,-0.4213795,9.986814,-1.0749966
257,1436170468132,-0.40162733,9.982025,-0.98820674
258,1436170468153,-0.38726214,9.987412,-1.0408791
259,1436170468172,-0.39683893,10.002377,-1.0887632
260,1436170468193,-0.39504328,9.999982,-1.0851719
261,1436170468211,-0.37588966,9.996989,-1.0827777
262,1436170468232,-0.41718966,9.999383,-1.0402806
263,1436170468254,-0.42078096,9.982025,-1.0145429
264,1436170468308,-0.3878607,9.978435,-1.0366893
265,1436170468310,-0.39803603,9.986814,-1.079785
266,1436170468311,-0.39025488,9.987412,-1.062427
267,1436170468332,-0.41359833,10.007763,-1.0414777
268,1436170468351,-0.39085343,10.022128,-1.0342951
269,1436170468371,-0.37948096,9.964069,-1.0636241
270,1436170468390,-0.3788824,9.989208,-1.0133458
271,1436170468410,-0.3669114,9.98442,-0.98940384
272,1436170468431,-0.38307226,9.986814,-1.0528502
273,1436170468451,-0.3657143,9.993398,-1.0223241
274,1436170468487,-0.39923313,10.00896,-1.0552444
275,1436170468498,-0.39564183,10.014347,-1.039682
276,1436170468519,-0.38845924,10.025121,-1.062427
277,1436170468541,-0.38307226,9.995792,-1.0696096
278,1436170468552,-0.38965634,9.980828,-1.0690111
279,1436170468583,-0.3776853,9.990405,-1.062427
280,1436170468590,-0.35314476,9.986814,-1.0420763
281,1436170468611,-0.374094,9.998186,-1.0576386
282,1436170468630,-0.34596214,9.9951935,-1.0420763
283,1436170468655,-0.3585317,9.996989,-1.0456676
284,1436170468671,-0.35434186,9.993997,-1.0366893
285,1436170468691,-0.3537433,10.005369,-1.049259
286,1436170468711,-0.3309984,10.00477,-1.027711
287,1436170468731,-0.35075054,10.005369,-1.0702082
288,1436170468751,-0.3309984,9.991004,-1.0366893
289,1436170468773,-0.34596214,10.012551,-1.0564415
290,1436170468793,-0.34356794,10.025121,-1.0193313
291,1436170468813,-0.3250129,9.991004,-1.0109516
292,1436170468830,-0.33877954,10.014347,-1.0594343
293,1436170468850,-0.29688102,9.989208,-0.9864111
294,1436170468870,-0.34476504,9.973047,-1.0468647
295,1436170468890,-0.3429694,9.991602,-1.039682
296,1436170468911,-0.31603462,9.995792,-1.0426749
297,1436170468936,-0.31423897,10.022727,-1.0402806
298,1436170468954,-0.33758244,9.999982,-1.033098
299,1436170468972,-0.3537433,9.988011,-1.0450691
300,1436170468991,-0.35434186,9.9928,-1.0372878
301,1436170469016,-0.33518824,9.989806,-1.0360907
302,1436170469030,-0.30705637,10.0029745,-1.0301052
303,1436170469050,-0.29927522,9.998186,-1.0528502
304,1436170469070,-0.30406362,9.975441,-1.0462662
305,1436170469090,-0.3321955,10.003573,-1.0253168
306,1436170469110,-0.29269117,10.022128,-1.0085574
307,1436170469130,-0.31603462,10.003573,-1.0259154
308,1436170469150,-0.29568392,9.988609,-1.0540473
309,1436170469170,-0.31603462,10.016143,-1.0480618
310,1436170469190,-0.31304187,9.982624,-1.0241197
311,1436170469210,-0.33159694,10.005967,-1.0289081
312,1436170469230,-0.30825347,10.020332,-1.0462662
313,1436170469250,-0.33159694,9.989806,-1.0420763
314,1436170469270,-0.30825347,9.973646,-1.0564415
315,1436170469290,-0.33518824,10.013748,-1.0366893
316,1436170469310,-0.32142156,9.989806,-0.98700964
317,1436170469330,-0.3250129,9.985617,-1.0229226
318,1436170469350,-0.35254622,9.999982,-1.0666169
319,1436170469370,-0.3477578,10.011953,-1.0791864
320,1436170469390,-0.35434186,9.993997,-1.0319009
321,1436170469410,-0.36391866,10.00477,-1.0654198
322,1436170469435,-0.31004912,10.008362,-1.0684125
323,1436170469453,-0.3405752,9.985617,-1.0588357
324,1436170469470,-0.33039984,9.993997,-1.0402806
325,1436170469490,-0.32202014,9.999383,-1.0402806
326,1436170469514,-0.3405752,9.999982,-1.0600328
327,1436170469530,-0.33399114,9.996989,-1.0666169
328,1436170469554,-0.32561144,10.003573,-1.0259154
329,1436170469572,-0.33997664,9.998785,-1.0767922
330,1436170469598,-0.34596214,10.006566,-1.0702082
331,1436170469636,-0.35553896,9.992201,-1.0324994
332,1436170469637,-0.3453636,9.992201,-1.0720038
333,1436170469651,-0.3429694,10.016742,-1.0833763
334,1436170469671,-0.34356794,10.009559,-1.0696096
335,1436170469691,-0.35434186,10.020332,-1.0462662
336,1436170469715,-0.30526072,9.990405,-1.0486604
337,1436170469734,-0.37588966,9.989208,-1.0660183
338,1436170469752,-0.350152,9.978435,-1.0456676
339,1436170469771,-0.39504328,9.982624,-1.0432734
340,1436170469792,-0.3573346,10.019734,-1.0749966
341,1436170469815,-0.35913026,10.000581,-1.0905589
342,1436170469837,-0.3274071,9.983223,-1.0702082
343,1436170469855,-0.3866636,9.991004,-1.0618285
344,1436170469875,-0.36032736,9.999982,-1.0480618
345,1436170469897,-0.3357868,9.996989,-1.0336965
346,1436170469915,-0.36272156,9.982624,-1.0726024
347,1436170469935,-0.33159694,10.004171,-1.0600328
348,1436170469955,-0.29688102,9.980828,-1.0348936
349,1436170469974,-0.3333926,9.986216,-1.0702082
350,1436170469995,-0.3441665,9.993997,-1.0887632
351,1436170470013,-0.3321955,9.986814,-1.0690111
352,1436170470033,-0.3728969,9.993997,-1.0426749
353,1436170470054,-0.34356794,9.988609,-1.0444705
354,1436170470075,-0.3429694,9.992201,-1.0821792
355,1436170470094,-0.3429694,9.980229,-1.0935516
356,1436170470116,-0.34715924,10.007165,-1.073201
357,1436170470135,-0.3453636,10.019135,-1.0767922
358,1436170470155,-0.36631286,10.002377,-1.0516531
359,1436170470175,-0.34596214,9.967062,-1.0378864
360,1436170470195,-0.338181,9.989208,-1.073201
361,1436170470215,-0.3309984,9.973047,-1.0654198
362,1436170470235,-0.3716998,9.989806,-1.0791864
363,1436170470255,-0.40701428,10.023924,-1.0803835
364,1436170470275,-0.37588966,10.001778,-1.0923545
365,1436170470349,-0.40581718,10.022727,-1.115698
366,1436170470350,-0.38726214,10.019135,-1.0749966
367,1436170470352,-0.3597288,9.993997,-1.0839748
368,1436170470353,-0.3274071,9.969456,-1.0737995
369,1436170470374,-0.36152446,9.968858,-1.0839748
370,1436170470396,-0.3537433,9.997588,-1.0582372
371,1436170470414,-0.3405752,9.989208,-1.0851719
372,1436170470432,-0.28550854,9.987412,-1.1360487
373,1436170470454,-0.320823,10.005369,-1.1121067
374,1436170470474,-0.3693056,10.004171,-1.0737995
375,1436170470494,-0.32561144,9.985018,-1.043872
376,1436170470514,-0.3196259,9.986216,-1.0761937
377,1436170470538,-0.29209262,10.002377,-1.1031284
378,1436170470556,-0.3250129,9.988609,-1.0845734
379,1436170470577,-0.37349546,9.995792,-1.0576386
380,1436170470595,-0.39025488,10.002377,-1.086369
381,1436170470614,-0.350152,10.00477,-1.0977415
382,1436170470638,-0.35553896,10.018537,-1.1001357
383,1436170470654,-0.3298013,9.972448,-1.0420763
384,1436170470675,-0.3345897,9.99639,-1.0588357
385,1436170470696,-0.36152446,9.991602,-1.1073183
386,1436170470716,-0.350152,9.999383,-1.0923545
387,1436170470737,-0.32800564,10.023325,-1.0833763
388,1436170470752,-0.34356794,9.982025,-1.073201
389,1436170470776,-0.2813187,9.997588,-1.1049241
390,1436170470796,-0.29448682,9.979631,-1.1210849
391,1436170470816,-0.3441665,10.002377,-1.0827777
392,1436170470837,-0.31064767,9.982624,-1.067814
393,1436170470856,-0.30645782,9.989806,-1.0875661
394,1436170470876,-0.29568392,9.968858,-1.0953473
395,1436170470894,-0.32142156,9.993997,-1.09834
396,1436170470915,-0.31124622,10.006566,-1.0755951
397,1436170470937,-0.3274071,9.993997,-1.0887632
398,1436170470957,-0.29269117,9.981427,-1.0809821
399,1436170470977,-0.3309984,10.011953,-1.0989386
400,1436170470995,-0.31663316,9.985018,-1.0755951
401,1436170471015,-0.2896984,10.002377,-1.1007342
402,1436170471086,-0.33518824,9.972448,-1.1085154
403,1436170471087,-0.3298013,10.008362,-1.1085154
