id,attr_time,attr_x,attr_y,attr_z
1,1437501408016,0.008255,0.00666809,0.00352478
2,1437501408036,0.008255,-0.00401306,-0.0018158
3,1437501408055,0.0103912,-0.00614929,-0.0018158
4,1437501408075,0.00611877,-0.0104218,0.00245666
5,1437501408095,-0.00563049,-0.0317841,-0.00502014
6,1437501408115,-0.0109711,-0.0531464,-0.0295868
7,1437501408135,-0.0237885,-0.0552826,-0.0359955
8,1437501408154,-0.0825348,-0.0392609,-0.0253143
9,1437501408174,-0.1306,-0.0264435,-0.00608826
10,1437501408194,-0.120987,-0.0136261,0.0195465
11,1437501408214,-0.107101,-0.000808716,0.0633392
12,1437501408232,-0.102829,0.0258942,0.098587
13,1437501408253,-0.0697174,0.0451202,0.122086
14,1437501408272,-0.0152435,0.0579376,0.121017
15,1437501408292,0.0253448,0.0686188,0.107132
16,1437501408315,0.0627289,0.0622101,0.0750885
17,1437501408331,0.0798187,0.0536652,0.0355682
18,1437501408352,0.108658,0.0515289,0.0120697
19,1437501408371,0.118271,0.033371,-0.0306549
20,1437501408391,0.113998,-0.00187683,-0.0840607
21,1437501408413,0.106522,-0.0157623,-0.111832
22,1437501408431,0.119339,-0.0371246,-0.111832
23,1437501408450,0.10759,-0.0456696,-0.100082
24,1437501408470,0.0584564,-0.0478058,-0.102219
25,1437501408490,0.0210724,-0.0809174,-0.103287
26,1437501408510,0.0627289,-0.112961,-0.0947418
27,1437501408530,-0.0430145,-0.125778,-0.0701752
28,1437501408547,-0.237411,-0.125778,-0.0626984
29,1437501408569,-0.37413,-0.128983,-0.0520172
30,1437501408588,-0.409378,-0.143936,0.000320435
31,1437501408611,-0.463852,-0.138596,0.043045
32,1437501408629,-0.548233,-0.11937,0.0686798
33,1437501408648,-0.602707,-0.0980072,0.0943146
34,1437501408667,-0.68602,-0.0595551,0.119949
35,1437501408688,-0.789627,-0.0381927,0.119949
36,1437501408707,-0.846237,-0.0392609,0.100723
37,1437501408727,-0.716995,-0.0381927,0.098587
38,1437501408750,-0.534348,-0.0691681,0.126358
39,1437501408766,-0.324997,-0.0574188,0.111404
40,1437501408787,-0.202164,-0.0552826,0.0622711
41,1437501408806,-0.146622,-0.106552,0.0110016
42,1437501408826,0.0274811,-0.0948029,-0.02211
43,1437501408848,0.195175,-0.0723724,0.00993347
44,1437501408864,0.213333,-0.0723724,0.0291595
45,1437501408885,0.174881,-0.0819855,0.00245666
46,1437501408904,0.201584,-0.0659637,-0.00288391
47,1437501408925,0.249649,-0.0349884,0.0184784
48,1437501408947,0.247513,-0.0157623,0.0163422
49,1437501408965,0.221878,-0.00828552,0.0045929
50,1437501408984,0.212265,0.0109406,0.00672913
51,1437501409003,0.193039,0.0226898,0.0195465
52,1437501409024,0.166336,0.0280304,0.0291595
53,1437501409042,0.104385,0.015213,0.0419769
54,1437501409063,0.026413,0.00132751,0.0483856
55,1437501409082,-0.0131073,-0.0168304,0.0494537
56,1437501409103,0.0157318,-0.0307159,0.0473175
57,1437501409122,0.054184,-0.0317841,0.0526581
58,1437501409145,0.0488434,-0.0446014,0.0526581
59,1437501409162,0.0210724,-0.0627594,0.0259552
60,1437501409181,0.0189362,-0.0616913,0.0174103
61,1437501409201,0.00718689,-0.0381927,0.0654755
62,1437501409221,-0.0312653,-0.0723724,0.0473175
63,1437501409244,-0.0216522,-0.077713,0.0377045
64,1437501409261,-0.0462189,-0.0595551,0.0644074
65,1437501409281,-0.142349,-0.0713043,0.0142059
66,1437501409300,-0.257706,-0.0926666,-0.0199738
67,1437501409320,-0.280136,-0.0819855,-0.0263824
68,1437501409340,-0.223526,-0.0627594,-0.0167694
69,1437501409359,-0.176529,-0.0467377,0.0206146
70,1437501409380,-0.140213,-0.0339203,0.0441132
71,1437501409398,-0.111374,-0.0285797,0.0590668
72,1437501409419,-0.0974884,-0.0339203,0.0847015
73,1437501409439,-0.10817,-0.0798492,0.0622711
74,1437501409459,-0.124191,-0.120438,0.0366364
75,1437501409478,-0.178665,-0.149277,0.0045929
76,1437501409498,-0.253433,-0.205887,-0.0242462
77,1437501409518,-0.367722,-0.273178,-0.0680389
78,1437501409540,-0.465988,-0.32872,-0.124649
79,1437501409558,-0.511917,-0.352219,-0.151352
80,1437501409576,-0.498032,-0.329788,-0.142807
81,1437501409597,-0.407242,-0.343674,-0.0797882
82,1437501409617,-0.380539,-0.293472,0.0195465
83,1437501409643,-0.477737,-0.274246,0.0718842
84,1437501409653,-0.598434,-0.276382,0.0601349
85,1437501409675,-0.650772,-0.336197,0.0270233
86,1437501409696,-0.722336,-0.416306,-0.0605621
87,1437501409714,-0.794968,-0.467575,-0.139603
88,1437501409735,-0.774673,-0.457962,-0.184464
89,1437501409755,-0.756516,-0.415237,-0.200485
90,1437501409775,-0.712723,-0.374649,-0.20369
91,1437501409795,-0.738358,-0.341537,-0.238937
92,1437501409815,-0.751175,-0.314835,-0.234665
93,1437501409834,-0.713791,-0.307358,-0.197281
94,1437501409854,-0.653976,-0.307358,-0.166306
95,1437501409873,-0.70845,-0.298813,-0.165237
96,1437501409893,-0.859055,-0.287064,-0.170578
97,1437501409914,-0.989365,-0.23259,-0.150284
98,1437501409933,-0.910324,-0.17598,-0.0199738
99,1437501409953,-0.6465,-0.104416,0.151993
100,1437501409972,-0.426468,-0.0243073,0.313278
101,1437501409991,-0.291885,0.0184174,0.417953
102,1437501410012,-0.222458,0.0387115,0.448929
103,1437501410031,-0.0601044,0.0515289,0.494858
104,1437501410051,0.171677,0.115616,0.527969
105,1437501410070,0.383163,0.136978,0.527969
106,1437501410091,0.582901,0.133774,0.491653
107,1437501410114,0.695053,0.141251,0.40834
108,1437501410131,0.613876,0.194656,0.299393
109,1437501410151,0.421616,0.199997,0.1819
110,1437501410168,0.262466,0.201065,0.0601349
111,1437501410190,0.189835,0.225632,-0.02211
112,1437501410209,0.173813,0.26622,-0.0605621
113,1437501410230,0.264603,0.297195,-0.059494
114,1437501410249,0.400253,0.31749,-0.0637665
115,1437501410269,0.497452,0.3741,-0.0263824
116,1437501410289,0.493179,0.445663,0.0409088
117,1437501410310,0.450455,0.432846,0.0473175
118,1437501410328,0.509201,0.418961,-0.00502014
119,1437501410347,0.618149,0.473434,-0.0178375
120,1437501410368,0.72496,0.496933,-0.0359955
121,1437501410388,0.688644,0.481979,-0.0926056
122,1437501410408,0.588242,0.488388,-0.116104
123,1437501410427,0.567947,0.519363,-0.0990143
124,1437501410447,0.636307,0.510818,-0.0466766
125,1437501410466,0.755936,0.474503,0.0248871
126,1437501410485,0.822159,0.4478,0.0750885
127,1437501410507,0.833908,0.405075,0.103928
128,1437501410525,0.773026,0.370895,0.0964508
129,1437501410546,0.682236,0.361282,0.107132
130,1437501410565,0.70787,0.355942,0.141312
131,1437501410585,0.791184,0.352737,0.188309
132,1437501410606,0.857407,0.33992,0.237442
133,1437501410625,0.83284,0.275833,0.251327
134,1437501410645,0.721756,0.206406,0.203262
135,1437501410664,0.541245,0.132706,0.131699
136,1437501410684,0.287033,0.106003,0.0366364
137,1437501410707,0.0947723,0.111343,-0.0488129
138,1437501410725,0.091568,0.141251,-0.0797882
139,1437501410739,0.241104,0.2267,-0.0456085
140,1437501410761,0.448318,0.321762,0.0270233
141,1437501410781,0.650192,0.384781,0.10286
142,1437501410800,0.784775,0.39653,0.173355
143,1437501410820,0.830704,0.369827,0.240646
144,1437501410840,0.765549,0.329239,0.267349
145,1437501410860,0.620285,0.24913,0.243851
146,1437501410880,0.438705,0.173294,0.208603
147,1437501410900,0.29451,0.123093,0.192581
148,1437501410919,0.216537,0.0921173,0.170151
149,1437501410938,0.213333,0.0760956,0.14772
150,1437501410961,0.256058,0.0643463,0.135971
151,1437501410980,0.246445,0.0451202,0.122086
152,1437501411000,0.166336,0.024826,0.112473
153,1437501411019,0.0413666,-0.0200348,0.0836334
154,1437501411043,-0.0803986,-0.0787811,0.0345001
155,1437501411059,-0.239548,-0.0948029,0.00566101
156,1437501411079,-0.452103,-0.128983,0.0270233
157,1437501411099,-0.649704,-0.147141,0.0868378
158,1437501411117,-0.75972,-0.183456,0.157333
159,1437501411141,-0.749039,-0.275314,0.196854
160,1437501411158,-0.647568,-0.376785,0.192581
161,1437501411178,-0.682816,-0.478256,0.126358
162,1437501411198,-0.892166,-0.610703,0.0110016
163,1437501411218,-1.15065,-0.708969,-0.0990143
164,1437501411240,-1.31621,-0.708969,-0.11824
165,1437501411258,-1.30019,-0.64061,-0.0434723
166,1437501411277,-1.17415,-0.540207,0.0857697
167,1437501411296,-0.96907,-0.504959,0.196854
168,1437501411317,-0.692429,-0.5103,0.236374
169,1437501411338,-0.522598,-0.463303,0.235306
170,1437501411356,-0.515121,-0.412033,0.201126
171,1437501411376,-0.608047,-0.344742,0.109268
172,1437501411396,-0.691361,-0.246475,0.0697479
173,1437501411416,-0.667862,-0.142868,0.098587
174,1437501411437,-0.567459,-0.104416,0.150925
175,1437501411455,-0.440353,-0.12471,0.190445
176,1437501411472,-0.36879,-0.177048,0.175491
177,1437501411491,-0.370926,-0.226181,0.163742
178,1437501411511,-0.433945,-0.205887,0.133835
179,1437501411534,-0.515121,-0.134323,0.0857697
180,1437501411554,-0.519394,-0.0520782,0.0473175
181,1437501411574,-0.373062,0.0130768,0.0120697
182,1437501411593,-0.107101,0.0857086,0.00672913
183,1437501411612,0.196243,0.173294,0.0302277
184,1437501411634,0.433365,0.196793,0.0110016
185,1437501411652,0.529495,0.180771,-0.059494
186,1437501411673,0.503861,0.201065,-0.11824
187,1437501411691,0.377823,0.26622,-0.123581
188,1437501411712,0.178085,0.234177,-0.111832
189,1437501411733,0.122543,0.141251,-0.165237
190,1437501411751,0.188766,0.162613,-0.199417
191,1437501411772,0.301987,0.162613,-0.233597
192,1437501411791,0.306259,0.0825043,-0.366043
193,1437501411811,0.238968,0.0600739,-0.498489
194,1437501411831,0.201584,0.149796,-0.591415
195,1437501411850,0.326553,0.287582,-0.660843
196,1437501411871,0.728165,0.367691,-0.65657
197,1437501411890,1.29533,0.428574,-0.592484
198,1437501411910,1.81657,0.39653,-0.497421
199,1437501411928,2.06117,0.310013,-0.427994
200,1437501411950,2.0804,0.210678,-0.360702
201,1437501411969,1.96291,0.111343,-0.343613
202,1437501411989,1.79521,-0.0467377,-0.468582
203,1437501412009,1.53886,-0.196274,-0.653366
204,1437501412028,1.13725,-0.327652,-0.881943
205,1437501412048,0.617081,-0.399216,-1.12013
206,1437501412068,0.138565,-0.404556,-1.33696
207,1437501412088,-0.186142,-0.343674,-1.50999
208,1437501412107,-0.335678,-0.23793,-1.59544
209,1437501412127,-0.306839,-0.106552,-1.59331
210,1437501412148,-0.129532,0.0216217,-1.52708
211,1437501412168,0.103317,0.112411,-1.3925
212,1437501412187,0.330826,0.173294,-1.20238
213,1437501412207,0.535904,0.208542,-0.96312
214,1437501412226,0.641647,0.2267,-0.698227
215,1437501412245,0.574356,0.225632,-0.427994
216,1437501412269,0.379959,0.197861,-0.172714
217,1437501412285,0.108658,0.153,0.0398407
218,1437501412305,-0.177597,0.161545,0.274826
219,1437501412325,-0.381607,0.149796,0.487381
220,1437501412344,-0.473465,0.156204,0.745865
221,1437501412365,-0.614456,0.142319,0.995804
222,1437501412385,-0.750107,0.18718,1.20943
223,1437501412404,-0.802444,0.289719,1.46898
224,1437501412424,-0.721268,0.303604,1.70824
225,1437501412444,-0.540756,0.281174,1.86952
226,1437501412465,-0.399765,0.273697,1.89836
227,1437501412484,-0.392288,0.167953,1.82252
228,1437501412503,-0.411514,0.0632782,1.70824
229,1437501412523,-0.500168,-0.00614929,1.54695
230,1437501412543,-0.62941,-0.0232391,1.36003
231,1437501412561,-0.894302,-0.0830536,1.10475
232,1437501412582,-1.54585,-0.127914,0.753342
233,1437501412601,-3.63188,-0.337265,0.132767
234,1437501412622,-3.64577,-0.620316,0.170151
235,1437501412642,-1.97524,-0.609634,0.330368
236,1437501412664,-0.349564,-0.396011,0.511948
237,1437501412681,0.191971,-0.211227,0.670029
238,1437501412701,-0.171188,-0.190933,0.566422
239,1437501412720,-0.628342,-0.178116,0.372025
240,1437501412740,-0.849441,-0.150345,0.292984
241,1437501412763,-0.658249,-0.147141,0.267349
242,1437501412779,-0.257706,-0.200546,0.195786
243,1437501412800,0.1642,-0.241135,0.113541
244,1437501412819,0.457932,-0.23259,-0.00395203
245,1437501412839,0.49852,-0.167435,-0.184464
246,1437501412862,0.249649,-0.0488739,-0.388474
247,1437501412877,-0.0579681,0.120956,-0.529465
248,1437501412899,-0.0953522,0.213882,-0.602097
249,1437501412919,0.177017,0.237381,-0.562576
250,1437501412938,0.559402,0.178635,-0.549759
251,1437501412958,1.06355,0.195724,-0.635208
252,1437501412978,1.52071,0.211746,-0.782608
253,1437501412998,1.66597,0.147659,-1.0208
254,1437501413017,1.65422,0.108139,-1.23656
255,1437501413037,1.58159,0.140182,-1.35939
256,1437501413055,1.45448,0.103867,-1.40852
257,1437501413076,1.3434,-0.0296478,-1.44057
258,1437501413098,1.23766,-0.117233,-1.43843
259,1437501413116,1.14366,-0.204819,-1.43202
260,1437501413136,0.959946,-0.282791,-1.42882
261,1437501413155,0.633102,-0.356491,-1.49184
262,1437501413176,0.245377,-0.371445,-1.58156
263,1437501413197,-0.155167,-0.284927,-1.62962
264,1437501413215,-0.50444,-0.117233,-1.59972
265,1437501413234,-0.72554,0.0921173,-1.46941
266,1437501413254,-0.664658,0.311081,-1.22054
267,1437501413274,-0.37413,0.437119,-0.93428
268,1437501413297,0.0509796,0.461685,-0.635208
269,1437501413314,0.445114,0.394394,-0.334
270,1437501413334,0.623489,0.24379,-0.0520172
271,1437501413352,0.359665,0.0664825,0.242783
272,1437501413372,-0.360245,-0.0926666,0.598465
273,1437501413396,-1.31728,-0.347946,0.956284
274,1437501413412,-2.11409,-0.639542,1.28954
275,1437501413433,-2.45909,-0.755966,1.58113
276,1437501413452,-2.5862,-0.758102,1.81078
277,1437501413472,-2.42812,-0.804031,1.96565
278,1437501413492,-1.85774,-0.822189,2.00731
279,1437501413512,-1.30019,-0.62352,1.96245
280,1437501413531,-1.19551,-0.376785,1.98167
281,1437501413550,-1.25212,-0.282791,2.01158
282,1437501413571,-1.15065,-0.194138,1.99556
283,1437501413594,-0.923141,-0.169571,1.97099
284,1437501413611,-0.656113,-0.244339,1.81184
285,1437501413630,-0.533279,-0.343674,1.60463
286,1437501413650,-0.491623,-0.335129,1.38994
287,1437501413670,-0.535416,-0.242203,1.0631
288,1437501413689,-0.751175,-0.0787811,0.683914
289,1437501413709,-0.92421,-0.0275116,0.258804
290,1437501413728,-0.658249,-0.100143,-0.160965
291,1437501413749,-0.498032,-0.127914,-0.571121
292,1437501413769,-0.454239,-0.125778,-0.95137
293,1437501413789,-0.418991,-0.0948029,-1.31026
294,1437501413808,-0.404037,0.207474,-1.50572
295,1437501413828,-0.480942,0.369827,-1.49611
296,1437501413846,0.0189362,0.0579376,-1.69051
297,1437501413867,0.874496,0.156204,-2.07289
298,1437501413890,1.48546,0.48732,-2.07076
299,1437501413906,1.87959,0.452072,-2.31001
300,1437501413927,1.96291,0.315353,-2.51723
301,1437501413946,1.73647,0.172226,-2.56422
302,1437501413966,1.35088,0.0344391,-2.69453
303,1437501413989,0.902267,-0.0435333,-2.78853
304,1437501414004,0.659805,0.0194855,-2.79387
305,1437501414025,0.624557,0.201065,-2.73833
306,1437501414044,0.635239,0.4478,-2.66463
307,1437501414065,0.607468,0.70842,-2.4948
308,1437501414085,0.637375,0.892136,-2.19145
309,1437501414105,0.74205,0.963699,-1.79091
310,1437501414125,0.941788,0.935928,-1.28355
311,1437501414144,1.12444,0.775711,-0.752701
312,1437501414164,1.08812,0.442459,-0.300888
313,1437501414183,0.686508,0.00773621,0.0120697
314,1437501414204,-0.0515594,-0.346878,0.321823
315,1437501414225,-0.892166,-0.696152,0.688187
316,1437501414243,-1.74132,-1.13515,1.10902
317,1437501414263,-2.45268,-1.50685,1.50636
318,1437501414282,-2.87779,-1.6425,1.85243
319,1437501414303,-2.79768,-1.84544,2.06819
320,1437501414323,-1.99019,-1.8604,2.18034
321,1437501414342,-1.20512,-1.45451,2.27968
322,1437501414361,-1.02782,-0.943954,2.30211
323,1437501414381,-1.04277,-0.530594,2.37047
324,1437501414401,-0.960526,-0.263565,2.33415
325,1437501414424,-0.684952,-0.279587,2.13548
326,1437501414441,0.00932312,-0.4366,1.76912
327,1437501414461,0.608536,-0.563705,1.33546
328,1437501414480,0.804001,-0.619247,0.964828
329,1437501414498,0.46434,-0.655563,0.614487
330,1437501414523,-0.329269,-0.68013,0.254532
331,1437501414539,-1.1389,-0.700424,-0.156693
332,1437501414560,-1.46574,-0.69722,-0.586075
333,1437501414579,-1.41554,-0.578659,-0.952438
334,1437501414599,-1.16454,-0.24968,-1.12334
335,1437501414621,-0.676407,0.174362,-1.20665
336,1437501414638,0.07341,0.536453,-1.30598
337,1437501414658,0.416275,0.894272,-1.37755
338,1437501414677,0.426956,1.18907,-1.41493
339,1437501414697,1.01869,1.1848,-1.46941
340,1437501414719,1.63927,1.29054,-1.75993
341,1437501414738,1.91377,1.45824,-2.12309
342,1437501414757,1.8091,1.58534,-2.25127
343,1437501414777,1.62431,1.5298,-2.38158
344,1437501414797,1.32738,1.45183,-2.545
345,1437501414818,0.887314,1.42406,-2.62938
346,1437501414836,0.575424,1.45503,-2.59734
347,1437501414855,0.405594,1.56718,-2.42857
348,1437501414876,0.324417,1.73274,-2.153
349,1437501414896,0.37355,1.86946,-1.83363
350,1437501414918,0.552994,1.93248,-1.46086
351,1437501414935,0.791184,1.86946,-1.04964
352,1437501414955,1.06783,1.58107,-0.72493
353,1437501414974,1.20027,1.06517,-0.493149
354,1437501414994,1.12337,0.471298,-0.207962
355,1437501415015,0.899063,-0.142868,0.122086
356,1437501415034,0.268875,-0.621384,0.403
357,1437501415053,-0.692429,-0.964249,0.671097
358,1437501415073,-1.79686,-1.38829,1.03105
359,1437501415093,-2.37791,-1.84651,1.47539
360,1437501415113,-1.83424,-2.48738,1.33119
361,1437501415132,-1.30553,-2.73625,1.03105
362,1437501415153,-1.35252,-2.40193,1.0898
363,1437501415172,-1.658,-1.91701,1.07912
364,1437501415192,-1.89299,-1.40752,1.05348
365,1437501415212,-1.70393,-0.959976,0.981918
366,1437501415232,-1.04918,-0.825394,0.806747
367,1437501415254,-0.188278,-0.863846,0.633713
368,1437501415271,0.450455,-1.0732,0.505539
369,1437501415291,0.825363,-1.28575,0.417953
370,1437501415310,0.755936,-1.30605,0.400864
371,1437501415331,0.330826,-1.40965,0.16481
372,1437501415352,-0.250229,-1.33595,-0.104355
373,1437501415370,-0.667862,-1.08495,-0.363907
374,1437501415390,-0.680679,-0.728195,-0.61171
375,1437501415409,-0.392288,-0.309494,-0.822128
376,1437501415430,-0.0579681,0.15834,-0.933212
377,1437501415448,0.2379,0.642197,-0.997299
378,1437501415469,0.347916,1.12071,-0.939621
379,1437501415488,0.305191,1.79683,-0.81572
380,1437501415508,0.85527,2.14824,-0.927872
381,1437501415528,1.41176,2.06813,-1.14684
382,1437501415549,1.48332,1.96452,-1.12547
383,1437501415568,1.14366,1.84169,-1.32735
384,1437501415588,0.90654,2.02327,-1.32414
385,1437501415607,0.745255,2.08522,-1.33803
386,1437501415627,0.440842,2.01793,-1.35725
387,1437501415648,0.132156,1.94743,-1.3658
388,1437501415666,0.0349579,1.91005,-1.33269
389,1437501415687,0.13002,1.90364,-1.1682
390,1437501415705,0.182358,1.8716,-0.887283
391,1437501415726,0.152451,1.66011,-0.628799
392,1437501415749,0.116135,1.3824,-0.371384
393,1437501415764,0.127884,1.13139,-0.11824
394,1437501415785,0.3116,0.849411,0.0665436
395,1437501415804,0.536972,0.47023,0.19899
396,1437501415825,0.475021,0.015213,0.274826
397,1437501415845,0.104385,-0.522049,0.372025
398,1437501415865,-0.437149,-1.08281,0.490585
399,1437501415884,-1.04063,-1.64143,0.671097
400,1437501415904,-1.49886,-2.0612,0.903946
401,1437501415924,-1.53838,-2.56535,1.0161
402,1437501415942,-1.08229,-2.82277,1.06416
403,1437501415964,-0.87294,-2.60594,1.17525
404,1437501415982,-1.15492,-2.19899,1.25002
405,1437501416003,-1.54585,-1.86253,1.15068
406,1437501416022,-1.6046,-1.57094,1.00969
407,1437501416042,-1.40379,-1.45879,0.807816
408,1437501416062,-0.992569,-1.42567,0.627304
409,1437501416081,-0.592026,-1.36479,0.549332
410,1437501416101,-0.341019,-1.31352,0.492722
411,1437501416121,-0.179733,-1.227,0.391251
412,1437501416144,0.0189362,-1.10524,0.253464
413,1437501416161,0.217606,-0.978134,0.0579987
414,1437501416181,0.190903,-0.821121,-0.194077
415,1437501416201,0.0189362,-0.609634,-0.418381
416,1437501416220,-0.197891,-0.297745,-0.605301
417,1437501416240,-0.299362,0.136978,-0.73027
418,1437501416258,-0.1306,0.572769,-0.793289
419,1437501416282,0.0840912,0.955154,-0.716385
420,1437501416299,0.229355,1.51591,-0.581802
421,1437501416319,0.687576,2.00084,-0.715317
422,1437501416339,1.26329,2.04036,-1.03575
423,1437501416358,1.40001,1.972,-1.2419
424,1437501416381,1.25047,1.92821,-1.21306
425,1437501416398,1.10735,2.01472,-1.19063
426,1437501416418,1.02403,2.10658,-1.19597
427,1437501416437,0.92897,2.03822,-1.1447
428,1437501416458,0.822159,1.94423,-1.13615
429,1437501416480,0.609604,1.9015,-1.13722
430,1437501416497,0.352188,1.84596,-1.06673
431,1437501416517,0.151382,1.77653,-0.902237
432,1437501416536,0.0648651,1.6772,-0.641617
433,1437501416557,0.190903,1.48601,-0.298752
434,1437501416578,0.531631,1.21257,0.0248871
435,1437501416596,0.83284,0.868637,0.211807
