id,attr_time,attr_x,attr_y,attr_z
1,1438259512881,-0.1150817,0.0089505,-0.023252716
2,1438259512882,-0.10897304,-0.013040649,-0.02844507
3,1438259512883,-0.10652958,-0.018233003,-0.025085311
4,1438259512884,-0.099504635,-0.019760167,-0.026612476
5,1438259512885,-0.10469699,-0.00845916,-0.026612476
6,1438259512908,-0.10988934,-0.0020450745,-0.03272113
7,1438259512921,-0.1019481,0.0040635783,-0.026917908
8,1438259512939,-0.11691429,-0.0017396417,-0.02019839
9,1438259512956,-0.13371308,-0.03442093,-0.022030985
10,1438259512981,-0.10927847,-0.0017396417,-0.03547002
11,1438259512996,-0.0851493,0.02758189,-0.027834205
12,1438259513017,-0.10897304,-0.004793968,-0.017144063
13,1438259513037,-0.12149578,-0.05030343,-0.014089737
14,1438259513057,-0.10591872,-0.048165396,-0.018976659
15,1438259513077,-0.0991992,-0.05183059,-0.025696177
16,1438259513098,-0.115692556,-0.08115212,-0.03760805
17,1438259513117,-0.12577184,-0.11077909,-0.028139638
18,1438259513140,-0.13218592,-0.09581289,-0.0296668
19,1438259513160,-0.12882617,-0.094591156,-0.0296668
20,1438259513179,-0.13524024,-0.09795091,-0.0296668
21,1438259513198,-0.14898472,-0.08115212,-0.018671226
22,1438259513217,-0.14165433,-0.09978351,-0.023558147
23,1438259513239,-0.12516098,-0.12208009,-0.019282091
24,1438259513260,-0.10652958,-0.1352137,-0.018976659
25,1438259513278,-0.099810064,-0.11444427,-0.0156169
26,1438259513300,-0.10286439,-0.12818874,-0.018365793
27,1438259513317,-0.10347526,-0.1428495,-0.016227765
28,1438259513340,-0.10958391,-0.1342974,-0.013478871
29,1438259513360,-0.12882617,-0.1202475,-0.013478871
30,1438259513379,-0.12057948,-0.16209176,-0.011646276
31,1438259513399,-0.08728732,-0.17950143,-0.029972233
32,1438259513419,-0.11630343,-0.18408291,-0.03669175
33,1438259513439,-0.18472034,-0.2317304,-0.036997184
34,1438259513461,-0.23542215,-0.28457025,-0.042800404
35,1438259513480,-0.22687003,-0.26960406,-0.033637427
36,1438259513499,-0.2219831,-0.2915952,-0.010119113
37,1438259513518,-0.2742121,-0.3600121,-0.0012615677
38,1438259513538,-0.30567163,-0.39483142,0.012788333
39,1438259513619,-0.2433634,-0.45408535,0.03936097
40,1438259513620,-0.064990744,-0.5487695,0.04638592
41,1438259513621,0.06084749,-0.61291033,0.0024036244
42,1438259513622,0.16469459,-0.6575035,-0.10480323
43,1438259513638,0.21356381,-0.74485725,-0.15855938
44,1438259513662,0.19798674,-0.6776621,-0.074870825
45,1438259513677,0.08833644,-0.5273892,0.008206844
46,1438259513697,-0.077513486,-0.40338355,0.016758956
47,1438259513718,0.017170623,-0.25402698,-0.0577666
48,1438259513740,0.4795956,-0.16300806,-0.15428331
49,1438259513759,0.6762942,-0.08115212,-0.16650063
50,1438259513784,0.3051936,-0.050914295,-0.13504106
51,1438259513800,-0.09003622,-0.3065614,0.0020981915
52,1438259513821,-0.094006844,-0.29984188,0.18688494
53,1438259515233,-0.20854408,-0.1755308,0.13068533
54,1438259515234,-0.31636178,-0.2851811,-0.16558433
55,1438259515235,-0.17952798,-0.21218272,-0.015922332
56,1438259515236,-0.29284346,0.30583102,0.24064109
57,1438259515237,-0.5118387,0.7291606,0.29470265
58,1438259515238,-0.7085373,0.55384225,0.43795055
59,1438259515239,-0.5161147,-0.19630022,0.14473522
60,1438259515240,-0.23847649,-0.45897228,-0.1017489
61,1438259515241,-0.106835015,-0.3758946,-0.26240647
62,1438259515242,-0.02925513,-0.2506672,-0.14786923
63,1438259515243,-0.079346076,-0.05916097,-0.021725552
64,1438259515244,-0.20548975,0.14120282,-0.0095082475
65,1438259515245,-0.30109018,0.21939358,-0.055628575
66,1438259515246,-0.28581852,0.18915574,-0.13840082
67,1438259515247,-0.26627085,0.114324756,-0.16283542
68,1438259515248,-0.11966319,0.11554649,-0.13015413
69,1438259515249,0.073064804,0.18732315,-0.039746076
70,1438259515250,0.3586443,0.22672397,-0.044327565
71,1438259515251,0.7468492,-0.13857345,-0.22300565
72,1438259515252,0.62986845,-0.41590628,-0.49636784
73,1438259515253,-0.7836737,-1.3389236,-0.9154214
74,1438259515254,-0.7555739,-2.1260235,-0.26790425
75,1438259515255,-0.032920323,-0.71400857,0.72444636
76,1438259515256,0.3387912,1.5501635,0.65175337
77,1438259515257,-0.016732395,1.8128356,0.030503426
78,1438259515258,-0.42051435,1.5584102,0.28615054
79,1438259515259,-0.2772664,1.5920078,0.56806487
80,1438259515260,-0.61629665,0.831786,0.43245277
81,1438259515261,-0.4254012,0.20137306,0.13648856
82,1438259515262,0.019308656,-0.58175623,-0.036080886
83,1438259515263,0.12865354,-0.96018726,-0.13962254
84,1438259515264,-0.022535607,-0.84992605,-0.09594568
85,1438259515265,-0.16364548,-0.27326924,0.12732556
86,1438259515266,-0.1947996,0.33331993,0.22353685
87,1438259515267,-0.26291108,0.5727791,0.12702012
88,1438259515268,-0.2842914,0.4096781,-0.0015669987
89,1438259515269,-0.16181289,0.2954463,-0.035164587
90,1438259515270,0.1029972,0.31499398,-0.015922332
91,1438259515271,0.28045356,0.28964308,0.020118717
92,1438259515272,0.18790747,0.29605716,-0.0156169
93,1438259515273,0.47195977,0.032774244,-0.14878553
94,1438259515274,0.7633425,-0.65964156,-0.37663826
95,1438259515275,0.42950463,-1.1388652,-0.7498769
96,1438259515276,-0.12638271,-1.2143071,-0.44138998
97,1438259515277,-0.12210664,-1.0246334,0.27882016
98,1438259515278,-0.58178276,0.4564093,0.27668214
99,1438259515279,-0.56926,0.6399743,-0.13290302
100,1438259515280,-0.59583265,0.66624147,0.032336023
101,1438259515281,-0.5350515,0.46832117,0.28004187
102,1438259515282,-0.38752759,0.64272314,0.46818838
103,1438259515283,-0.13951631,0.46343425,0.3411284
104,1438259515284,-0.10836218,-0.22714892,-0.07120564
105,1438259515285,-0.17738995,-0.79372644,-0.19734931
106,1438259515286,-0.056438632,-0.843512,-0.14053884
107,1438259515287,0.09108533,-0.6122995,-0.17352557
108,1438259515288,0.15400444,-0.29495496,-0.2654608
109,1438259515289,0.17569016,-0.17186561,-0.30333441
110,1438259515290,0.07367566,-0.1886644,-0.24316421
111,1438259515291,-0.0701831,-0.25372157,-0.17199841
112,1438259515292,-0.15692596,-0.26196823,-0.15581048
113,1438259515293,-0.117219724,-0.2476129,-0.15336701
114,1438259515294,0.09139076,-0.21890223,-0.19001892
115,1438259515295,0.48875856,-0.72530955,-0.44200084
116,1438259515296,0.8531397,-0.9837056,-0.58249986
117,1438259515297,0.23891471,-0.52769464,-0.59960407
118,1438259515298,-0.1825823,-0.13215937,-0.38488492
119,1438259515299,-0.54085475,0.4096781,0.77606446
120,1438259515300,-0.7341936,2.6741555,0.9168689
121,1438259515301,-0.37225598,2.2178392,0.24674973
122,1438259515302,-0.15936942,1.534281,0.0986149
123,1438259515303,-0.22778633,0.68640006,0.4272604
124,1438259515304,-0.40157747,0.5810258,0.5833365
125,1438259515305,-0.48770952,0.831786,0.36037067
126,1438259515306,-0.3820298,0.2560455,-0.051352516
127,1438259515317,-0.19907567,-0.6602524,-0.2028471
128,1438259515337,-0.023757339,-0.87405527,-0.1579485
129,1438259515357,-0.020397581,-0.4751602,-0.016227765
130,1438259515377,-0.060409255,0.34095576,0.15481451
131,1438259515397,-0.04513762,0.8369783,0.1884121
132,1438259515417,-0.0701831,0.8327023,0.11235937
133,1438259515437,-0.18013884,0.50314045,-0.029055934
134,1438259515457,-0.30475536,0.13417788,-0.19032437
135,1438259515478,-0.3847787,-0.22562176,-0.24469137
136,1438259515498,-0.3395747,-0.5487695,-0.27645636
137,1438259515520,0.109411284,-1.044792,-0.32532558
138,1438259515542,0.6582737,-0.97759694,-0.49392438
139,1438259515559,0.35894972,-0.30778313,-0.887627
140,1438259515582,-0.3753103,-1.1080166,-0.9426049
141,1438259515603,-0.106835015,-1.9342119,0.55981815
142,1438259515622,-0.10988934,0.8528608,0.5362999
143,1438259515643,-0.089730784,0.64761007,-0.11610423
144,1438259515663,-0.37408856,-0.22928694,0.20551631
145,1438259515682,-0.8759144,-0.18255575,0.7803405
146,1438259515697,-0.9855647,0.5178012,0.88174415
147,1438259515718,-0.70823187,0.8650781,0.39030308
148,1438259515739,-0.12363381,0.1952644,-0.096556544
149,1438259515762,-0.02467364,-0.95866007,-0.1289324
150,1438259515778,-0.053078875,-1.1825421,-0.054712277
151,1438259515803,-0.11905232,-0.63459605,0.06410102
152,1438259515818,-0.23236781,0.25390747,0.084565
153,1438259515839,-0.36095494,0.71694326,0.056159765
154,1438259515861,-0.42051435,0.7453485,0.08761933
155,1438259515879,-0.37775373,0.6573839,0.13221249
156,1438259515902,-0.4767139,0.5639216,-0.024169013
157,1438259515920,-0.38630587,0.5110817,-0.15245071
158,1438259515942,-0.027117103,0.42953122,-0.13717908
159,1438259515963,0.31649458,-0.48310146,-0.15581048
160,1438259515983,1.1655973,-0.8450391,-0.61243224
161,1438259516005,0.95576507,0.13784306,-0.905953
162,1438259516021,-0.4092133,-0.3722294,-0.61334854
163,1438259516042,-0.66913646,-1.9812485,0.36464673
164,1438259516062,-0.6572246,0.9075332,0.5842528
165,1438259516083,0.39529622,1.099345,0.29164833
166,1438259516103,0.4420274,1.0165727,0.122744076
167,1438259516155,0.053211674,0.8342294,0.24949864
168,1438259516156,-0.37653202,0.87393564,0.32555136
169,1438259516159,-0.6505051,0.8708813,0.37411514
170,1438259516182,-0.6337063,-0.02739598,0.02408934
171,1438259516203,-0.5017594,-1.1733792,-0.19796017
172,1438259516222,-0.36767447,-1.3932906,-0.25507608
173,1438259516242,-0.14287606,-0.99225765,-0.08281208
174,1438259516262,-0.010318309,-0.30625597,0.060435824
175,1438259516282,0.040688947,-0.03442093,0.03355775
176,1438259516304,-0.07965151,0.11218673,-0.020809256
177,1438259516322,-0.21831793,-0.024341656,-0.02600161
178,1438259516341,-0.20182456,-0.098867215,0.032641456
179,1438259516361,-0.15723139,-0.044194773,0.030808859
180,1438259516382,0.019003227,-0.12299639,-0.06967847
181,1438259516402,0.39743423,-0.23325756,-0.3610612
182,1438259516420,0.8073248,-1.0072238,-0.7309401
183,1438259516477,0.285035,-0.79586446,-0.713225
184,1438259516489,-0.20212999,-1.2246919,-0.15367246
185,1438259516490,-0.5885023,-0.19110787,0.4132105
186,1438259516500,-0.118746884,2.015643,0.48834693
187,1438259516529,0.03763461,1.6271325,-0.0033995956
188,1438259516542,-0.22045594,1.3140641,0.07387486
189,1438259516559,-0.62698674,0.8620238,0.28737226
190,1438259516582,-0.81666046,1.2706927,0.43397993
191,1438259516599,-0.52008533,0.7853602,0.22384226
192,1438259516621,-0.12485554,-0.65047854,-0.22697628
193,1438259516641,0.032442257,-1.2924979,-0.31035936
194,1438259516661,0.0006772727,-1.0093619,-0.17413643
195,1438259516680,-0.12852073,-0.38658476,0.035084914
196,1438259516703,-0.24030906,0.27620405,0.17344588
197,1438259516723,-0.3444616,0.4722918,0.11083221
198,1438259516743,-0.33743665,0.3018604,0.012177467
199,1438259516763,-0.27024147,0.1091324,-0.04921449
200,1438259516783,-0.12852073,0.07706197,-0.011951709
201,1438259516801,0.02297385,0.08225433,0.021035016
202,1438259516822,0.12712638,-0.040835015,-0.032110263
203,1438259516841,0.08650383,-0.38841733,-0.20070907
204,1438259516865,0.4966998,-1.167576,-0.4154282
205,1438259516880,0.8372572,-0.73080736,-0.61701375
206,1438259516903,0.18882377,0.274066,-0.855862
207,1438259516923,-0.06529618,-0.65200573,-0.06723501
208,1438259516942,-0.10622415,-0.3823087,0.45383304
209,1438259516962,-0.05094084,0.98725116,0.2775984
210,1438259516983,0.109411284,0.8834041,0.33440888
211,1438259517003,-0.18136057,0.865689,0.24216825
212,1438259517023,-0.28765112,0.71755415,0.26477027
213,1438259517043,-0.28062618,0.8559151,0.42267892
214,1438259517062,-0.29528695,0.71663785,0.26477027
215,1438259517083,-0.30994773,-0.19996542,-0.16986036
216,1438259517111,-0.30842054,-1.4216958,-0.37572196
217,1438259517120,-0.21404186,-1.45285,-0.3723622
218,1438259517185,-0.14745755,-1.0182194,-0.21598071
219,1438259517186,-0.18197143,-0.21309902,-0.08372837
220,1438259517187,-0.24947205,0.34736985,0.009734008
221,1438259517212,-0.30964226,0.44907892,-0.019587524
222,1438259517220,-0.25374812,0.19343181,-0.092280485
223,1438259517241,-0.1327968,0.11463019,-0.10419236
224,1438259517261,0.06329095,0.26398674,-0.083422944
225,1438259517307,0.077340856,0.030025352,-0.023252716
226,1438259517308,0.41545475,-0.6474242,-0.18146682
227,1438259517327,0.95545965,-0.8612271,-0.57975096
228,1438259517340,0.28870022,-0.44064632,-0.9801731
229,1438259517362,-0.4632749,-0.99378484,-0.819821
230,1438259517384,0.10605152,-1.430248,0.6282351
231,1438259517404,0.0070913583,1.3968364,0.6312894
232,1438259517424,-0.10225353,0.7917743,0.024394773
233,1438259517444,-0.34049097,0.5853018,0.11755172
234,1438259517463,-0.23084065,0.6860946,0.4373397
235,1438259517484,-0.20335172,1.2465636,0.61601776
236,1438259517504,-0.28398594,1.2465636,0.5711192
237,1438259517526,-0.46724552,0.07706197,0.021035016
238,1438259517544,-0.33835295,-1.416809,-0.23705554
239,1438259517565,-0.22381571,-1.8697655,-0.22636542
240,1438259517582,-0.11935775,-1.5285972,-0.086171836
241,1438259517603,-0.19602135,-0.4656918,0.017675254
242,1438259517624,-0.24794489,0.31743744,0.0714314
243,1438259517642,-0.2442797,0.47717872,0.122744076
244,1438259517664,-0.23511672,0.33698514,0.18413603
245,1438259517682,-0.18227687,0.09050101,0.11174851
246,1438259517704,-0.10316982,-0.21706964,-0.038218915
247,1438259517724,0.097804844,-0.41010305,-0.29692033
248,1438259517744,-0.07965151,-0.607718,-0.50797427
249,1438259517764,0.025111884,-0.5142556,-0.57852924
250,1438259517784,0.21356381,1.1500468,-0.66863185
251,1438259517808,-0.18013884,1.8116139,-0.8583055
252,1438259517825,0.22333767,-1.2537079,-0.31371912
253,1438259517847,0.6533868,1.1836444,0.71986485
254,1438259517926,0.2819807,1.6640899,0.4477244
255,1438259517927,-0.34568334,0.34401008,0.3915248
256,1438259517928,-0.52313966,0.62775695,0.5732572
257,1438259517929,-0.35179198,0.5856073,0.61632323
258,1438259517942,-0.4098242,0.68304026,0.32005355
259,1438259517964,-0.32918996,0.4069292,-0.16558433
260,1438259517987,0.004953325,-0.66544473,-0.28928453
261,1438259518002,0.10482979,-1.1749064,-0.19582215
262,1438259518022,-0.028338827,-1.2005626,-0.113966204
263,1438259518043,-0.27451754,-0.5078415,0.019813284
264,1438259518062,-0.41654372,0.47687328,0.03294689
265,1438259518083,-0.42173606,1.1167547,0.0008764621
266,1438259518101,-0.49595618,1.0352042,-0.07242737
267,1438259518124,-0.50695175,0.6372254,-0.03791348
268,1438259518144,-0.3386584,0.28445074,-0.05287968
269,1438259518164,-0.047581084,-0.1782797,-0.076092556
270,1438259518181,0.49608898,-0.5564053,-0.08189578
271,1438259518204,1.2248513,-1.1177905,-0.26912597
272,1438259518224,1.5773205,-1.126648,-0.65091676
273,1438259518244,0.68698436,-0.30075818,-0.9429103
274,1438259518264,-0.46938354,-0.79281014,-0.03791348
275,1438259518284,-1.1501929,-0.56312484,0.3936628
276,1438259518305,-1.2109739,1.0663583,0.43917227
277,1438259518326,-0.6443964,0.9267755,0.45169502
278,1438259518341,-0.16395092,1.2838264,0.5702029
279,1438259518365,0.03519115,0.9536536,0.43245277
280,1438259518386,-0.13554569,0.72030306,0.29042658
281,1438259518406,-0.4599151,0.5309348,0.24613887
282,1438259518425,-0.675856,-0.43881372,0.17588934
283,1438259518445,-0.66852564,-1.0502898,0.13771027
284,1438259518465,-0.44250548,-0.976986,0.012788333
285,1438259518485,-0.19418874,-0.66941535,-0.071511075
286,1438259518503,0.08192235,-0.3224439,0.04821852
287,1438259518525,0.19035093,0.04835131,0.12427124
288,1438259518546,0.17263584,0.16502658,0.12091149
289,1438259518566,0.15675335,0.07553481,0.0033199228
290,1438259518585,0.14575775,-0.265328,-0.12801611
291,1438259518603,0.100859165,-0.5854214,-0.12160202
292,1438259518662,-0.008180276,-0.578091,-0.1157988
293,1438259518663,-0.12180121,-0.626044,-0.26698795
294,1438259518673,0.32993364,-1.3132674,-0.73796505
295,1438259518682,0.46890545,-0.27998877,-1.0629454
296,1438259518711,-0.013983503,-0.14071149,-0.47682014
297,1438259518722,0.0843658,-1.135811,0.4104616
298,1438259518744,-0.28123704,1.4224927,0.30508736
299,1438259518764,-0.82826686,1.7667153,0.22017708
300,1438259518783,-0.72289264,1.4878553,0.21590102
301,1438259518805,-0.5833099,0.890429,0.3035602
302,1438259518825,-0.55673724,1.2013595,0.47857308
303,1438259518845,-0.36095494,1.2303756,0.26507568
304,1438259518866,-0.19541048,0.07522938,-0.31860605
305,1438259518882,-0.18808009,-1.1724628,-0.42642376
306,1438259518904,-0.19205073,-1.4024537,-0.36167204
307,1438259518925,-0.17677909,-0.9604927,-0.17047125
308,1438259518945,-0.16334005,-0.2063795,-0.08220121
309,1438259518965,-0.23664388,0.44297025,-0.0754817
310,1438259518985,-0.3004793,0.5150523,-0.14725837
311,1438259519004,-0.3294954,0.21542296,-0.2132318
312,1438259519025,-0.21679077,-0.12818874,-0.19643301
313,1438259519045,-0.056438632,-0.22775978,-0.12679437
314,1438259519063,0.18760203,-0.30075818,-0.086171836
315,1438259519085,0.30977505,-0.6239059,-0.20803946
316,1438259519103,0.49944872,-1.3621365,-0.42000967
317,1438259519125,0.86321896,-1.1636053,-0.7465172
318,1438259519145,0.06542899,-0.033504635,-1.0030806
319,1438259519165,-0.82948864,-0.9232299,0.03569578
320,1438259519183,-0.52863747,-0.460194,0.79561216
321,1438259519211,-0.5179473,0.9527373,0.32280245
322,1438259519231,-0.17830625,0.45060608,0.33318716
323,1438259519242,-0.37500486,0.346759,0.70642585
324,1438259519262,-0.37744832,1.0058826,0.753157
325,1438259519284,-0.11202737,1.6014762,0.45047328
326,1438259519304,0.1836314,1.5742928,-0.12343462
327,1438259519323,0.0077022165,0.22092074,-0.30852678
328,1438259519345,-0.00023902953,-1.0802222,-0.2752346
329,1438259519387,0.16164027,-1.1425304,-0.14848009
330,1438259519388,0.051073655,-0.6141321,-0.044022135
331,1438259519414,-0.10958391,-0.030450309,0.021035016
332,1438259519422,-0.12668814,0.21878271,0.07387486
333,1438259519442,-0.06957223,0.17296782,0.086397596
334,1438259519462,-0.026506238,-0.011513485,0.025616504
335,1438259519482,0.08192235,-0.1025324,0.0063742492
336,1438259519505,0.22181047,-0.048165396,0.031419724
337,1438259519522,0.38674408,0.0037581455,0.03569578
338,1438259519544,0.42400688,-0.48035255,-0.16497344
339,1438259519565,0.7086701,-1.103435,-0.5363795
340,1438259519584,0.66529864,-0.4553071,-0.9044258
341,1438259519603,-0.37500486,0.46251795,-0.9368017
342,1438259519624,-0.16211832,-1.913137,0.7442995
343,1438259519646,-0.2574133,1.2859644,0.6816858
344,1438259519664,-0.7360262,0.5266588,0.15573081
345,1438259519686,-0.18685836,0.6583002,0.42695498
346,1438259519706,-0.32583022,0.5150523,0.51003265
347,1438259519723,-0.57445234,1.2364843,0.494761
348,1438259519746,-0.58361536,1.2874914,0.21223584
349,1438259519766,-0.7344991,0.36111432,-0.02722334
350,1438259519790,-0.35240284,-0.8939084,-0.16711149
351,1438259519814,-0.0692668,-1.1333674,-0.22270021
352,1438259519831,0.097499415,-0.75737995,-0.10022174
353,1438259519846,0.040994376,0.12745835,0.05677063
354,1438259519864,-0.025284506,0.6937304,0.10075293
355,1438259519884,-0.12974246,0.7984938,0.067766204
356,1438259519906,-0.21465273,0.7261063,-0.02722334
357,1438259519927,-0.21465273,0.48786885,-0.08250664
358,1438259519946,-0.15692596,0.15525272,-0.05990463
359,1438259519966,-0.042694166,-0.1202475,0.01462093
360,1438259519986,0.47257066,-0.5423554,-0.05379598
361,1438259520004,1.2245458,-0.9653796,-0.44383344
362,1438259520025,0.84397674,-0.63887215,-0.8167667
363,1438259520043,-0.3368258,-0.11291711,-0.7611779
364,1438259520075,-0.07445916,-1.5133257,0.6419795
365,1438259520138,-0.50878435,1.1375241,0.3936628
366,1438259520139,-0.76046085,0.45121694,0.24247366
367,1438259520146,-0.7433566,0.6787642,0.51033807
368,1438259520147,-0.48648775,0.5837747,0.6453393
369,1438259520173,-0.3530137,0.75145715,0.5372161
370,1438259520184,-0.40127206,0.76978314,0.24033564
371,1438259520203,-0.53993845,0.20503825,-0.1438986
372,1438259520226,-0.4987051,-1.0353236,-0.37602738
373,1438259520244,-0.34659964,-1.5124093,-0.33143422
374,1438259520265,-0.07995694,-1.305326,-0.19032437
375,1438259520283,0.0132,-0.682549,-0.11152274
376,1438259520304,-0.07537545,-0.26654974,-0.0437167
377,1438259520326,-0.12088492,-0.12055293,-0.0113408435
378,1438259520345,-0.10225353,-0.15842658,-0.064486116
379,1438259520366,-0.09034166,-0.31541893,-0.16344628
380,1438259520386,-0.12577184,-0.3600121,-0.19307324
381,1438259520406,-0.10714045,-0.30869943,-0.205596
382,1438259520426,0.31985438,-0.28029418,-0.36839157
383,1438259520443,1.2877704,-1.2643981,-0.6616069
