id,attr_time,attr_x,attr_y,attr_z
1,1436281189250,0.011393968,0.04327847,-0.0051657977
2,1436281189272,0.004063584,0.025563378,0.0006374214
3,1436281189291,-0.0008233376,0.009986315,-0.006082096
4,1436281189313,-0.011208046,0.013040639,-0.009441854
5,1436281189332,-0.012124343,0.0047939606,-0.0051657977
6,1436281189352,0.009255942,-0.008339643,-0.006082096
7,1436281189371,0.007117912,-0.036439445,-0.0030277697
8,1436281189393,-0.010902613,-0.00559075,-0.012801614
9,1436281189415,0.0031472892,0.07993039,-0.011579883
10,1436281189432,0.023916706,0.071989134,-0.006082096
11,1436281189453,0.015975457,0.0304503,-0.012190748
12,1436281189473,0.013531998,0.03747525,-0.0131070465
13,1436281189492,-0.00021247193,0.048165396,-0.011579883
14,1436281189512,0.011393968,0.048776254,-0.013717912
15,1436281189532,0.0068124793,0.0463328,-0.0036386345
16,1436281189553,-0.0017396361,0.005710257,0.00033198856
17,1436281189571,-0.023730783,-0.007728778,-0.0073038265
18,1436281189592,0.003452722,0.07657063,-0.014939642
19,1436281189611,0.022389542,0.06465875,0.0024700183
20,1436281189633,0.00070382655,-0.01750262,0.0046080463
21,1436281189651,0.009561371,0.008459151,-0.0039440673
22,1436281189673,0.008950509,0.025563378,-0.01707767
23,1436281189691,-0.0050993934,0.04297304,-0.020437429
24,1436281189712,0.012921132,0.058550104,-0.008525557
25,1436281189732,-0.0032667965,0.017011266,-0.010663586
26,1436281189751,-0.00815372,0.0026559308,-0.010969018
27,1436281189771,-0.014262373,0.0017396342,-0.002722337
28,1436281189790,-0.013040641,0.014873236,-0.006387529
29,1436281189840,0.008034211,0.03472636,-0.002722337
30,1436281189841,-0.0011287704,0.0011287685,-0.006692961
31,1436281189911,-0.005710259,0.045416497,-0.012190748
32,1436281189912,0.013531998,0.055495776,0.0009428542
33,1436281189913,0.007728778,-0.026054734,-0.0073038265
34,1436281189914,0.00039839372,0.0011287685,-0.01585594
35,1436281189932,-0.012429776,0.054274045,-0.006692961
36,1436281189953,-0.008459153,0.03747525,-0.0033332026
37,1436281189972,0.011393968,0.010902613,-0.0030277697
38,1436281189991,0.011699401,-0.00559075,-0.0030277697
39,1436281190012,-0.0011287704,0.012429774,-0.012496181
40,1436281190032,0.001620125,0.058855534,-0.011579883
41,1436281190053,-0.0047939606,0.04327847,-0.009136423
42,1436281190071,0.015059158,0.028923139,-0.0015006065
43,1436281190092,0.0010092594,-0.030636225,-0.013717912
44,1436281190112,-0.0011287704,0.031061165,-0.025629785
45,1436281190134,0.008034211,0.053052314,-0.016161373
46,1436281190152,-0.009070016,0.02464708,-0.006082096
47,1436281190174,-0.021898188,0.019149292,-0.0015006065
48,1436281190193,-0.0032667965,0.017927565,0.0061352085
49,1436281190212,-0.0069319885,-0.0049798843,-0.011885315
50,1436281190234,0.008950509,0.045416497,-0.011579883
51,1436281190252,0.025138438,0.045721933,-0.0048603658
52,1436281190272,0.011699401,0.00601569,0.0030808821
53,1436281190293,-0.0008233376,0.004488528,-0.013717912
54,1436281190312,0.008645076,0.077486925,-0.014939642
55,1436281190336,0.0123102665,0.06374246,-0.0057766633
56,1436281190352,-0.0026559308,0.016705833,-0.0048603658
57,1436281190375,-0.008459153,0.02464708,-0.01005272
58,1436281190391,-0.015484102,0.027701408,-0.00883099
59,1436281190414,0.008645076,0.009986315,-0.006692961
60,1436281190435,0.005590748,-0.055376265,2.6555732e-05
61,1436281190455,-0.004183095,-0.016891755,-0.01005272
62,1436281190474,-0.005710259,0.06893481,-0.013717912
63,1436281190492,-0.0014342032,0.06679678,-0.010663586
64,1436281190513,0.012615699,0.018538427,-0.010663586
65,1436281190534,-0.0014342032,-0.012004835,-0.012496181
66,1436281190552,-0.002350498,0.015789535,-0.013412479
67,1436281190666,0.007117912,0.0435839,-0.0057766633
68,1436281190667,-0.007848287,0.004488528,0.0021645855
69,1436281190668,-0.018843861,-0.01383743,-0.0057766633
70,1436281190677,0.016891755,0.045111068,-0.012801614
71,1436281190680,0.025138438,0.028312273,-0.002722337
72,1436281190681,0.00070382655,-0.011699402,-0.0073038265
73,1436281190691,-0.014567804,0.0304503,-0.015245074
74,1436281190712,0.013837431,0.08542817,-0.008525557
75,1436281190731,0.003452722,0.009070016,-0.011579883
76,1436281190751,-0.011208046,-0.013531997,-0.014023344
77,1436281190772,-0.0026559308,0.02678511,-0.0036386345
78,1436281190793,-0.0054048263,0.011513479,0.0046080463
79,1436281190814,0.0083396435,-0.005285317,-0.0057766633
80,1436281190833,0.014142863,0.0072374213,-0.010663586
81,1436281190852,0.00070382655,0.041140445,-0.010663586
82,1436281190874,0.0013146922,0.06679678,-0.011579883
83,1436281190895,-0.008459153,0.013956938,-0.006387529
84,1436281190913,-0.0014342032,-0.0019255579,-0.0011951737
85,1436281190935,-0.00021247193,-0.019946083,-0.0021114722
86,1436281190953,-0.008764584,0.030755732,-0.010663586
87,1436281190974,0.005590748,0.073210865,-0.009136423
88,1436281190995,0.011393968,0.056717508,-0.0039440673
89,1436281191013,0.014448296,0.014873236,0.004913479
90,1436281191035,0.0025364235,-0.021778679,-0.0051657977
91,1436281191052,-0.009070016,0.045111068,-0.015550507
92,1436281191073,0.0022309907,0.067407645,-0.0039440673
93,1436281191097,-0.0032667965,-9.296276e-05,-0.0069983937
94,1436281191118,0.00039839372,0.006321123,-0.004554933
95,1436281191133,-0.009070016,0.011208046,0.0018591527
96,1436281191154,-0.010291748,0.0011287685,-0.0057766633
97,1436281191172,0.0019255579,0.035642654,-0.00883099
98,1436281191192,0.0123102665,0.031061165,-0.0021114722
99,1436281191212,0.0065070465,-0.012004835,-0.0030277697
100,1436281191247,0.0022309907,0.009070016,-0.009747287
101,1436281191254,0.005285315,0.049997985,-0.0054712305
102,1436281191272,0.005590748,0.01884386,0.0021645855
103,1436281191292,0.005590748,-0.008950508,2.6555732e-05
104,1436281191312,-0.004183095,-0.0010092594,-0.0048603658
105,1436281191332,-0.022509053,0.014567804,-0.0131070465
106,1436281191364,-0.010291748,0.06374246,-0.0048603658
107,1436281191376,0.0022309907,0.014567804,0.00735694
108,1436281191392,0.007728778,-0.036134012,0.0079678055
109,1436281191412,9.2960894e-05,-0.027581898,-0.016161373
110,1436281191432,9.2960894e-05,0.08023582,-0.023186322
111,1436281191452,0.0043690167,0.070156544,2.6555732e-05
112,1436281191472,-0.0069319885,-0.019335218,0.0043026134
113,1436281191493,-0.017927563,0.0035722293,-0.002416905
114,1436281191514,0.005590748,0.054579474,0.0027754493
115,1436281191536,0.0028418563,0.002045067,-0.00027887523
116,1436281191553,0.0049798824,0.028312273,-0.006082096
117,1436281191575,0.01047767,0.06343702,-0.0073038265
118,1436281191597,-0.0008233376,0.058244668,0.0006374214
119,1436281191616,-0.004488528,0.021287322,0.0015537199
120,1436281191635,-0.014873236,0.011208046,0.0018591527
121,1436281191652,-0.01762213,0.01884386,2.6555732e-05
122,1436281191674,-0.01395694,0.02678511,0.006746074
123,1436281191692,-0.01762213,0.005710257,0.0076623727
124,1436281191714,0.0043690167,0.022814486,2.6555732e-05
125,1436281191736,0.010172237,0.025257945,0.00033198856
126,1436281191757,0.011699401,0.031061165,-0.010358153
127,1436281191774,0.0022309907,0.051219717,-0.0030277697
128,1436281191796,-0.007542854,0.046638228,-0.0030277697
129,1436281191813,0.007728778,0.03533722,0.004913479
130,1436281191835,0.0083396435,-0.0019255579,0.004913479
131,1436281191855,0.003452722,0.0005179029,-0.004554933
132,1436281191875,-0.013651507,0.027395975,-0.012190748
133,1436281191897,-0.016094968,0.061298996,0.0021645855
134,1436281191916,-0.009070016,0.0017396342,0.007051507
135,1436281191937,-0.012124343,-0.053543672,0.003386315
136,1436281191956,-0.021592755,-0.017197188,-0.0030277697
137,1436281191973,-0.0066265576,0.051219717,0.005218912
138,1436281191994,0.001620125,0.018538427,0.010411266
139,1436281192017,0.0043690167,0.013956938,0.0030808821
140,1436281192034,-0.0008233376,0.009986315,0.0018591527
141,1436281192055,-0.004488528,0.0026559308,-0.00027887523
142,1436281192121,0.001620125,0.008153718,0.0043026134
143,1436281192122,-0.018232996,-0.005896181,2.6555732e-05
144,1436281192123,-0.022814486,0.046943665,0.0058297757
145,1436281192133,0.015364591,0.04755453,0.010716699
146,1436281192155,0.023611274,-0.022084111,-0.0048603658
147,1436281192173,0.016586322,0.047249094,-0.009747287
148,1436281192193,0.015670024,0.08023582,-0.0033332026
149,1436281192217,-0.0032667965,0.057633802,-0.0048603658
150,1436281192233,0.0049798824,0.037780683,0.0024700183
151,1436281192256,0.0046744496,0.0008233357,0.0058297757
152,1436281192274,-0.014567804,-0.02910906,0.001248287
153,1436281192294,-0.015178669,0.015178669,-0.0018060394
154,1436281192313,0.008645076,0.030144867,0.001248287
155,1436281192337,0.010172237,0.02678511,-0.0051657977
156,1436281192355,0.014142863,0.03625352,0.0039971806
157,1436281192378,0.0083396435,0.017622132,-0.0048603658
158,1436281192394,0.009255942,0.046943665,-0.007914691
159,1436281192416,-0.0050993934,0.04205674,-0.0069983937
160,1436281192437,0.0025364235,0.050914288,-0.009441854
161,1436281192456,0.01841892,0.03747525,-0.0011951737
162,1436281192476,0.01047767,0.009070016,-0.0021114722
163,1436281192494,0.0031472892,0.02464708,-0.0076092593
164,1436281192518,0.0046744496,0.05060885,-0.00883099
165,1436281192538,0.0013146922,0.05488491,-0.0069983937
166,1436281192556,0.009561371,0.034115493,-0.0015006065
167,1436281192577,0.01047767,-0.024527572,-0.0039440673
168,1436281192596,0.009866804,-0.041937232,-0.0069983937
169,1436281192617,-0.011513479,0.02098189,-0.016161373
170,1436281192643,-0.015178669,0.09123139,-0.015550507
171,1436281192656,0.023916706,0.06465875,-0.00027887523
172,1436281192680,0.025138438,-0.048656747,0.0064406414
173,1436281192697,-0.0014342032,-0.06423381,-0.004554933
174,1436281192717,-0.0014342032,0.06465875,-0.020437429
175,1436281192737,0.011393968,0.119942054,-0.014328777
176,1436281192755,0.01628089,0.04052958,-0.0076092593
177,1436281192783,0.008950509,-0.010172239,-0.008525557
178,1436281192856,-0.010291748,0.0011287685,-0.008220124
179,1436281192857,0.007117912,0.0008233357,-0.00058430806
180,1436281192858,-0.00815372,-0.015975459,-0.01127445
181,1436281192859,-0.012124343,0.029839434,-0.01707767
182,1436281192877,-0.0014342032,0.058244668,-0.0069983937
183,1436281192900,0.015670024,0.013040639,0.0021645855
184,1436281192916,0.015975457,-0.054154538,0.00033198856
185,1436281192935,-0.006015692,-0.021167813,-0.014023344
186,1436281192957,-0.0032667965,0.121163785,-0.018910266
187,1436281192974,0.016891755,0.08054125,0.0009428542
188,1436281192996,0.015670024,-0.067899,0.003386315
189,1436281193014,0.0062016137,-0.07584025,-0.0011951737
190,1436281193039,0.009866804,0.029839434,-0.014939642
191,1436281193057,0.008645076,0.1016161,-0.017383102
192,1436281193078,0.0025364235,0.059771836,-0.006387529
193,1436281193096,0.009561371,0.039918713,-0.01585594
194,1436281193117,0.021167811,0.061298996,-0.0042495
195,1436281193138,0.0046744496,-0.0034527201,0.00033198856
196,1436281193157,-0.032893762,-0.00559075,-0.004554933
197,1436281193177,-0.0017396361,0.106808454,-0.007914691
198,1436281193198,0.021167811,0.027701408,0.0015537199
199,1436281193217,0.0083396435,-0.070342466,0.005524343
200,1436281193235,-0.013651507,-0.06301208,-0.011885315
201,1436281193255,0.0028418563,0.09734005,-0.016466806
202,1436281193277,0.015059158,0.06496419,-0.0018060394
203,1436281193295,0.00039839372,-0.03216339,0.00033198856
204,1436281193315,-0.005710259,-0.028192762,-0.00058430806
205,1436281193335,-0.008764584,0.017011266,-0.0036386345
206,1436281193357,0.007117912,0.03533722,-0.0018060394
207,1436281193380,-0.0069319885,-0.0031472873,-0.0039440673
208,1436281193397,0.0025364235,-9.296276e-05,0.0058297757
209,1436281193417,-0.0026559308,-0.05110021,0.0046080463
210,1436281193435,-0.01395694,-0.038577475,-0.0036386345
211,1436281193455,-0.014873236,0.038696982,-0.01005272
212,1436281193474,0.011393968,0.07993039,-0.016161373
213,1436281193497,0.040410064,0.0066265557,0.0021645855
214,1436281193515,-0.0017396361,-0.057514295,-0.010358153
215,1436281193588,-0.0054048263,0.050914288,-0.014328777
216,1436281193589,0.007728778,0.048470825,-0.006082096
217,1436281193590,-0.011208046,-0.011088536,-0.009136423
218,1436281193603,0.00039839372,0.035948087,-0.014023344
219,1436281193619,-0.004183095,0.041445874,0.0058297757
220,1436281193637,-0.0069319885,-0.0043690186,0.0046080463
221,1436281193660,0.022389542,-0.015975459,-0.006082096
222,1436281193675,0.011393968,0.016094968,-0.007914691
223,1436281193729,0.005896181,0.065880485,-0.0021114722
224,1436281193730,0.008034211,0.084511876,0.016214486
225,1436281193735,-0.0063211247,0.009070016,0.01926881
226,1436281193757,0.01628089,-0.01750262,0.019574244
227,1436281193775,0.04804588,-0.03491228,0.008884102
228,1436281193798,0.052016504,-0.013531997,-0.010358153
229,1436281193819,0.017808054,0.047249094,-0.033265598
230,1436281193838,0.0046744496,0.18072315,-0.037847087
231,1436281193858,-0.011208046,0.12727244,-0.0076092593
232,1436281193874,-0.022814486,-0.06392838,0.00033198856
233,1436281193894,-0.012429776,-0.082254335,-0.0048603658
234,1436281193915,-0.0011287704,-0.02788733,-0.019826563
235,1436281193934,0.013226565,0.035642654,-0.01585594
236,1436281193958,0.032468818,0.0017396342,-0.014328777
237,1436281193979,0.030941658,-0.03796661,-0.010358153
238,1436281193995,0.026054733,-0.005896181,-0.021353727
239,1436281194018,0.030330792,0.027701408,-0.033265598
240,1436281194035,-0.015484102,0.055495776,-0.047926366
241,1436281194055,-0.046638228,0.050303422,-0.051286124
242,1436281194076,-0.06221529,-0.09508251,-0.05556218
243,1436281194098,-0.08512274,-0.31682658,-0.042428575
244,1436281194118,-0.13643542,-0.38096744,-0.03448733
245,1436281194137,-0.12910503,-0.29544634,-0.04517747
246,1436281194158,-0.053968612,-0.1839634,-0.07969136
247,1436281194177,0.018724352,0.044194765,-0.10687486
248,1436281194196,0.0046744496,0.3200004,-0.07266641
249,1436281194216,-0.06068813,0.3685642,-0.04303944
250,1436281194238,-0.07046197,0.3890282,-0.00883099
251,1436281194255,-0.04052958,0.31083745,-0.009747287
252,1436281194329,0.08133804,0.38108695,0.0024700183
253,1436281194330,0.16349941,0.07382173,0.032707848
254,1436281194331,0.14425716,-0.063317515,0.057753325
255,1436281194338,0.1250149,0.13826801,0.1689308
256,1436281194359,0.050183915,0.11719316,0.28988212
257,1436281194380,0.13753764,0.04052958,0.3262286
258,1436281194395,0.23894128,-0.22672397,0.31492758
259,1436281194420,0.3479807,-0.36783385,0.2477324
260,1436281194435,0.5871345,-0.28261817,0.10631711
261,1436281194456,0.4854254,-0.21725556,-0.069612086
262,1436281194479,0.25574008,-0.49153405,-0.051591557
263,1436281194497,0.22855657,-1.4020287,-0.25195536
264,1436281194520,0.40662378,-0.5397924,-0.3301461
265,1436281194535,0.33148736,0.05213602,-0.30693322
266,1436281194558,0.20656541,0.013651505,-0.2656998
267,1436281194578,0.40754008,-0.6928142,-0.48561132
268,1436281194597,0.35867086,-1.2911566,-0.7458399
269,1436281194618,0.30735818,-0.95365363,-0.8564065
270,1436281194637,0.33423626,-0.48023307,-0.7815755
271,1436281194658,0.31713203,0.2363119,-0.6734524
272,1436281194677,0.36019802,-0.26520848,-0.13466923
273,1436281194698,-0.11688773,0.29984188,0.010411266
274,1436281194717,-0.06526962,-0.36111432,-0.26967046
275,1436281194739,0.3644741,-0.086530395,-0.12428452
276,1436281194759,0.10882698,-0.11432476,0.22726843
277,1436281194779,0.04376983,-0.20656541,0.39403465
278,1436281194798,0.09722054,-0.10302375,0.3915912
279,1436281194818,0.16930263,0.24425314,0.35493925
280,1436281194840,0.09294447,0.34596223,0.4001433
281,1436281194859,-0.19660565,0.35940123,0.48658073
282,1436281194879,-0.3542089,0.29403865,0.591955
283,1436281194899,-0.4452278,0.39788574,0.70435417
284,1436281194919,-0.31816784,0.4604994,0.62646884
285,1436281194937,0.0407155,0.26013565,0.36898917
286,1436281194958,-0.29709297,-0.08836299,0.37143263
287,1436281194976,-1.0753353,-0.52818596,0.4526777
288,1436281195039,-1.5243213,-0.5349055,0.31767648
289,1436281195040,-1.6104534,-0.85011196,0.09654327
290,1436281195041,-1.8871753,-1.0147401,0.02598833
291,1436281195063,-2.5423284,0.57503664,0.22177064
292,1436281195077,-2.153207,3.3379803,-0.14597024
293,1436281195099,-1.5515049,4.720979,-0.92054737
294,1436281195117,-2.3554034,2.6571708,-1.121522
295,1436281195137,-2.8825803,1.5631112,-0.9828556
296,1436281195158,-2.889605,0.08603904,-0.8377751
297,1436281195177,-3.022163,-2.196459,-0.9022214
298,1436281195199,-2.8376815,-1.7322013,-1.0149261
299,1436281195216,-2.8541749,-1.029401,-0.79654175
300,1436281195277,-2.8886888,-1.8717841,-0.89611274
301,1436281195278,-2.3639555,-1.7825978,-0.7641659
302,1436281195279,-2.040808,-0.75634414,-0.7088826
303,1436281195303,-1.6703181,-0.5010025,-0.700025
304,1436281195316,-1.3422835,-0.5339892,-0.600454
305,1436281195336,-0.9464427,-0.5929377,-0.52745557
306,1436281195356,-0.3572632,-0.36416864,-0.6218343
307,1436281195377,0.24779883,0.106197596,-0.7766886
308,1436281195398,0.6088202,0.47577107,-0.6789502
309,1436281195432,0.9554862,0.7265312,-0.47919723
310,1436281195439,1.366904,0.6336797,-0.1325312
311,1436281195455,1.8482656,0.405827,0.18939479
312,1436281195479,2.162556,0.44308978,0.6060049
313,1436281195495,2.1158247,1.0194411,0.929458
314,1436281195515,2.238914,1.4827824,0.7266508
315,1436281195535,2.8436706,1.4165035,0.25750625
316,1436281195555,2.3308492,1.7955455,0.29660162
317,1436281195575,2.1176572,1.8413603,0.43282458
318,1436281195595,2.4426377,1.5386766,1.0097868
319,1436281195615,2.5455685,1.2793642,1.4804585
320,1436281195635,2.0153372,1.4394109,1.7855856
321,1436281195655,1.2697763,1.8175366,1.589498
322,1436281195676,1.4133296,1.1614673,0.8903627
323,1436281195695,1.8262746,0.46263748,0.5641606
324,1436281195715,1.8488767,1.056093,0.5763779
325,1436281195735,1.548331,1.430248,0.48383182
326,1436281195755,1.6106391,1.2378254,0.024461165
327,1436281195775,1.5125954,-1.2859644,-0.08335655
328,1436281195796,0.3571437,-4.3769426,0.5174294
329,1436281195816,0.7016717,-2.9084225,0.33233726
330,1436281195835,1.3497996,-1.2529776,-0.21041653
331,1436281195855,1.214493,-0.015364593,-0.3994793
332,1436281195876,1.0938473,0.57320404,-0.7177401
333,1436281195895,1.1237795,0.76868093,-0.7876842
334,1436281195915,1.0758266,0.9812621,-0.41566724
335,1436281195935,0.8391164,0.765932,0.755056
336,1436281195955,0.2670411,1.4943888,0.90349627
337,1436281195975,-0.5524346,0.28854084,0.47497427
338,1436281195995,-0.15048532,-0.40051514,0.26666924
339,1436281196015,0.23313805,0.2353956,0.2672801
340,1436281196035,-0.052441448,0.43728656,0.31370586
341,1436281196055,-0.6532274,1.0035586,0.3842608
342,1436281196087,-0.6425373,0.20424147,0.1997795
343,1436281196095,-1.0157759,-0.9151691,0.13869296
344,1436281196115,-1.6981125,-1.1454653,0.16007325
345,1436281196136,-2.3141701,-0.61798316,0.021101408
346,1436281196155,-2.6003604,-0.09660967,-0.117565006
347,1436281196175,-2.474522,0.8844399,-0.28921813
348,1436281196195,-1.892673,2.2268162,-0.72171074
349,1436281196216,-1.2643981,2.8734171,-1.1273253
350,1436281196239,-1.4342186,2.2430043,-1.5036182
351,1436281196256,-2.41649,1.3599985,-1.8405104
352,1436281196290,-2.1153336,1.178266,-1.7079527
353,1436281196296,-3.1483066,-2.2263913,-1.4327579
354,1436281196318,-3.9995472,-2.0614576,-1.019202
355,1436281196337,-3.7216036,-3.938952,-1.302949
356,1436281196357,-2.9158723,-4.0959444,-1.6288457
357,1436281196376,-2.7420812,-2.2908378,-1.4162645
358,1436281196401,-2.2564433,-1.9673845,-1.0054576
359,1436281196419,-1.7088025,-1.0486431,-0.61786366
360,1436281196437,-1.2979956,-0.9130311,-0.56258035
361,1436281196461,-0.7112596,-0.88737476,-0.47308856
362,1436281196478,0.05965232,-0.68792725,-0.3664926
363,1436281196500,0.66807413,-0.38402176,-0.49813405
364,1436281196521,0.98633486,-0.26184872,-0.5558608
365,1436281196541,1.2871861,0.3028962,-0.17773522
366,1436281196561,1.9863212,0.15353964,0.56446606
367,1436281198016,2.3684175,-0.5379598,0.97374576
368,1436281198017,2.4637125,0.77387327,0.7364246
369,1436281198018,3.133526,1.8932838,-0.08549458
370,1436281198019,2.6964521,1.2967739,-0.024408054
