id,attr_time,attr_x,attr_y,attr_z
1,1436281189249,-0.05196338,0.013531972,-0.043610472
2,1436281189267,-0.044327565,0.004979858,-0.053078882
3,1436281189289,-0.035775453,-0.020065617,-0.062852725
4,1436281189308,-0.05074165,-0.029228594,-0.06499076
5,1436281189329,-0.07242736,-0.011513501,-0.061630994
6,1436281189350,-0.07212193,-0.0069320127,-0.056744076
7,1436281189368,-0.07425996,-0.04022417,-0.07018311
8,1436281189389,-0.1008326,-0.06588051,-0.086371034
9,1436281189408,-0.0867827,-0.11536059,-0.097366616
10,1436281189429,-0.050130785,-0.12543987,-0.11019479
11,1436281189448,-0.026001606,-0.16209178,-0.108973056
12,1436281189469,-0.019892953,-0.18683183,-0.11996862
13,1436281189489,-0.024169013,-0.1434604,-0.13737829
14,1436281189507,-0.03455372,-0.1407115,-0.15234448
15,1436281189527,-0.059904628,-0.17522539,-0.15936944
16,1436281189577,-0.097778276,-0.2082121,-0.1749465
17,1436281189578,-0.1597811,-0.21890225,-0.20548975
18,1436281189587,-0.21017748,-0.25066724,-0.24000365
19,1436281189606,-0.291728,-0.308394,-0.30628255
20,1436281189627,-0.38855013,-0.41804433,-0.3508757
21,1436281189647,-0.5140829,-0.5747313,-0.38936022
22,1436281189667,-0.59380084,-0.616881,-0.40493727
23,1436281189686,-0.69886965,-0.58206165,-0.41898718
24,1436281189707,-0.66313404,-0.51242304,-0.3679799
25,1436281189727,-0.5495131,-0.40735418,-0.32949543
26,1436281189747,-0.38946643,-0.3868902,-0.3096423
27,1436281189768,-0.2956986,-0.47729823,-0.32063788
28,1436281189789,-0.28409216,-0.42476383,-0.3368258
29,1436281189808,-0.31921694,-0.3151135,-0.32796824
30,1436281189829,-0.3864121,-0.28365397,-0.32583022
31,1436281189849,-0.46704632,-0.31419724,-0.35881695
32,1436281189868,-0.475293,-0.4372866,-0.41043505
33,1436281189889,-0.40748695,-0.5423554,-0.43425882
34,1436281189915,-0.29233885,-0.51822627,-0.3789755
35,1436281189930,-0.27920526,-0.37497833,-0.31483465
36,1436281189949,-0.355258,-0.25738677,-0.276961
37,1436281189970,-0.38793927,-0.26929864,-0.2589405
38,1436281189987,-0.41573364,-0.29128978,-0.20548975
39,1436281190008,-0.43069983,-0.25830305,-0.17005958
40,1436281190029,-0.42428574,-0.17919602,-0.14012718
41,1436281190049,-0.4154282,-0.12696703,-0.08331671
42,1436281190069,-0.31952235,-0.08298473,-0.0023770668
43,1436281190089,-0.12771067,-0.01823302,0.066345274
44,1436281190110,-0.009508245,0.007117888,0.112771034
45,1436281190129,0.10899961,0.0037581287,0.18088251
46,1436281190151,0.16458835,0.0022309646,0.1909618
47,1436281190170,0.11510827,-0.07748695,0.2013465
48,1436281190190,-0.04585473,-0.17461452,0.24196903
49,1436281190210,-0.48628858,-0.27052036,0.2444125
50,1436281190230,-0.7321618,-0.34351876,0.06451267
51,1436281190248,-0.248662,-0.60435826,0.31221852
52,1436281190267,0.8276826,-0.31633526,0.7437948
53,1436281190329,1.2714761,0.2477988,0.7324938
54,1436281190341,1.2690327,0.6656306,0.54282016
55,1436281190342,1.1447216,0.19434808,0.5293811
56,1436281190349,1.2387949,-0.22073483,0.6988962
57,1436281190369,1.2213852,-0.28365397,0.8183204
58,1436281190390,1.070807,-0.11902578,0.68454087
59,1436281190407,1.0457615,0.0999694,0.573058
60,1436281190432,0.96543276,0.11065954,0.6579682
61,1436281190458,0.932446,0.02941447,0.7211928
62,1436281190468,0.9834533,-0.058244694,0.640864
63,1436281190494,1.0533973,-0.123301834,0.61215335
64,1436281190508,1.0986013,-0.1547614,0.64300203
65,1436281190529,1.0436234,-0.23844993,0.5654222
66,1436281190550,0.9694034,-0.35420892,0.43622416
67,1436281190570,0.7809514,-0.48065802,0.27067968
68,1436281190590,0.694514,-0.6480351,0.2819807
69,1436281190610,0.6984846,-0.67155343,0.33420968
70,1436281190630,0.69084877,-0.62024075,0.33665314
71,1436281190651,0.65480775,-0.5615977,0.26731992
72,1436281190670,0.72627896,-0.47088417,0.10727325
73,1436281190690,0.7366637,-0.42323667,-0.02253562
74,1436281190710,0.61937755,-0.32946885,-0.062852725
75,1436281190729,0.41993,-0.23509017,-0.1431815
76,1436281190751,0.24155736,-0.09031512,-0.2760447
77,1436281190770,-0.0037050247,0.056903407,-0.41776544
78,1436281190789,-0.15764306,0.32140806,-0.49931595
79,1436281190810,-0.110911876,0.43258554,-0.406159
80,1436281190831,-0.017754927,0.019946057,-0.11355454
81,1436281190851,-0.30577788,-0.30075818,-0.10042094
82,1436281190869,-0.9380234,0.14608973,-0.4577771
83,1436281190892,-0.95085156,0.9353276,-0.6068282
84,1436281190907,-0.8531131,1.1637912,-0.38691676
85,1436281190929,-0.8576946,0.53704345,-0.32796824
86,1436281190950,-0.7281912,0.3180483,-0.40768617
87,1436281190969,-0.5360741,0.55750746,-0.5371896
88,1436281190988,-0.57791835,0.55445313,-0.61507493
89,1436281191010,-0.68848497,0.3104125,-0.61782384
90,1436281191075,-0.7254423,0.19404265,-0.70609385
91,1436281191076,-0.7367433,0.12776378,-0.74457836
92,1436281191077,-0.6955099,0.025749277,-0.7131188
93,1436281191088,-0.5119449,0.03766115,-0.6605844
94,1436281191112,-0.33448857,0.049878456,-0.591862
95,1436281191148,-0.29508775,-0.023730807,-0.5680383
96,1436281191149,-0.32349297,-0.13368654,-0.5753687
97,1436281191172,-0.32654732,-0.2250109,-0.54787976
98,1436281191191,-0.31310827,-0.21920767,-0.4641912
99,1436281191213,-0.3198278,-0.1575103,-0.4192926
100,1436281191229,-0.28073242,-0.019454751,-0.4098242
101,1436281191249,-0.23644468,0.07095331,-0.33804753
102,1436281191269,-0.0999163,0.16044506,-0.16547808
103,1436281191291,0.008817714,0.16380483,-0.043610472
104,1436281191311,0.008512277,0.046824127,-0.008791152
105,1436281191332,-0.06265352,0.079505414,0.069705024
106,1436281191348,-0.31494087,0.11279757,0.09658311
107,1436281191368,-0.38671753,-0.13551915,0.11796339
108,1436281191388,-0.18574287,-0.15964831,0.14361973
109,1436281191408,0.2522475,-0.10558675,0.20531712
110,1436281191431,0.74399406,-0.026479702,0.22517024
111,1436281191450,0.8829659,0.08653037,0.22455938
112,1436281191471,0.6438122,0.01444827,0.31924346
113,1436281191491,0.26568654,-0.20760125,0.46798915
114,1436281191511,0.12243864,-0.2024089,0.6509433
115,1436281191531,0.17924911,0.067593545,0.7050049
116,1436281191548,0.24338996,0.17724386,0.6008524
117,1436281191571,0.26293764,0.036133986,0.5645059
118,1436281191609,0.13373965,-0.07931955,0.5919948
119,1436281191610,0.014926363,-0.02617427,0.6036012
120,1436281191628,-0.058377467,-0.04175133,0.54465276
121,1436281191649,0.054021742,-0.17186563,0.48478794
122,1436281191668,0.18841209,-0.28365397,0.4496632
123,1436281191688,0.30233845,-0.33985355,0.32535213
124,1436281191708,0.22903463,-0.47180048,0.21173121
125,1436281191728,0.030197997,-0.4721059,0.1695815
126,1436281191761,-0.051352516,-0.41499,0.1817988
127,1436281191777,-0.026001606,-0.46324834,0.24807768
128,1436281191790,0.10136379,-0.5429663,0.30213925
129,1436281191809,0.322497,-0.5793128,0.19218351
130,1436281191828,0.34051755,-0.26929864,0.03305312
131,1436281191848,0.09433885,0.18182535,-0.08270585
132,1436281191868,-0.14542577,0.6103473,-0.122412086
133,1436281191888,-0.12160201,0.42067367,-0.21129298
134,1436281191908,0.06654447,0.018418893,-0.20518433
135,1436281191928,-0.14328773,-0.28640285,-0.18044429
136,1436281191950,-0.86258155,-0.22073483,-0.57781214
137,1436281191972,-1.0886017,0.36080888,-0.77939767
138,1436281191991,-1.1539643,0.6940358,-0.56254053
139,1436281192012,-0.9972773,0.7291606,-0.3844733
140,1436281192031,-0.84517187,0.2590998,-0.4819063
141,1436281192052,-0.8201264,0.047434993,-0.60591197
142,1436281192070,-0.78927773,0.07675652,-0.68960047
143,1436281192091,-0.77278435,0.23222174,-0.60591197
144,1436281192112,-0.8744934,0.3733316,-0.49565077
145,1436281192132,-1.0763844,0.26429215,-0.56040245
146,1436281192152,-1.2443724,0.021778654,-0.6410367
147,1436281192169,-1.0250717,-0.20973927,-0.56284595
148,1436281192191,-0.69825876,-0.21859682,-0.5194745
149,1436281192209,-0.4154282,-0.15262337,-0.48251715
150,1436281192232,-0.44963667,-0.05305234,-0.40646443
151,1436281192249,-0.660996,-0.07107286,-0.37317228
152,1436281192269,-0.7639268,-0.11658232,-0.35881695
153,1436281192290,-0.71291953,-0.10528131,-0.3319389
154,1436281192312,-0.77461696,-0.07840325,-0.25985676
155,1436281192332,-0.72208256,0.042853504,-0.16761611
156,1436281192352,-0.33235052,0.10607806,-0.021619324
157,1436281192372,-0.05562857,-0.015789561,0.11032757
158,1436281192393,-0.12312918,0.022084085,0.08039518
159,1436281192420,-0.11060645,0.001620099,0.18393683
160,1436281192543,-0.18910263,-0.14956905,0.32657385
161,1436281192544,-0.3106648,-0.30289623,0.28808933
162,1436281192545,-0.03088853,-0.4733276,0.14636862
163,1436281192546,0.42573324,-0.5551836,0.29939035
164,1436281192547,1.1325043,-0.45561254,0.4954781
165,1436281192548,1.462677,-0.036558975,0.5910785
166,1436281192565,1.2302428,0.2581835,0.5877187
167,1436281192569,0.966349,-0.030755758,0.62528694
168,1436281192593,0.56775945,-0.2341739,0.5712254
169,1436281192609,0.35395658,-0.3056451,0.5538157
170,1436281192629,0.501786,-0.11536059,0.7144733
171,1436281192651,0.52866405,0.030941632,0.674767
172,1436281192670,0.5051457,0.08103258,0.54251474
173,1436281192690,0.65236425,-0.07443263,0.39865595
174,1436281192716,0.74277234,-0.53777397,0.26976338
175,1436281192729,0.5002588,-0.68682504,0.26273844
176,1436281192749,0.138932,-0.5093687,0.26304388
177,1436281192769,0.24369541,-0.41346282,0.2670145
178,1436281192790,0.61785036,-0.55029666,0.22119962
179,1436281192812,0.9999466,-0.6263494,0.14392516
180,1436281192832,0.932446,-0.4702733,0.15705876
181,1436281192851,0.642285,-0.18072318,0.13751107
182,1436281192871,0.5234717,0.23710866,0.03885634
183,1436281192890,0.31669378,0.4499952,-0.13035333
184,1436281192911,-0.119463995,0.48603624,-0.2900946
185,1436281192933,-0.3207441,0.45335495,-0.3966906
186,1436281192950,-0.22208935,0.36966643,-0.45319563
187,1436281192972,-0.11640966,0.041020907,-0.4397566
188,1436281192989,-0.45208013,-0.2708258,-0.56467855
189,1436281193010,-0.84272844,0.10913238,-0.79344755
190,1436281193031,-0.80302215,0.50405675,-0.86461335
191,1436281193053,-0.64664066,0.8433924,-0.5970544
192,1436281193073,-0.70039684,0.9344113,-0.50756264
193,1436281193094,-0.7507932,0.48542538,-0.61843467
194,1436281193112,-0.77156264,0.14700603,-0.7018178
195,1436281193132,-0.6564145,0.021778654,-0.7384697
196,1436281193150,-0.6035747,0.13998108,-0.5549047
197,1436281193171,-0.64694613,0.25848892,-0.43853486
198,1436281193192,-0.6796274,0.20106761,-0.5304701
199,1436281193211,-0.59654975,0.077672824,-0.59552723
200,1436281193259,-0.38396865,0.07034244,-0.4977888
201,1436281193260,-0.22697628,-0.038697008,-0.4461707
202,1436281193278,-0.18757547,-0.15537226,-0.44403264
203,1436281193290,-0.30699962,-0.14132236,-0.501454
204,1436281193311,-0.40626523,-0.12696703,-0.52497226
205,1436281193330,-0.454829,-0.08023584,-0.47793567
206,1436281193351,-0.4331433,0.14517343,-0.31727812
207,1436281193371,-0.31830063,0.32904387,-0.1599803
208,1436281193390,-0.14878552,0.2487151,-0.097366616
209,1436281193411,0.138932,0.11615734,0.18302053
210,1436281193431,0.015537228,0.02941447,0.46951634
211,1436281193453,-0.35403624,-0.14651471,0.35894972
212,1436281193472,-0.31677347,-0.5719824,0.21325837
213,1436281193492,0.28095818,-0.7356943,0.36963984
214,1436281193512,1.2687273,-0.44247892,0.672629
215,1436281193532,1.6581539,-0.070462,0.64605635
216,1436281193553,1.2736142,0.23894125,0.52052355
217,1436281193573,0.6441176,0.11188127,0.4850934
218,1436281193592,0.58303106,-0.026479702,0.63170105
219,1436281193612,0.685351,-0.06435335,0.7486817
220,1436281193633,0.640147,-0.031366624,0.7312721
221,1436281193651,0.67466086,-0.15598314,0.5919948
222,1436281193671,0.7699558,-0.17400366,0.511666
223,1436281193693,0.7895035,-0.088177085,0.48356622
224,1436281193710,0.7357474,-0.13460284,0.4533284
225,1436281193731,0.646561,-0.39971837,0.4166765
226,1436281193751,0.4892632,-0.54876953,0.30610988
227,1436281193774,0.3728934,-0.6278766,0.21936701
228,1436281193794,0.37716946,-0.6798001,0.19157265
229,1436281193810,0.5421031,-0.79800254,0.26304388
230,1436281193831,0.64930993,-0.8447337,0.31496742
231,1436281193851,0.68657273,-0.74546814,0.30580443
232,1436281193873,0.7143671,-0.6501731,0.142398
233,1436281193896,0.6703848,-0.48859927,-0.043915905
234,1436281193911,0.54454654,-0.1801123,-0.14226522
235,1436281193974,0.440394,0.0990531,-0.30903143
236,1436281193975,0.5393542,0.28475615,-0.42051435
237,1436281193976,0.77820253,-0.028617729,-0.28184792
238,1436281193991,0.70734215,-0.5948898,-0.19357789
239,1436281194011,0.23208895,-0.3765055,-0.44281092
240,1436281194030,-0.23858272,0.4160922,-0.7461055
241,1436281194050,-0.31830063,0.8287316,-0.7021232
242,1436281194070,-0.23888814,0.5917159,-0.52436143
243,1436281194090,-0.009508245,0.37669137,-0.42448497
244,1436281194110,0.31883183,0.38585433,-0.56926
245,1436281194131,0.47612962,0.4753461,-0.70639926
246,1436281194156,0.4345908,0.47107005,-0.8249071
247,1436281194171,0.19390988,0.39715534,-0.7720673
248,1436281194192,0.08731389,0.30644187,-0.7158677
249,1436281194212,0.12091148,0.1748004,-0.70701015
250,1436281194232,0.20185113,0.12348771,-0.70914817
251,1436281194252,0.28828856,0.19892958,-0.72350353
252,1436281194273,0.37167168,0.26245955,-0.6834918
253,1436281194291,0.39671713,0.18090905,-0.63248456
254,1436281194312,0.44833526,0.09752594,-0.591862
255,1436281194332,0.54271394,-0.0014342256,-0.54696345
256,1436281194352,0.48956868,-0.0414459,-0.54696345
257,1436281194374,0.37930748,-0.075043485,-0.55734813
258,1436281194393,0.20551631,-0.11902578,-0.50328654
259,1436281194412,0.19299358,-0.050914314,-0.3847787
260,1436281194432,0.20704347,0.077367395,-0.3301063
261,1436281194454,0.33776864,0.0990531,-0.3417127
262,1436281194474,0.6508371,0.10271829,-0.29406524
263,1436281194492,0.6777152,-0.02037105,-0.19418874
264,1436281194512,0.45994172,-0.15415053,-0.119357765
265,1436281194532,0.2604942,-0.10619761,-0.021619324
266,1436281194552,0.23392156,-0.052136045,0.13842738
267,1436281194574,0.24033564,-0.13765717,0.069094166
268,1436281194592,0.621821,-0.3410753,0.026333597
269,1436281194612,0.97581744,-0.40246725,0.43958393
270,1436281194631,0.83073694,-0.6452862,0.5333517
271,1436281194660,0.6438122,-0.41834974,0.14025997
272,1436281194672,0.38755417,0.059041433,0.19401611
273,1436281194720,0.714978,0.0578197,0.55839723
274,1436281194721,1.2030593,0.08378148,0.72241455
275,1436281194741,1.181679,0.46709943,0.6732399
276,1436281194751,0.97398484,0.49367207,0.47043264
277,1436281194774,0.86830515,0.32476783,0.38735494
278,1436281194792,0.9104548,0.056903407,0.4148439
279,1436281194813,1.0155237,-0.15506683,0.43255898
280,1436281194831,1.082108,-0.19385678,0.37513766
281,1436281194851,1.2152766,-0.09703463,0.26731992
282,1436281194873,1.4434347,0.024832979,0.27892637
283,1436281194900,1.5808794,0.13509415,0.35284105
284,1436281194914,1.6572376,0.17357866,0.29664147
285,1436281194935,1.5518633,0.13203983,0.15858592
286,1436281194952,1.4299958,0.02605471,0.08864185
287,1436281194974,1.317902,-0.053663205,0.019919515
288,1436281194994,1.2641459,-0.025563404,-0.12790987
289,1436281195014,1.2381841,0.12501489,-0.27940446
290,1436281195031,1.0735558,0.07095331,-0.3585115
291,1436281195052,0.7876709,-0.10375415,-0.46480206
292,1436281195074,0.7333039,-0.24333686,-0.5298592
293,1436281195092,0.8059969,-0.11841492,-0.46358034
294,1436281195112,0.8747192,0.16533199,-0.48984754
295,1436281195132,0.9342786,0.4255606,-0.6254596
296,1436281195152,0.95779693,0.66135454,-0.54299283
297,1436281195175,0.6661087,0.783833,-0.36095497
298,1436281195195,0.3673956,0.8088785,-0.21037668
299,1436281195213,0.27698755,0.6021006,0.11857426
300,1436281195235,0.44833526,0.114019305,0.27159598
301,1436281195253,0.70734215,-0.4217095,0.08558753
302,1436281195274,0.85181177,0.19770785,-0.12332839
303,1436281195295,0.68687814,1.0700234,-0.22045596
304,1436281195339,0.4892632,0.46343422,-0.17067043
305,1436281195343,0.7021498,-0.06282619,-0.10408613
306,1436281195352,1.1007394,-0.049692582,-0.13951631
307,1436281195371,1.2320753,0.28414527,-0.25496987
308,1436281195402,1.3026303,0.31682658,-0.29101092
309,1436281195456,1.3038521,0.22825111,-0.2647437
310,1436281195457,1.3093499,0.21084145,-0.107751325
311,1436281195458,1.4284686,0.24352273,0.009534806
312,1436281195477,1.5124625,0.18365794,0.007702209
313,1436281195492,1.5295668,0.06545552,0.01717062
314,1436281195515,1.5204037,0.041020907,0.061152916
315,1436281195533,1.5362862,0.100580275,0.115825355
316,1436281195552,1.5769088,0.17235693,0.15797506
317,1436281195573,1.5518633,0.17052434,0.23250063
318,1436281195592,1.4303012,0.1729678,0.29358712
319,1436281195615,1.1825953,0.117073625,0.2841187
320,1436281195633,1.0164399,0.1299018,0.24135818
321,1436281195652,0.9284754,0.13509415,0.18515857
322,1436281195672,0.900681,0.13875934,0.19707043
323,1436281195694,0.67557716,0.13020724,0.20073563
324,1436281195715,0.3212753,0.17235693,0.091085315
325,1436281195734,0.05005112,0.16227767,-0.12638271
326,1436281195755,0.37136623,-0.03442095,-0.22564831
327,1436281195773,0.6092983,0.11279757,-0.21587446
328,1436281195794,0.7155888,0.3751642,-0.2283972
329,1436281195815,0.667025,0.44602457,-0.3679799
330,1436281195834,0.6413687,-0.06649138,-0.4397566
331,1436281195852,0.6572512,-0.54999125,-0.29345438
332,1436281195877,0.8234065,-0.19141331,-0.0597984
333,1436281195893,0.83837277,0.4286149,0.02572273
334,1436281195913,0.45658192,0.27437142,0.19615415
335,1436281195937,0.28340164,0.06331749,0.3662801
336,1436281195959,0.38999763,-0.008153744,0.46310222
337,1436281195973,0.51644677,-0.027701434,0.41423303
338,1436281195993,0.5616508,-0.22989783,0.22914086
339,1436281196013,0.6282351,-0.34596223,0.17904991
340,1436281196032,0.74368864,-0.29464954,0.22058876
341,1436281196057,0.7311659,-0.254027,0.30305555
342,1436281196077,0.7275007,-0.31358635,0.282897
343,1436281196093,0.74857557,-0.37436745,0.16225111
344,1436281196113,0.7519353,-0.45591795,0.08497666
345,1436281196134,0.6929868,-0.4937916,0.058709454
346,1436281196193,0.67405,-0.37528375,0.04771388
347,1436281196203,0.7006226,-0.29862016,0.0028152876
348,1436281196204,0.7275007,-0.2521944,-0.055827774
349,1436281196213,0.74277234,-0.2268435,-0.14379238
350,1436281196241,0.76170915,-0.19202419,-0.22870263
351,1436281196254,0.7424669,-0.109557375,-0.34568334
352,1436281196272,0.6438122,-0.058550123,-0.43334252
353,1436281196292,0.55859643,-0.17553082,-0.46663466
354,1436281196330,0.646561,-0.2155425,-0.394858
355,1436281196339,0.73910713,-0.076570645,-0.3154455
356,1436281196374,0.4132105,0.2056491,-0.29773042
357,1436281196375,0.28951028,0.4423594,-0.14134891
358,1436281196394,0.397328,0.39623904,0.294198
359,1436281196414,0.52652603,-0.04877628,0.3241304
360,1436281196434,0.56256706,-0.22165114,-0.13585113
361,1436281196455,0.47704592,0.45824188,-0.33926925
362,1436281196475,0.32219157,0.65982735,-0.21923423
363,1436281196495,0.45108417,0.03430139,-0.03444749
364,1436281196514,0.9516883,-0.3551252,-0.083011284
365,1436281196535,1.1853442,-0.13277026,-0.24916662
366,1436281196555,1.1841224,0.08133802,-0.41868174
367,1436281196573,1.0265192,0.2542129,-0.37775376
368,1436281196595,0.95260453,0.04041004,-0.32766283
369,1436281196615,0.85028464,-0.23570105,-0.33988014
370,1436281196637,0.7329985,-0.5344142,-0.3349932
371,1436281196653,0.7675124,-0.70851076,-0.40279925
372,1436281196673,0.9187015,-0.54205,-0.4724379
373,1436281196695,1.1157056,-0.3233602,-0.5222234
374,1436281196713,1.1829008,-0.114444286,-0.5017594
375,1436281196734,1.1896203,-0.11872035,-0.41440567
376,1436281196766,1.1743486,-0.36092842,-0.30444995
377,1436281196774,1.1593825,-0.44736585,-0.15936944
378,1436281196793,1.175265,-0.3569578,-0.14531954
379,1436281196813,1.175265,-0.21920767,-0.14287607
380,1436281196834,1.1917583,-0.09062055,-0.10439156
381,1436281196854,1.1914529,-0.00876461,0.05321167
382,1436281196875,1.2256613,0.19251549,0.251132
383,1436281196893,1.2323809,0.33240363,0.30305555
384,1436281196916,1.0857731,0.31560484,0.3064153
385,1436281196937,0.6545023,0.1176845,0.3436781
386,1436281196991,0.3130286,-0.10772477,0.2728177
387,1436281196993,0.33410347,-0.39055538,0.18027164
388,1436281196994,0.72169745,-0.5451043,0.2932817
