id,attr_time,attr_x,attr_y,attr_z
1,1436625480224,0.024129177,0.016798794,-0.043676864
2,1436625480247,0.029626964,0.011301007,-0.044593163
3,1436625480264,0.030543262,0.014966198,-0.04520403
4,1436625480284,0.017104227,0.01160644,-0.045814894
5,1436625480304,0.01740966,0.02076942,-0.03848451
6,1436625480324,0.008857546,0.016798794,-0.03390302
7,1436625480344,0.008857546,0.0125227375,-0.027794369
8,1436625480364,0.0012217305,0.013439035,-0.018936822
9,1436625480384,-0.0015271631,0.018936822,-0.016798794
10,1436625480404,-0.008246681,0.023518313,-0.014966198
11,1436625480424,-0.004886922,0.022296581,-0.015271631
12,1436625480446,-0.006414085,0.015882496,-0.017104227
13,1436625480464,-0.005192355,0.018020526,-0.02076942
14,1436625480488,0.0018325958,0.023823744,-0.027183503
15,1436625480504,0.0021380284,0.02687807,-0.02443461
16,1436625480524,0.0018325958,0.026267206,-0.026572637
17,1436625480552,0.0,0.021991149,-0.021991149
18,1436625480564,-0.004886922,0.024740042,-0.02107485
19,1436625480584,0.0,0.028405234,-0.02321288
20,1436625480603,-0.006414085,0.024129177,-0.019242255
21,1436625480623,-0.004581489,0.027183503,-0.019242255
22,1436625480643,-0.004276057,0.027183503,-0.02107485
23,1436625480663,-0.0018325958,0.030543262,-0.02321288
24,1436625480683,0.00061086525,0.024740042,-0.024129177
25,1436625480703,-0.0076358155,0.029321533,-0.02107485
26,1436625480723,-0.008552114,0.030543262,-0.021685716
27,1436625480743,-0.005192355,0.025961773,-0.019547688
28,1436625480763,-0.00061086525,0.03359759,-0.023518313
29,1436625480783,0.0,0.0290161,-0.019547688
30,1436625480803,-0.0012217305,0.024129177,-0.018325957
31,1436625480823,-0.0027488936,0.015882496,-0.020158553
32,1436625480843,-0.005192355,0.02565634,-0.020158553
33,1436625480863,-0.004276057,0.029321533,-0.02076942
34,1436625480884,0.00030543262,0.03023783,-0.02321288
35,1436625480904,0.0027488936,0.025961773,-0.024740042
36,1436625480923,-0.0036651916,0.025961773,-0.02443461
37,1436625480945,-0.0070249503,0.02687807,-0.021991149
38,1436625480963,-0.0067195175,0.028710667,-0.018020526
39,1436625480983,-0.007941248,0.027488936,-0.0143553335
40,1436625481003,-0.00580322,0.024129177,-0.017715093
41,1436625481023,-0.002443461,0.024129177,-0.018936822
42,1436625481043,-0.0143553335,0.020158553,-0.018325957
43,1436625481063,-0.013133603,0.029932396,-0.011301007
44,1436625481083,-0.011911872,0.03573562,-0.010995574
45,1436625481103,-0.010995574,0.02687807,-0.010079277
46,1436625481123,-0.0070249503,0.026267206,-0.015271631
47,1436625481143,-0.009162978,0.02076942,-0.014660766
48,1436625481163,-0.014660766,0.021991149,-0.0106901415
49,1436625481183,-0.014966198,0.02443461,-0.009162978
50,1436625481205,-0.013133603,0.02076942,-0.013439035
51,1436625481224,-0.0070249503,0.02443461,-0.013744468
52,1436625481243,-0.00061086525,0.024129177,-0.01863139
53,1436625481295,-0.003970624,0.022296581,-0.021380283
54,1436625481296,-0.00061086525,0.02443461,-0.024740042
55,1436625481304,-0.00061086525,0.030543262,-0.028710667
56,1436625481325,0.009468411,0.03268129,-0.032375857
57,1436625481344,0.0076358155,0.024740042,-0.028405234
58,1436625481364,0.014966198,0.024129177,-0.031154128
59,1436625481383,0.010995574,0.020463986,-0.03145956
60,1436625481404,0.01160644,0.024129177,-0.03268129
61,1436625481424,0.004886922,0.025961773,-0.029321533
62,1436625481444,0.0067195175,0.02443461,-0.024740042
63,1436625481464,0.0076358155,0.01740966,-0.02687807
64,1436625481484,0.007330383,0.014660766,-0.03176499
65,1436625481505,0.009468411,0.027183503,-0.033292156
66,1436625481524,0.0061086523,0.025961773,-0.034513887
67,1436625481544,0.0015271631,0.026267206,-0.02687807
68,1436625481564,-0.0021380284,0.025350908,-0.021685716
69,1436625481584,-0.003970624,0.028405234,-0.018020526
70,1436625481606,0.0021380284,0.021991149,-0.023823744
71,1436625481653,0.0,0.018325957,-0.026572637
72,1436625481654,0.0,0.025045475,-0.027794369
73,1436625481668,0.0009162979,0.027488936,-0.028099801
74,1436625481685,-0.006414085,0.018936822,-0.02321288
75,1436625481704,-0.0033597588,0.029932396,-0.015271631
76,1436625481727,-0.0106901415,0.03634648,-0.010079277
77,1436625481746,-0.01160644,0.03390302,-0.004276057
78,1436625481766,-0.021685716,0.03726278,0.00030543262
79,1436625481789,-0.021685716,0.03726278,0.0009162979
80,1436625481809,-0.018020526,0.036651913,-0.0012217305
81,1436625481827,-0.013744468,0.040317107,-0.00030543262
82,1436625481844,-0.015271631,0.032986723,-0.0036651916
83,1436625481866,-0.018325957,0.03726278,-0.005192355
84,1436625481886,-0.018936822,0.039095376,-0.0076358155
85,1436625481905,-0.017715093,0.040317107,-0.007941248
86,1436625481929,-0.017715093,0.040927973,-0.003970624
87,1436625481945,-0.017715093,0.03481932,-0.005497787
88,1436625481968,-0.02107485,0.03848451,-0.00061086525
89,1436625481987,-0.029626964,0.041233405,0.0070249503
90,1436625482008,-0.029626964,0.04184427,0.016493361
91,1436625482029,-0.029626964,0.043676864,0.019547688
92,1436625482083,-0.029626964,0.038789943,0.017715093
93,1436625482084,-0.025961773,0.039095376,0.011911872
94,1436625482086,-0.019547688,0.04337143,0.0143553335
95,1436625482107,-0.02107485,0.03726278,0.011911872
96,1436625482126,-0.021991149,0.032986723,0.005192355
97,1436625482147,-0.02443461,0.043676864,0.008857546
98,1436625482167,-0.021991149,0.047036625,0.0106901415
99,1436625482187,-0.019547688,0.039095376,0.01038471
100,1436625482206,-0.024740042,0.041233405,0.0067195175
101,1436625482226,-0.028405234,0.043066,0.008857546
102,1436625482247,-0.031154128,0.03970624,0.011911872
103,1436625482268,-0.02687807,0.038179077,0.017715093
104,1436625482288,-0.028710667,0.028099801,0.01038471
105,1436625482305,-0.028099801,0.029321533,0.011301007
106,1436625482325,-0.025961773,0.03481932,0.007941248
107,1436625482350,-0.016798794,0.03756821,-0.0067195175
108,1436625482367,-0.016798794,0.03756821,-0.005497787
109,1436625482389,-0.013744468,0.033292156,-0.004886922
110,1436625482409,-0.015577064,0.030848695,-0.007330383
111,1436625482428,-0.0125227375,0.035430185,-0.007941248
112,1436625482449,-0.0106901415,0.034513887,-0.008857546
113,1436625482468,-0.011301007,0.031154128,-0.013133603
114,1436625482489,-0.008857546,0.02687807,-0.0143553335
115,1436625482513,-0.00580322,0.029321533,-0.01863139
116,1436625482554,-0.004276057,0.02565634,-0.020463986
117,1436625482555,-0.0009162979,0.02076942,-0.021685716
118,1436625482566,0.0,0.024740042,-0.02443461
119,1436625482586,-0.0012217305,0.027794369,-0.023823744
120,1436625482610,-0.004886922,0.025961773,-0.016798794
121,1436625482626,-0.012217305,0.025350908,-0.014966198
122,1436625482648,-0.004276057,0.026572637,-0.013439035
123,1436625482667,-0.0036651916,0.023823744,-0.0143553335
124,1436625482689,-0.0033597588,0.028405234,-0.015271631
125,1436625482707,-0.0076358155,0.027488936,-0.013439035
126,1436625482729,-0.008246681,0.027183503,-0.016187929
127,1436625482748,-0.0125227375,0.024740042,-0.015271631
128,1436625482767,-0.010995574,0.026572637,-0.01740966
129,1436625482787,-0.0021380284,0.03359759,-0.024740042
130,1436625482806,-0.003970624,0.027794369,-0.018936822
131,1436625482827,0.0,0.032986723,-0.024740042
132,1436625482847,-0.00030543262,0.021685716,-0.021380283
133,1436625482872,0.0,0.024129177,-0.022296581
134,1436625482890,-0.004581489,0.025961773,-0.015577064
135,1436625482912,-0.0033597588,0.021991149,-0.024129177
136,1436625482927,-0.0030543262,0.024740042,-0.023518313
137,1436625482946,0.0027488936,0.025961773,-0.023823744
138,1436625482967,0.004276057,0.028099801,-0.021991149
139,1436625482987,-0.0009162979,0.01863139,-0.022907447
140,1436625483009,-0.004886922,0.022907447,-0.015882496
141,1436625483080,-0.0027488936,0.021685716,-0.022907447
142,1436625483135,0.0015271631,0.02076942,-0.023518313
143,1436625483136,-0.0009162979,0.015271631,-0.023823744
144,1436625483137,-0.0018325958,0.01985312,-0.02076942
145,1436625483138,-0.0009162979,0.022907447,-0.020158553
146,1436625483139,0.004581489,0.03176499,-0.027183503
147,1436625483196,-0.0027488936,0.028405234,-0.01985312
148,1436625483197,-0.005192355,0.018936822,-0.018325957
149,1436625483198,-0.002443461,0.023823744,-0.020463986
150,1436625483208,-0.0021380284,0.025961773,-0.022907447
151,1436625483229,-0.0027488936,0.02076942,-0.02076942
152,1436625483247,0.0027488936,0.022296581,-0.025350908
153,1436625483270,0.002443461,0.022296581,-0.026267206
154,1436625483289,0.0009162979,0.02107485,-0.025045475
155,1436625483310,0.00061086525,0.022296581,-0.027794369
156,1436625483328,0.0036651916,0.018020526,-0.025350908
157,1436625483349,-0.0015271631,0.02076942,-0.025961773
158,1436625483369,-0.00030543262,0.022296581,-0.022907447
159,1436625483390,0.0027488936,0.019242255,-0.02565634
160,1436625483410,-0.0061086523,0.02076942,-0.022296581
161,1436625483430,-0.003970624,0.0290161,-0.027794369
162,1436625483450,-0.0027488936,0.02687807,-0.030543262
163,1436625483469,-0.0030543262,0.027183503,-0.030848695
164,1436625483489,-0.0030543262,0.024740042,-0.02565634
165,1436625483510,-0.004581489,0.026267206,-0.028405234
166,1436625483529,0.0027488936,0.03268129,-0.025961773
167,1436625483547,-0.00030543262,0.025045475,-0.03023783
168,1436625483594,-0.0015271631,0.028405234,-0.02687807
169,1436625483595,-0.0027488936,0.028710667,-0.017715093
170,1436625483609,-0.013439035,0.028099801,-0.017104227
171,1436625483637,-0.0125227375,0.031154128,-0.013439035
172,1436625483658,-0.01282817,0.034208454,-0.014966198
173,1436625483674,-0.008246681,0.027488936,-0.0125227375
174,1436625483689,-0.016493361,0.021685716,-0.013439035
175,1436625483720,-0.015577064,0.034513887,-0.009468411
176,1436625483728,-0.010995574,0.03726278,-0.010079277
177,1436625483750,-0.008552114,0.027794369,-0.005192355
178,1436625483769,-0.011301007,0.02565634,-0.00580322
179,1436625483789,-0.016187929,0.02687807,-0.011911872
180,1436625483811,-0.01863139,0.031154128,-0.0106901415
181,1436625483828,-0.021380283,0.040317107,-0.002443461
182,1436625483849,-0.02076942,0.03481932,0.0021380284
183,1436625483867,-0.02076942,0.03023783,0.0033597588
184,1436625483887,-0.02565634,0.03359759,0.004886922
185,1436625483913,-0.014660766,0.031154128,0.0009162979
186,1436625483931,-0.012217305,0.026267206,-0.0070249503
187,1436625483952,-0.011301007,0.027488936,-0.012217305
188,1436625483971,-0.008552114,0.030543262,-0.013133603
189,1436625483987,-0.014049901,0.029321533,-0.0067195175
190,1436625484008,-0.009468411,0.031154128,-0.002443461
191,1436625484028,-0.007941248,0.028099801,-0.007330383
192,1436625484051,-0.008246681,0.035124753,-0.0067195175
193,1436625484069,-0.004886922,0.02443461,-0.009468411
194,1436625484113,-0.0061086523,0.022602014,-0.0106901415
195,1436625484114,-0.003970624,0.035430185,-0.004276057
196,1436625484133,0.0021380284,0.037873644,-0.0009162979
197,1436625484149,0.0070249503,0.030848695,-0.0036651916
198,1436625484171,0.005497787,0.022602014,-0.004581489
199,1436625484188,0.007330383,0.029932396,-0.00030543262
200,1436625484213,0.0030543262,0.027488936,0.0061086523
201,1436625484229,0.0012217305,0.03970624,0.008857546
202,1436625484251,-0.0009162979,0.042455133,0.03023783
203,1436625484270,-0.0067195175,0.043066,0.044593163
204,1436625484290,-0.018325957,0.04184427,0.06719518
205,1436625484310,-0.04062254,0.044898596,0.093767814
206,1436625484330,-0.06047566,0.051618114,0.12614368
207,1436625484348,-0.06505715,0.04734206,0.16829337
208,1436625484368,-0.057726767,0.035430185,0.1966986
209,1436625484394,-0.05009095,0.01160644,0.21044308
210,1436625484413,-0.038179077,0.010079277,0.20280726
211,1436625484433,-0.009773844,-0.0012217305,0.18478674
212,1436625484452,0.02443461,-0.011301007,0.16798794
213,1436625484468,0.05375614,-0.03359759,0.15821409
214,1436625484488,0.089491755,-0.03481932,0.14446963
215,1436625484508,0.12064589,-0.11209377,0.11881329
216,1436625484531,0.14110987,-0.13164146,0.10323623
217,1436625484550,0.15363261,-0.112704635,0.09132435
218,1436625484595,0.15851954,-0.106901415,0.10323623
219,1436625484596,0.16065755,-0.13225232,0.11728613
220,1436625484620,0.1600467,-0.14080444,0.12980886
221,1436625484677,0.16584991,-0.14294247,0.13316862
222,1436625484682,0.17562376,-0.12461651,0.13927728
223,1436625484683,0.18387043,-0.10934488,0.124311075
224,1436625484692,0.16829337,-0.099571034,0.08674286
225,1436625484729,0.15760323,-0.030848695,0.058337633
226,1436625484730,0.12522738,0.014049901,0.053145275
227,1436625484749,0.101098195,0.010995574,0.073303826
228,1436625484768,0.06536258,0.01740966,0.090713486
229,1436625484793,0.033292156,0.07513642,0.100792766
230,1436625484809,0.0,0.07788532,0.09712757
231,1436625484828,-0.01282817,0.11636983,0.08460484
232,1436625484849,-0.021685716,0.15882497,0.071776666
233,1436625484868,-0.051618114,0.1685988,0.036651913
234,1436625484889,-0.070554934,0.23579398,0.04428773
235,1436625484909,-0.08093964,0.22235495,0.043982297
236,1436625484927,-0.112704635,0.22785273,0.06291912
237,1436625484948,-0.12644911,0.27855456,0.105374254
238,1436625484968,-0.1459968,0.2687807,0.14385876
239,1436625484988,-0.15821409,0.2144137,0.1731803
240,1436625485008,-0.18784106,0.20769419,0.19883664
241,1436625485028,-0.23243423,0.2507602,0.23762658
242,1436625485048,-0.30451632,0.29932398,0.3286455
243,1436625485068,-0.3717115,0.34208453,0.45265114
244,1436625485088,-0.42271876,0.35063666,0.59956425
245,1436625485108,-0.51923543,0.32711834,0.7086037
246,1436625485128,-0.61911196,0.24007004,0.82344633
247,1436625485148,-0.76052725,0.204029,0.8854492
248,1436625485170,-0.84116143,0.18234327,0.92087936
249,1436625485188,-0.9056077,0.13408493,0.90285885
250,1436625485208,-0.945314,0.33536503,1.0082331
251,1436625485233,-1.01312,0.30298916,1.0757337
252,1436625485249,-1.131017,0.39645153,1.1951579
253,1436625485274,-1.2699889,0.8549059,1.4844025
254,1436625485292,-1.4285084,1.078788,1.7482964
255,1436625485312,-1.5876387,0.981355,1.9617938
256,1436625485332,-1.5693128,1.0629056,2.2198844
257,1436625485350,-1.3417655,0.4260785,2.4804184
258,1436625485371,-0.8854492,-0.5103779,2.2165246
259,1436625485392,-0.59040123,-0.89552844,1.6841555
260,1436625485412,-0.5458081,-0.2125811,1.568702
261,1436625485431,0.057421334,0.13561209,0.2959642
262,1436625485450,0.33536503,1.0647382,-0.42424592
263,1436625485475,0.58062744,1.7348573,-0.9477574
264,1436625485488,1.0256428,1.6832392,-1.2205088
265,1436625485510,1.3359623,0.79901177,-1.9233092
266,1436625485531,1.5289958,0.121256754,-2.5793786
267,1436625485552,1.709201,-0.04184427,-2.9852984
268,1436625485570,1.928807,-0.24495697,-3.426954
269,1436625485588,2.091908,-0.5687156,-3.8365393
270,1436625485610,2.1792617,-0.87017757,-4.003
271,1436625485629,2.2128594,-1.061073,-3.9309177
272,1436625485651,2.1099286,-1.5467108,-3.5286632
273,1436625485673,1.8903224,-2.620001,-2.964529
274,1436625485689,1.2455542,-3.1914654,-2.5928175
275,1436625485712,0.6966918,-2.7751608,-2.3258693
276,1436625485733,0.54733527,-0.93126404,-1.5653422
277,1436625485752,0.36346483,-0.06841691,-0.5564982
278,1436625485771,0.102319926,0.004581489,0.1414153
279,1436625485791,-0.101098195,0.6713409,0.4529566
280,1436625485813,-0.0983493,1.3081679,1.4337007
281,1436625485832,-0.14294247,1.1175779,1.6459764
282,1436625485852,-0.7852673,-1.5134187,1.069625
283,1436625485870,-1.0369438,4.074166,2.0778582
284,1436625485889,-0.6224717,0.24037547,2.0189097
285,1436625485914,-0.1591304,-1.3335189,1.6865989
286,1436625485932,-0.08307768,-1.8191566,1.210124
287,1436625485950,-0.183565,-0.872621,0.63224554
288,1436625485970,-0.22876903,1.450805,0.80878556
289,1436625485989,-0.172264,0.82894415,1.078788
290,1436625486011,-0.23793201,-0.34483343,1.031446
291,1436625486031,-0.23243423,-0.37659842,0.6774496
292,1436625486053,-0.17379116,0.2929099,0.42149702
293,1436625486069,-0.16493362,0.4092797,0.18570304
294,1436625486092,-0.17654006,0.3036,0.08032878
295,1436625486114,-0.1872302,0.25870144,0.0888809
296,1436625486134,-0.21685717,0.29535335,0.17806722
297,1436625486151,-0.2565634,0.16584991,0.2910773
298,1436625486170,-0.28252518,0.17928895,0.37782016
299,1436625486189,-0.3387248,0.17562376,0.4615087
300,1436625486214,-0.41538838,0.01160644,0.5525276
301,1436625486235,-0.60139686,0.18600847,0.79259765
302,1436625486256,-0.73853606,0.32498032,1.0644327
303,1436625486273,-0.9120218,0.11728613,1.357648
304,1436625486290,-0.9969321,-0.13958271,1.5066991
305,1436625486310,-0.960891,0.03634648,1.5308284
306,1436625486332,-0.9224065,0.43066,1.6316211
307,1436625486352,-0.9627236,0.48808134,1.6551393
308,1436625486423,-1.0381655,0.18387043,1.7052304
309,1436625486424,-1.0668762,0.25595254,1.7696766
310,1436625486425,-1.0748174,0.30909783,1.7873917
311,1436625486450,-1.171945,0.59437186,1.8316795
312,1436625486451,-1.3084733,0.70463306,2.1209242
313,1436625486470,-1.459968,0.73426,2.6639833
314,1436625486491,-1.6105462,0.61666846,3.0051515
315,1436625486512,-1.6444492,0.63438356,2.953228
316,1436625486534,-1.3946054,0.3830125,2.3295345
317,1436625486552,-0.9456194,-0.118507855,1.8359555
318,1436625486571,-0.1695151,-0.6444628,0.71837753
319,1436625486593,0.31245756,-1.498147,-0.71868294
320,1436625486617,0.6200282,-0.57360244,-2.0448713
321,1436625486632,1.348485,1.7602082,-2.5802948
322,1436625486656,1.2916746,1.5806139,-3.2091806
323,1436625486677,1.8420641,1.4953982,-4.0689735
324,1436625486692,2.4666739,2.7113254,-3.6490035
325,1436625486716,2.9526172,1.9871446,-3.239724
326,1436625486733,3.179859,0.45448375,-3.306919
327,1436625486750,3.212235,-0.17012598,-3.374725
328,1436625486771,2.8747318,-0.045814894,-3.143818
329,1436625486790,2.3698518,-0.85918194,-2.8502972
330,1436625486813,1.9529362,-2.7681358,-2.5103507
331,1436625486834,1.3631458,-3.4623842,-2.1707096
332,1436625486888,0.86742866,-2.611449,-1.8616118
333,1436625486890,0.66645396,-0.47342056,-1.423316
334,1436625486891,0.48930305,0.49632803,-0.79168135
335,1436625486916,0.310625,0.35246924,-0.23335053
336,1436625486932,0.16401732,0.3390302,0.10170906
337,1436625486957,-0.046731193,0.6221663,0.36865717
338,1436625486973,0.01740966,0.6542367,0.77457714
339,1436625486992,-0.79198676,0.5345071,1.2147056
340,1436625487012,-0.5369505,-2.4049764,1.239751
341,1436625487031,-0.43371433,-0.9431759,1.0797043
342,1436625487061,-0.8848383,0.49235737,1.6227635
343,1436625487070,-0.90377516,0.36651915,2.6337454
344,1436625487090,-0.47036624,-0.07819075,2.2687535
345,1436625487110,-0.73853606,-1.6957619,1.0369438
346,1436625487131,-0.66706485,0.59406644,0.7425067
347,1436625487164,-0.45906523,0.98654735,0.66339964
348,1436625487172,-0.3295618,-0.43799037,0.35796702
349,1436625487194,-0.21135938,0.28893927,0.38820487
350,1436625487214,-0.1826487,0.43768495,0.38881573
351,1436625487234,-0.15668693,0.46395215,0.5448918
352,1436625487254,-0.129198,0.537256,0.58246
353,1436625487272,-0.16432275,0.4175264,0.61636305
354,1436625487300,-0.26633725,0.68416905,0.8194757
355,1436625487361,-0.31887165,0.78984874,1.0833695
356,1436625487362,-0.4538729,0.56199604,1.2211196
357,1436625487363,-0.57818395,0.59040123,1.3710871
358,1436625487392,-0.61453044,0.552833,1.3640621
359,1436625487393,-0.6053675,0.5317582,1.2308935
360,1436625487432,-0.6374379,0.61544675,1.0943651
361,1436625487433,-0.7284568,0.6469063,1.3842206
362,1436625487453,-0.8686504,0.60139686,1.815186
363,1436625487478,-1.0888673,0.6994407,2.3716843
364,1436625487495,-1.3747523,0.86834496,2.9959886
365,1436625487514,-1.4278975,1.4132367,3.209486
366,1436625487534,-1.208597,0.98349303,2.688418
367,1436625487551,-0.74189585,0.05100725,1.563815
368,1436625487571,-0.44593164,-0.5852089,0.97494096
369,1436625487592,-0.14630222,-0.8194757,-0.4129449
370,1436625487612,0.21899518,-0.6597345,-2.053729
371,1436625487636,0.59406644,0.07788532,-2.6743681
372,1436625487664,0.45814893,0.45081854,-3.580892
373,1436625487674,1.1490375,1.3154984,-3.6624427
374,1436625487696,1.6285667,1.9446895,-3.5341609
375,1436625487712,2.2094996,1.4886786,-3.6994
376,1436625487775,2.6123652,1.7760907,-3.623958
377,1436625487776,2.6444356,1.7146988,-3.325245
378,1436625487777,2.4840834,0.593761,-2.9315424
