id,attr_time,attr_x,attr_y,attr_z
1,1438345018048,-0.0021380284,0.013133603,-0.022907447
2,1438345018068,-0.008552114,0.013133603,-0.019547688
3,1438345018085,-0.007330383,0.028405234,-0.013133603
4,1438345018098,-0.011911872,0.034208454,-0.008552114
5,1438345018111,-0.0033597588,0.027488936,-0.009468411
6,1438345018131,0.0033597588,0.0018325958,-0.023518313
7,1438345018150,0.0009162979,0.008857546,-0.026267206
8,1438345018173,-0.002443461,0.027183503,-0.023823744
9,1438345018194,-0.009773844,0.03848451,-0.011911872
10,1438345018213,-0.013133603,0.03145956,-0.010079277
11,1438345018233,-0.007330383,0.014049901,-0.016798794
12,1438345018252,-0.0018325958,0.011301007,-0.023518313
13,1438345018273,0.00030543262,0.016187929,-0.023823744
14,1438345018294,-0.009773844,0.020463986,-0.016798794
15,1438345018312,-0.009773844,0.01985312,-0.018020526
16,1438345018331,-0.0061086523,0.028099801,-0.020158553
17,1438345018352,-0.002443461,0.013439035,-0.017715093
18,1438345018371,-0.008857546,0.014049901,-0.02443461
19,1438345018416,-0.008552114,0.018325957,-0.020158553
20,1438345018417,-0.004886922,0.019547688,-0.018325957
21,1438345018433,-0.009162978,0.02107485,-0.023518313
22,1438345018452,-0.005497787,0.0106901415,-0.023823744
23,1438345018474,0.0021380284,0.014660766,-0.022907447
24,1438345018494,-0.01038471,0.014660766,-0.017104227
25,1438345018512,-0.0067195175,0.004886922,-0.02076942
26,1438345018531,0.0,0.013744468,-0.02076942
27,1438345018550,-0.004886922,0.02107485,-0.019547688
28,1438345018574,-0.015882496,0.02321288,-0.013439035
29,1438345018592,-0.015577064,0.03176499,-0.009773844
30,1438345018643,-0.013439035,0.0290161,-0.006414085
31,1438345018644,-0.012217305,0.021991149,-0.015882496
32,1438345018659,-0.0030543262,0.011911872,-0.027794369
33,1438345018671,-0.01038471,0.019547688,-0.02321288
34,1438345018692,-0.014660766,0.02076942,-0.018020526
35,1438345018710,-0.013133603,0.027794369,-0.008246681
36,1438345018730,-0.0067195175,0.03390302,-0.015882496
37,1438345018754,-0.00580322,0.014966198,-0.024740042
38,1438345018770,-0.009162978,0.005497787,-0.025350908
39,1438345018791,-0.013439035,0.0143553335,-0.021380283
40,1438345018812,-0.01740966,0.028710667,-0.021380283
41,1438345018831,-0.012217305,0.04337143,-0.01160644
42,1438345018853,-0.006414085,0.020158553,-0.021991149
43,1438345018874,0.0018325958,0.011911872,-0.03634648
44,1438345018894,-0.005192355,0.0076358155,-0.032070424
45,1438345018916,-0.015271631,0.023823744,-0.02107485
46,1438345018934,-0.020463986,0.04428773,-0.005192355
47,1438345018953,-0.01985312,0.03634648,-0.006414085
48,1438345018974,-0.008552114,0.0061086523,-0.022602014
49,1438345018994,-0.002443461,0.005497787,-0.034513887
50,1438345019013,-0.011911872,0.01740966,-0.025961773
51,1438345019032,-0.019242255,0.03970624,-0.009468411
52,1438345019061,-0.018936822,0.04337143,0.0021380284
53,1438345019076,-0.01038471,0.0290161,-0.013744468
54,1438345019093,-0.003970624,0.004276057,-0.02687807
55,1438345019111,0.0012217305,0.008857546,-0.034513887
56,1438345019134,0.00061086525,0.020158553,-0.02443461
57,1438345019154,-0.010079277,0.028405234,-0.010079277
58,1438345019172,-0.019547688,0.029321533,-0.004276057
59,1438345019191,-0.017104227,0.026572637,-0.011301007
60,1438345019212,-0.01038471,0.008246681,-0.021991149
61,1438345019235,-0.008246681,0.016493361,-0.02565634
62,1438345019254,-0.016187929,0.032070424,-0.022907447
63,1438345019274,-0.0143553335,0.03634648,-0.014966198
64,1438345019291,-0.018325957,0.029932396,-0.010995574
65,1438345019320,-0.013133603,0.027183503,-0.019547688
66,1438345019382,-0.003970624,0.021685716,-0.02076942
67,1438345019383,-0.0030543262,0.019547688,-0.026572637
68,1438345019384,0.0,0.02076942,-0.029932396
69,1438345019393,-0.010995574,0.020463986,-0.025045475
70,1438345019415,-0.017715093,0.022296581,-0.01160644
71,1438345019431,-0.014049901,0.032986723,-0.016187929
72,1438345019451,-0.005497787,0.026572637,-0.017715093
73,1438345019471,0.00061086525,0.019547688,-0.026572637
74,1438345019491,-0.00580322,0.018936822,-0.027183503
75,1438345019517,-0.0143553335,0.01985312,-0.017104227
76,1438345019539,-0.016187929,0.032375857,-0.007941248
77,1438345019552,-0.024740042,0.03145956,-0.006414085
78,1438345019571,-0.014966198,0.024740042,-0.015271631
79,1438345019594,-0.01038471,0.026267206,-0.02687807
80,1438345019615,-0.004886922,0.032070424,-0.03176499
81,1438345019635,-0.009162978,0.03023783,-0.02687807
82,1438345019654,-0.010079277,0.04520403,-0.02687807
83,1438345019674,-0.005192355,0.034208454,-0.029626964
84,1438345019695,0.0021380284,0.021380283,-0.035124753
85,1438345019715,0.0033597588,0.02321288,-0.04062254
86,1438345019735,-0.0009162979,0.019242255,-0.034513887
87,1438345019754,-0.011911872,0.033292156,-0.022602014
88,1438345019772,-0.0125227375,0.028710667,-0.018325957
89,1438345019795,-0.007941248,0.016798794,-0.016798794
90,1438345019815,-0.0061086523,0.004276057,-0.02687807
91,1438345019835,-0.0036651916,0.007941248,-0.036651913
92,1438345019854,-0.0125227375,0.018325957,-0.021380283
93,1438345019875,-0.01985312,0.023823744,-0.0143553335
94,1438345019896,-0.0106901415,0.03023783,-0.017104227
95,1438345019915,-0.0033597588,0.01282817,-0.026572637
96,1438345019935,-0.004581489,0.005497787,-0.031154128
97,1438345019955,-0.006414085,0.013439035,-0.026572637
98,1438345019975,-0.01282817,0.021685716,-0.015882496
99,1438345019995,-0.01038471,0.031154128,-0.01282817
100,1438345020014,-0.0036651916,0.023823744,-0.025045475
101,1438345020035,0.002443461,0.008552114,-0.03268129
102,1438345020119,0.0021380284,0.008857546,-0.03604105
103,1438345020120,-0.009162978,0.020158553,-0.02687807
104,1438345020121,-0.010079277,0.039095376,-0.0106901415
105,1438345020122,-0.010995574,0.028710667,-0.015271631
106,1438345020145,-0.007330383,0.008552114,-0.025350908
107,1438345020156,-0.0027488936,0.008552114,-0.030543262
108,1438345020176,-0.0061086523,0.021380283,-0.021685716
109,1438345020194,-0.009773844,0.027488936,-0.020463986
110,1438345020212,-0.010995574,0.028099801,-0.019547688
111,1438345020237,-0.004886922,0.02076942,-0.023823744
112,1438345020254,-0.006414085,0.016798794,-0.02321288
113,1438345020273,-0.008857546,0.013439035,-0.016187929
114,1438345020294,-0.0125227375,0.017104227,-0.008857546
115,1438345020312,-0.0143553335,0.027183503,-0.004581489
116,1438345020335,-0.008552114,0.024129177,-0.016798794
117,1438345020355,-0.013133603,0.004886922,-0.015882496
118,1438345020375,-0.014660766,0.006414085,-0.0125227375
119,1438345020395,-0.008552114,0.02443461,-0.008246681
120,1438345020418,-0.009468411,0.030848695,-0.0015271631
121,1438345020435,-0.013133603,0.022602014,-0.010995574
122,1438345020456,-0.0076358155,0.007330383,-0.021685716
123,1438345020475,-0.0076358155,0.0061086523,-0.020463986
124,1438345020495,-0.008552114,0.01740966,-0.0125227375
125,1438345020515,-0.004886922,0.037873644,-0.007941248
126,1438345020534,-0.012217305,0.03604105,-0.008552114
127,1438345020555,-0.0061086523,0.019242255,-0.016493361
128,1438345020575,-0.0009162979,0.0143553335,-0.022907447
129,1438345020595,-0.0027488936,0.01985312,-0.025350908
130,1438345020615,-0.010079277,0.028099801,-0.01740966
131,1438345020633,-0.01160644,0.030543262,-0.009162978
132,1438345020657,-0.009468411,0.024740042,-0.017104227
133,1438345020677,-0.005497787,0.015271631,-0.021991149
134,1438345020696,-0.0076358155,0.013133603,-0.02107485
135,1438345020716,-0.01282817,0.023823744,-0.011911872
136,1438345020734,-0.014660766,0.036957346,-0.004886922
137,1438345020755,-0.013744468,0.033292156,-0.0067195175
138,1438345020774,-0.012217305,0.022296581,-0.013744468
139,1438345020793,-0.008552114,0.01740966,-0.020158553
140,1438345020858,-0.008246681,0.024129177,-0.015577064
141,1438345020868,-0.016493361,0.03970624,-0.010995574
142,1438345020870,-0.010079277,0.029932396,-0.004886922
143,1438345020876,-0.0067195175,0.012217305,-0.014049901
144,1438345020894,-0.004276057,0.01038471,-0.016798794
145,1438345020913,-0.008552114,0.020158553,-0.01282817
146,1438345020932,-0.016187929,0.029932396,-0.0070249503
147,1438345020958,-0.014660766,0.030848695,-0.0009162979
148,1438345020974,-0.017104227,0.02107485,0.0036651916
149,1438345020994,-0.012217305,0.02107485,0.0015271631
150,1438345021014,-0.014660766,0.025961773,0.0009162979
151,1438345021032,-0.014049901,0.024129177,-0.0027488936
152,1438345021059,-0.01160644,0.01985312,-0.013133603
153,1438345021076,-0.009773844,0.025961773,-0.013133603
154,1438345021096,-0.0106901415,0.025350908,-0.007330383
155,1438345021115,-0.008552114,0.028710667,0.0018325958
156,1438345021136,-0.007941248,0.014049901,-0.00580322
157,1438345021152,-0.0125227375,0.0036651916,-0.009773844
158,1438345021175,-0.01038471,0.017104227,-0.015577064
159,1438345021196,-0.018020526,0.03359759,-0.0076358155
160,1438345021216,-0.016493361,0.037873644,0.0009162979
161,1438345021236,-0.023823744,0.027488936,0.004886922
162,1438345021256,-0.013744468,-0.0009162979,-0.018936822
163,1438345021273,-0.0076358155,0.01985312,-0.026267206
164,1438345021296,-0.01863139,0.04428773,-0.019242255
165,1438345021317,-0.019547688,0.044593163,-0.0027488936
166,1438345021336,-0.01863139,0.033292156,-0.0027488936
167,1438345021356,-0.010995574,0.01863139,-0.011911872
168,1438345021376,-0.0009162979,0.020463986,-0.028405234
169,1438345021395,0.0021380284,0.03268129,-0.03573562
170,1438345021416,-0.0036651916,0.041233405,-0.019547688
171,1438345021436,-0.015271631,0.022296581,-0.004581489
172,1438345021458,-0.011911872,0.014966198,-0.010995574
173,1438345021477,-0.011301007,0.008552114,-0.016798794
174,1438345021498,-0.012217305,0.013133603,-0.015577064
175,1438345021514,-0.016493361,0.017715093,-0.012217305
176,1438345021538,-0.013744468,0.029321533,-0.004581489
177,1438345021597,-0.014049901,0.021380283,-0.0070249503
178,1438345021598,-0.0076358155,0.009468411,-0.01740966
179,1438345021599,-0.00061086525,0.011301007,-0.025045475
180,1438345021613,-0.005192355,0.014660766,-0.025350908
181,1438345021634,-0.011301007,0.027488936,-0.015577064
182,1438345021654,-0.009468411,0.025350908,-0.014049901
183,1438345021678,-0.0015271631,0.018325957,-0.021991149
184,1438345021695,0.0021380284,-0.0018325958,-0.03145956
185,1438345021715,-0.0070249503,-0.0015271631,-0.028710667
186,1438345021736,-0.0070249503,0.015577064,-0.018936822
187,1438345021755,-0.008552114,0.03940081,-0.013133603
188,1438345021776,-0.008857546,0.03481932,-0.011301007
189,1438345021794,-0.0030543262,0.014049901,-0.023823744
190,1438345021817,-0.0012217305,0.00030543262,-0.036957346
191,1438345021837,-0.00061086525,0.020158553,-0.031154128
192,1438345021853,-0.013439035,0.03023783,-0.014966198
193,1438345021874,-0.015577064,0.033292156,-0.010995574
194,1438345021894,-0.009162978,0.008246681,-0.019242255
195,1438345021913,0.0036651916,0.00030543262,-0.03023783
196,1438345021937,-0.009468411,0.01038471,-0.022907447
197,1438345021958,-0.010995574,0.027488936,-0.015271631
198,1438345021974,-0.008246681,0.028099801,-0.015271631
199,1438345021996,-0.0067195175,0.01985312,-0.021991149
200,1438345022017,0.0012217305,0.0021380284,-0.033292156
201,1438345022037,-0.00061086525,0.009773844,-0.033292156
202,1438345022055,-0.0033597588,0.021991149,-0.014660766
203,1438345022076,-0.008552114,0.021685716,-0.006414085
204,1438345022104,-0.0061086523,0.008246681,-0.012217305
205,1438345022118,-0.002443461,-0.0015271631,-0.014660766
206,1438345022139,-0.008552114,0.008857546,-0.011911872
207,1438345022157,-0.005192355,0.020463986,-0.005497787
208,1438345022178,-0.0106901415,0.021380283,-0.0021380284
209,1438345022195,-0.01038471,0.01863139,-0.007330383
210,1438345022215,-0.004886922,0.0030543262,-0.013744468
211,1438345022243,-0.008552114,0.0027488936,-0.017715093
212,1438345022256,-0.0070249503,0.009162978,-0.0125227375
213,1438345022301,-0.013744468,0.015271631,-0.0070249503
214,1438345022302,-0.013133603,0.016798794,-0.003970624
215,1438345022320,-0.0125227375,0.014966198,-0.011301007
216,1438345022334,-0.013439035,0.0125227375,-0.015271631
217,1438345022355,-0.019242255,0.020158553,-0.0125227375
218,1438345022374,-0.012217305,0.03268129,-0.008857546
219,1438345022394,-0.013439035,0.022907447,-0.010995574
220,1438345022417,-0.006414085,0.0033597588,-0.012217305
221,1438345022434,-0.01160644,0.0027488936,-0.020158553
222,1438345022455,-0.008552114,0.023823744,-0.018020526
223,1438345022474,-0.008857546,0.033292156,-0.017715093
224,1438345022497,-0.011301007,0.029321533,-0.021685716
225,1438345022515,-0.0036651916,0.024740042,-0.015882496
226,1438345022537,-0.004276057,0.010079277,-0.02321288
227,1438345022558,-0.007330383,0.011911872,-0.024740042
228,1438345022578,-0.01038471,0.014660766,-0.02321288
229,1438345022597,-0.01160644,0.028405234,-0.02076942
230,1438345022617,-0.009162978,0.03390302,-0.0143553335
231,1438345022637,-0.0061086523,0.01985312,-0.01863139
232,1438345022657,-0.004276057,0.0125227375,-0.015882496
233,1438345022678,-0.008552114,0.023518313,-0.0125227375
234,1438345022698,-0.0067195175,0.027488936,-0.0125227375
235,1438345022714,-0.0018325958,0.022907447,-0.016798794
236,1438345022737,-0.0067195175,0.009468411,-0.0143553335
237,1438345022758,-0.008552114,0.009773844,-0.01863139
238,1438345022777,-0.015271631,0.017715093,-0.0106901415
239,1438345022799,-0.01863139,0.030543262,-0.005497787
240,1438345022818,-0.011301007,0.030543262,-0.014049901
241,1438345022838,-0.004581489,0.0009162979,-0.020463986
242,1438345022857,-0.004276057,0.0061086523,-0.02321288
243,1438345022878,-0.0143553335,0.01282817,-0.017104227
244,1438345022897,-0.014966198,0.03145956,-0.009468411
245,1438345022918,-0.01740966,0.039095376,-0.008857546
246,1438345022938,-0.010995574,0.029321533,-0.017715093
247,1438345022956,-0.004276057,0.004276057,-0.031154128
248,1438345022978,-0.014049901,0.007941248,-0.022907447
249,1438345023068,-0.017715093,0.030543262,-0.019547688
250,1438345023069,-0.019547688,0.04153884,-0.0125227375
251,1438345023070,-0.013133603,0.034208454,-0.019547688
252,1438345023071,-0.015882496,0.009773844,-0.027794369
253,1438345023076,-0.0070249503,0.015577064,-0.034513887
254,1438345023119,-0.01160644,0.030848695,-0.02687807
255,1438345023120,-0.018936822,0.043066,-0.021991149
256,1438345023138,-0.01038471,0.042455133,-0.021991149
257,1438345023155,-0.011301007,0.014660766,-0.01985312
258,1438345023175,-0.015577064,0.015882496,-0.02443461
259,1438345023206,-0.013133603,0.023823744,-0.022602014
260,1438345023224,-0.010079277,0.03268129,-0.022907447
261,1438345023244,-0.01038471,0.034208454,-0.022602014
262,1438345023265,-0.012217305,0.024129177,-0.023823744
263,1438345023275,-0.004276057,0.014660766,-0.0290161
264,1438345023295,-0.011301007,0.026267206,-0.023518313
265,1438345023316,-0.01740966,0.03726278,-0.014049901
266,1438345023335,-0.02107485,0.03481932,-0.008552114
267,1438345023356,-0.014660766,0.011301007,-0.016798794
268,1438345023376,-0.015882496,0.009468411,-0.022602014
269,1438345023395,-0.01863139,0.015882496,-0.022296581
270,1438345023415,-0.02076942,0.029932396,-0.016187929
271,1438345023434,-0.023518313,0.034208454,-0.0143553335
272,1438345023460,-0.014049901,0.02687807,-0.014660766
273,1438345023474,-0.013744468,0.015577064,-0.025045475
274,1438345023494,-0.014660766,0.02076942,-0.027488936
275,1438345023514,-0.009773844,0.024740042,-0.027794369
276,1438345023534,-0.01282817,0.03390302,-0.022602014
277,1438345023554,-0.017715093,0.034208454,-0.013439035
278,1438345023574,-0.013133603,0.028405234,-0.007330383
279,1438345023594,-0.007941248,0.032070424,-0.0143553335
280,1438345023617,-0.007330383,0.020158553,-0.026267206
281,1438345023635,-0.0027488936,0.016187929,-0.03176499
282,1438345023654,-0.010995574,0.02565634,-0.028710667
283,1438345023674,-0.004886922,0.023823744,-0.01985312
284,1438345023694,-0.010995574,0.04428773,-0.006414085
285,1438345023714,-0.011911872,0.02565634,-0.017104227
286,1438345023735,-0.0018325958,-0.00061086525,-0.03390302
287,1438345023754,0.0030543262,0.014966198,-0.038789943
288,1438345023774,-0.005192355,0.027183503,-0.02687807
289,1438345023794,-0.015882496,0.03970624,-0.009162978
290,1438345023814,-0.01282817,0.027183503,-0.0070249503
291,1438345023834,-0.0018325958,0.025350908,-0.03023783
292,1438345023854,0.0106901415,0.03756821,-0.04795292
293,1438345023874,0.010079277,0.061391957,-0.04520403
294,1438345023894,0.00030543262,0.050701816,-0.03145956
295,1438345023914,0.0015271631,0.035124753,-0.020158553
296,1438345023934,-0.005497787,0.034208454,-0.020463986
297,1438345023954,-0.0070249503,0.03390302,-0.017715093
298,1438345023976,-0.012217305,0.0033597588,-0.016493361
299,1438345023996,-0.016798794,0.013439035,-0.015577064
300,1438345024016,-0.01160644,0.020158553,-0.00580322
301,1438345024036,-0.01282817,0.02076942,-0.0061086523
302,1438345024055,-0.01863139,0.008246681,-0.0067195175
303,1438345024076,-0.013133603,0.0,-0.00580322
304,1438345024096,-0.0106901415,-0.003970624,-0.018936822
305,1438345024115,-0.0070249503,0.0076358155,-0.02076942
306,1438345024135,-0.0076358155,0.022907447,-0.013439035
307,1438345024155,-0.007941248,0.022907447,-0.01160644
308,1438345024178,-0.0036651916,0.011301007,-0.021991149
309,1438345024199,-0.005192355,0.024129177,-0.027183503
310,1438345024220,-0.0076358155,0.036651913,-0.025350908
311,1438345024238,-0.013744468,0.047036625,-0.01863139
312,1438345024256,-0.016798794,0.04062254,-0.017715093
313,1438345024275,-0.009162978,0.03023783,-0.021685716
314,1438345024296,-0.013744468,0.01740966,-0.016493361
315,1438345024319,-0.016493361,0.022907447,-0.009773844
316,1438345024338,-0.012217305,0.022907447,-0.0067195175
317,1438345024387,-0.014966198,0.008857546,-0.014660766
318,1438345024388,-0.0067195175,0.007941248,-0.023823744
319,1438345024400,-0.0036651916,0.018020526,-0.02107485
320,1438345024417,-0.0076358155,0.019242255,-0.022602014
321,1438345024437,-0.008857546,0.029321533,-0.011911872
322,1438345024456,-0.008552114,0.020158553,-0.012217305
323,1438345024476,-0.0076358155,0.008857546,-0.014049901
324,1438345024497,-0.01038471,0.014660766,-0.01863139
325,1438345024516,-0.0125227375,0.017715093,-0.011301007
326,1438345024540,-0.0125227375,0.029626964,-0.014660766
327,1438345024557,-0.015882496,0.028099801,-0.0067195175
328,1438345024577,-0.012217305,0.03023783,-0.004886922
329,1438345024597,-0.00580322,0.022602014,-0.009162978
330,1438345024618,0.0,-0.009162978,-0.022602014
331,1438345024639,-0.00030543262,0.00580322,-0.022602014
332,1438345024659,-0.006414085,0.02076942,-0.01282817
333,1438345024679,-0.010995574,0.021685716,-0.0036651916
334,1438345024699,-0.0106901415,0.030848695,-0.006414085
335,1438345024719,0.0,0.010079277,-0.02687807
336,1438345024742,0.007941248,-0.00030543262,-0.03481932
337,1438345024759,0.0033597588,0.01863139,-0.029932396
338,1438345024778,-0.00580322,0.03726278,-0.019242255
339,1438345024797,-0.007330383,0.040927973,-0.006414085
340,1438345024819,-0.009773844,0.016187929,-0.015882496
341,1438345024839,-0.0030543262,0.009468411,-0.026572637
342,1438345024859,-0.0033597588,0.016798794,-0.02687807
343,1438345024877,-0.009162978,0.02687807,-0.016493361
344,1438345024900,-0.008552114,0.035430185,-0.0143553335
345,1438345024920,-0.004581489,0.03145956,-0.014049901
346,1438345024941,-0.0070249503,0.009773844,-0.017104227
347,1438345024959,-0.006414085,0.008246681,-0.02076942
348,1438345024976,-0.007330383,0.007941248,-0.02321288
349,1438345024998,-0.009773844,0.027794369,-0.018325957
350,1438345025019,-0.010079277,0.0290161,-0.010995574
351,1438345025052,-0.0106901415,0.016187929,-0.015882496
352,1438345025148,-0.005497787,0.018020526,-0.021991149
353,1438345025149,-0.009162978,0.025961773,-0.012217305
354,1438345025150,-0.015882496,0.0290161,-0.003970624
355,1438345025151,-0.017715093,0.026572637,-0.005192355
356,1438345025152,-0.008857546,0.01985312,-0.016187929
357,1438345025168,-0.009773844,0.014049901,-0.019547688
358,1438345025181,-0.003970624,0.016798794,-0.020158553
359,1438345025200,-0.016187929,0.022907447,-0.020158553
