id,attr_time,attr_x,attr_y,attr_z
1,1438345018126,0.007941248,0.043676864,-0.008857546
2,1438345018127,0.005497787,0.043066,-0.013439035
3,1438345018128,0.015882496,0.042760566,-0.007941248
4,1438345018129,0.01740966,0.040011674,-0.0027488936
5,1438345018130,0.015577064,0.043676864,-0.00030543262
6,1438345018131,0.013133603,0.049785517,-0.0009162979
7,1438345018162,0.003970624,0.04795292,-0.0061086523
8,1438345018163,0.0030543262,0.04917465,-0.007330383
9,1438345018184,0.0033597588,0.05100725,-0.006414085
10,1438345018203,0.004886922,0.043982297,-0.0033597588
11,1438345018219,0.004276057,0.045814894,-0.004276057
12,1438345018239,0.004886922,0.04520403,-0.0015271631
13,1438345018260,0.003970624,0.038179077,-0.003970624
14,1438345018279,0.01985312,0.03756821,0.0015271631
15,1438345018300,-0.0061086523,0.032375857,0.0033597588
16,1438345018323,-0.019242255,0.03756821,0.0027488936
17,1438345018343,-0.00580322,0.03390302,0.002443461
18,1438345018363,0.011301007,0.03023783,-0.0018325958
19,1438345018381,-0.022907447,0.032986723,0.0070249503
20,1438345018401,-0.03573562,0.028405234,0.0030543262
21,1438345018421,-0.0033597588,0.03756821,0.002443461
22,1438345018440,0.01282817,0.038179077,0.0027488936
23,1438345018458,0.018020526,0.04795292,-0.0018325958
24,1438345018479,0.006414085,0.04428773,-0.0009162979
25,1438345018503,-0.010079277,0.038179077,-0.00061086525
26,1438345018522,-0.01282817,0.029626964,0.008246681
27,1438345018541,-0.0033597588,0.024129177,0.013439035
28,1438345018569,-0.0125227375,0.023518313,0.007941248
29,1438345018587,-0.014660766,0.026572637,0.00580322
30,1438345018603,-0.011301007,0.032986723,0.0012217305
31,1438345018620,0.0012217305,0.033292156,0.0030543262
32,1438345018639,0.0027488936,0.032986723,0.005192355
33,1438345018658,-0.0009162979,0.03726278,0.013133603
34,1438345018683,-0.0076358155,0.030543262,0.01038471
35,1438345018698,-0.008552114,0.032070424,0.01160644
36,1438345018721,-0.004581489,0.0290161,0.013439035
37,1438345018740,0.0009162979,0.035124753,0.011301007
38,1438345018759,0.00580322,0.040317107,0.0106901415
39,1438345018779,0.011911872,0.043982297,0.008552114
40,1438345018802,0.014049901,0.04428773,0.009162978
41,1438345018822,0.013439035,0.052534413,0.01160644
42,1438345018842,0.023823744,0.054061573,0.016187929
43,1438345018862,0.029321533,0.051923547,0.015577064
44,1438345018884,0.034208454,0.04520403,0.016798794
45,1438345018903,0.0106901415,0.03268129,0.018936822
46,1438345018923,0.01282817,0.04428773,0.014660766
47,1438345018940,0.030848695,0.0421497,0.015882496
48,1438345018961,0.03634648,0.04062254,0.024129177
49,1438345018982,0.020463986,0.03970624,0.02321288
50,1438345019008,0.014660766,0.042455133,0.019547688
51,1438345019024,0.03023783,0.04795292,0.018020526
52,1438345019044,0.04886922,0.05100725,0.017104227
53,1438345019068,0.0571159,0.057726767,0.015577064
54,1438345019083,0.050701816,0.056199603,0.016798794
55,1438345019103,0.02687807,0.05009095,0.016798794
56,1438345019124,0.019242255,0.040317107,0.019242255
57,1438345019144,0.027488936,0.04337143,0.019242255
58,1438345019164,0.02687807,0.035430185,0.018325957
59,1438345019184,0.027794369,0.045814894,0.018936822
60,1438345019203,0.017104227,0.05131268,0.012217305
61,1438345019275,0.027794369,0.055588737,0.014049901
62,1438345019280,0.026572637,0.056199603,0.016187929
63,1438345019283,0.035124753,0.05375614,0.02076942
64,1438345019284,0.03145956,0.05131268,0.021380283
65,1438345019303,0.027794369,0.049785517,0.01985312
66,1438345019324,0.019242255,0.05467244,0.013133603
67,1438345019340,0.017104227,0.05955936,0.015271631
68,1438345019360,0.016493361,0.057421334,0.019242255
69,1438345019394,0.017104227,0.05467244,0.013744468
70,1438345019401,0.01160644,0.058948494,0.016187929
71,1438345019421,0.008857546,0.057421334,0.0125227375
72,1438345019440,0.014049901,0.061391957,0.007941248
73,1438345019466,0.036651913,0.06383542,0.004276057
74,1438345019484,0.021685716,0.05375614,0.014966198
75,1438345019503,-0.004276057,0.04795292,0.01282817
76,1438345019521,0.004276057,0.04917465,0.010079277
77,1438345019540,0.0290161,0.046731193,0.0067195175
78,1438345019562,0.0030543262,0.0421497,0.0143553335
79,1438345019583,-0.013744468,0.0421497,0.015882496
80,1438345019603,0.0027488936,0.047036625,0.01282817
81,1438345019626,0.036651913,0.05100725,0.0061086523
82,1438345019643,0.053450707,0.06658431,0.00030543262
83,1438345019662,0.052534413,0.06841691,-0.0015271631
84,1438345019680,0.036651913,0.06566802,-0.0009162979
85,1438345019702,0.029626964,0.062308256,-0.0012217305
86,1438345019722,0.028099801,0.059253927,0.0067195175
87,1438345019740,0.022296581,0.059864793,0.005497787
88,1438345019762,0.028099801,0.0571159,0.0106901415
89,1438345019797,0.020463986,0.06994407,0.002443461
90,1438345019802,0.01863139,0.06169739,0.00061086525
91,1438345019823,0.020463986,0.053145275,-0.00061086525
92,1438345019840,0.019547688,0.055588737,-0.0027488936
93,1438345019861,0.026267206,0.044898596,0.0018325958
94,1438345019881,0.02443461,0.041233405,0.0018325958
95,1438345019902,0.025350908,0.043066,-0.005192355
96,1438345019922,0.023518313,0.049785517,-0.0070249503
97,1438345019941,0.018325957,0.047036625,-0.007330383
98,1438345019980,0.014966198,0.049785517,-0.00580322
99,1438345019988,0.017715093,0.047036625,-0.008552114
100,1438345020015,0.021380283,0.050396383,-0.01160644
101,1438345020025,0.022296581,0.049480084,-0.010995574
102,1438345020057,0.027488936,0.04337143,-0.013439035
103,1438345020063,0.023823744,0.035124753,-0.005497787
104,1438345020082,-0.006414085,0.028710667,-0.00061086525
105,1438345020104,0.0061086523,0.03940081,-0.009468411
106,1438345020121,0.03268129,0.041233405,-0.010995574
107,1438345020147,0.018325957,0.041233405,-0.0061086523
108,1438345020165,-0.013439035,0.03634648,-0.004886922
109,1438345020186,-0.0015271631,0.03390302,-0.013744468
110,1438345020204,0.025045475,0.035124753,-0.015882496
111,1438345020221,0.035430185,0.043982297,-0.015882496
112,1438345020240,0.026572637,0.04642576,-0.016187929
113,1438345020262,0.01160644,0.03848451,-0.014966198
114,1438345020283,0.004276057,0.032375857,-0.015882496
115,1438345020303,0.008552114,0.025350908,-0.01038471
116,1438345020322,0.004581489,0.025045475,-0.009162978
117,1438345020341,-0.008246681,0.02107485,-0.00580322
118,1438345020363,-0.013133603,0.027488936,-0.009468411
119,1438345020383,-0.016187929,0.027183503,-0.008246681
120,1438345020403,-0.004886922,0.026572637,-0.011911872
121,1438345020423,0.0018325958,0.039095376,-0.011301007
122,1438345020440,0.003970624,0.03940081,-0.007330383
123,1438345020462,-0.003970624,0.040317107,-0.008552114
124,1438345020483,-0.013744468,0.03604105,-0.006414085
125,1438345020503,-0.015577064,0.040011674,-0.006414085
126,1438345020523,-0.01282817,0.040011674,-0.0036651916
127,1438345020543,0.0015271631,0.047647487,-0.0033597588
128,1438345020560,0.0018325958,0.05497787,-0.00580322
129,1438345020582,-0.016493361,0.06078109,-0.008246681
130,1438345020613,-0.020158553,0.054367006,-0.004886922
131,1438345020620,-0.008552114,0.049785517,-0.005497787
132,1438345020641,0.003970624,0.05100725,-0.0018325958
133,1438345020660,-0.03145956,0.04062254,-0.00030543262
134,1438345020682,-0.036651913,0.04550946,0.00030543262
135,1438345020704,-0.01863139,0.04062254,-0.004581489
136,1438345020788,-0.0021380284,0.0421497,-0.0036651916
137,1438345020789,-0.027183503,0.042455133,0.004276057
138,1438345020790,-0.01160644,0.04550946,-0.005497787
139,1438345020791,-0.0012217305,0.05222898,-0.0106901415
140,1438345020811,0.017104227,0.0580322,-0.010079277
141,1438345020823,0.018020526,0.0571159,-0.009468411
142,1438345020848,0.0012217305,0.048563786,-0.0033597588
143,1438345020862,-0.007330383,0.040317107,-0.005192355
144,1438345020884,0.0,0.030848695,-0.005192355
145,1438345020903,0.011301007,0.029932396,-0.0061086523
146,1438345020922,0.008857546,0.035124753,-0.0033597588
147,1438345020941,0.0018325958,0.03604105,-0.0009162979
148,1438345020964,-0.00030543262,0.03756821,-0.0076358155
149,1438345020983,0.01863139,0.033292156,-0.003970624
150,1438345021002,0.02107485,0.04184427,-0.00061086525
151,1438345021024,0.024129177,0.04337143,0.005497787
152,1438345021043,0.017715093,0.03756821,0.004276057
153,1438345021063,0.021380283,0.032070424,0.005497787
154,1438345021084,0.021991149,0.034208454,0.006414085
155,1438345021101,0.023823744,0.033292156,0.006414085
156,1438345021121,0.029932396,0.036957346,0.005192355
157,1438345021143,0.031154128,0.036957346,0.00580322
158,1438345021164,0.025350908,0.04153884,0.004581489
159,1438345021184,0.019242255,0.04062254,0.004886922
160,1438345021202,0.027183503,0.034208454,0.008857546
161,1438345021222,0.043066,0.03390302,0.010079277
162,1438345021246,0.029932396,0.02565634,0.013133603
163,1438345021265,-0.0076358155,0.01740966,0.006414085
164,1438345021285,0.0015271631,0.021991149,0.0015271631
165,1438345021304,0.028710667,0.018936822,0.0021380284
166,1438345021326,0.015271631,0.022907447,0.0009162979
167,1438345021347,0.0027488936,0.02687807,-0.0009162979
168,1438345021372,0.010079277,0.028405234,-0.005192355
169,1438345021382,0.02321288,0.028099801,-0.013133603
170,1438345021402,0.029932396,0.04153884,-0.008857546
171,1438345021425,0.03023783,0.040011674,-0.004276057
172,1438345021445,0.0067195175,0.037873644,-0.002443461
173,1438345021475,0.0,0.03481932,-0.007941248
174,1438345021536,0.00580322,0.03634648,-0.0061086523
175,1438345021537,-0.004581489,0.040927973,-0.008552114
176,1438345021538,-0.007941248,0.04337143,-0.0067195175
177,1438345021545,-0.016798794,0.05589417,-0.003970624
178,1438345021563,-0.00580322,0.054061573,-0.0018325958
179,1438345021586,-0.0021380284,0.053450707,-0.007330383
180,1438345021603,0.0033597588,0.056505036,-0.01038471
181,1438345021624,0.0018325958,0.05467244,-0.011911872
182,1438345021643,-0.004581489,0.059253927,-0.005192355
183,1438345021667,-0.0036651916,0.069027774,0.00061086525
184,1438345021683,-0.004886922,0.06627888,0.0012217305
185,1438345021708,0.0012217305,0.0580322,-0.0015271631
186,1438345021723,0.008857546,0.06261369,-0.0033597588
187,1438345021744,0.016187929,0.06566802,-0.007941248
188,1438345021765,0.020158553,0.0693332,-0.008857546
189,1438345021784,0.021685716,0.06963864,-0.010995574
190,1438345021807,0.033292156,0.0693332,-0.009773844
191,1438345021825,0.028099801,0.0580322,-0.0070249503
192,1438345021843,0.0027488936,0.038789943,0.0015271631
193,1438345021862,0.011911872,0.038789943,0.00030543262
194,1438345021882,0.054061573,0.03634648,-0.0027488936
195,1438345021904,0.049480084,0.037873644,-0.004886922
196,1438345021925,0.02107485,0.04337143,-0.007330383
197,1438345021942,0.026267206,0.04734206,-0.009162978
198,1438345021964,0.044593163,0.04550946,-0.009162978
199,1438345021984,0.05955936,0.0421497,-0.009773844
200,1438345022003,0.052534413,0.04062254,-0.0070249503
201,1438345022024,0.03604105,0.03604105,-0.010079277
202,1438345022043,0.0290161,0.032986723,-0.0106901415
203,1438345022067,0.030848695,0.035430185,0.0
204,1438345022083,0.026267206,0.03970624,0.00030543262
205,1438345022108,0.015882496,0.03604105,0.00580322
206,1438345022122,0.0030543262,0.04337143,0.010079277
207,1438345022143,-0.0009162979,0.03848451,0.008246681
208,1438345022162,0.009773844,0.030848695,0.016187929
209,1438345022183,0.015882496,0.043066,0.014660766
210,1438345022204,0.02565634,0.03970624,0.01740966
211,1438345022270,0.021991149,0.028710667,0.016493361
212,1438345022271,0.010995574,0.030848695,0.02107485
213,1438345022272,0.012217305,0.027183503,0.019547688
214,1438345022284,0.014049901,0.038789943,0.015882496
215,1438345022305,0.014660766,0.041233405,0.013439035
216,1438345022324,0.0125227375,0.042455133,0.01038471
217,1438345022343,0.010079277,0.044593163,0.003970624
218,1438345022364,0.011301007,0.039095376,0.0030543262
219,1438345022384,0.017715093,0.040011674,0.003970624
220,1438345022403,0.04550946,0.03726278,0.0070249503
221,1438345022426,0.017715093,0.023823744,0.013439035
222,1438345022444,-0.002443461,0.026572637,0.011911872
223,1438345022464,0.02076942,0.02076942,0.0021380284
224,1438345022484,0.03604105,0.022907447,0.0015271631
225,1438345022507,0.00580322,0.02687807,0.009773844
226,1438345022528,-0.008246681,0.025350908,0.0030543262
227,1438345022546,0.012217305,0.0290161,-0.009773844
228,1438345022566,0.027794369,0.03573562,-0.009773844
229,1438345022585,0.03848451,0.04734206,-0.006414085
230,1438345022604,0.027488936,0.04886922,-0.006414085
231,1438345022623,0.01038471,0.043066,-0.0033597588
232,1438345022644,0.0027488936,0.03390302,0.0027488936
233,1438345022664,0.0070249503,0.036651913,0.0061086523
234,1438345022685,-0.0012217305,0.036651913,0.003970624
235,1438345022705,0.0027488936,0.036957346,0.002443461
236,1438345022724,0.0,0.04642576,0.00580322
237,1438345022746,0.008857546,0.03604105,0.010079277
238,1438345022768,0.009162978,0.034513887,0.014660766
239,1438345022788,0.023518313,0.029932396,0.019547688
240,1438345022808,0.027488936,0.02443461,0.01740966
241,1438345022827,0.029626964,0.01740966,0.013133603
242,1438345022845,0.032375857,0.023518313,0.005192355
243,1438345022866,0.023518313,0.025045475,0.002443461
244,1438345022886,0.017715093,0.025350908,0.0033597588
245,1438345022904,0.019547688,0.027488936,0.0012217305
246,1438345022969,0.025045475,0.025045475,0.00030543262
247,1438345022970,0.02443461,0.028099801,0.004276057
248,1438345022971,0.029626964,0.015882496,0.0030543262
249,1438345022993,0.04550946,0.013133603,0.0012217305
250,1438345023003,0.0290161,0.005192355,0.0015271631
251,1438345023025,0.007330383,0.009162978,0.0033597588
252,1438345023047,0.013439035,0.019547688,0.004581489
253,1438345023071,0.035430185,0.01863139,0.0015271631
254,1438345023084,0.009162978,0.01863139,0.009773844
255,1438345023103,0.0009162979,0.023518313,0.0067195175
256,1438345023125,0.01985312,0.03359759,0.003970624
257,1438345023143,0.04428773,0.04642576,-0.00030543262
258,1438345023164,0.053450707,0.057726767,0.0027488936
259,1438345023184,0.034513887,0.062308256,0.0067195175
260,1438345023205,0.019242255,0.054367006,0.011301007
261,1438345023226,0.01282817,0.052839845,0.014660766
262,1438345023246,0.026267206,0.043676864,0.015882496
263,1438345023267,0.02687807,0.04917465,0.013133603
264,1438345023286,0.030848695,0.04886922,0.014049901
265,1438345023306,0.020463986,0.05375614,0.0125227375
266,1438345023325,0.02687807,0.058337633,0.014966198
267,1438345023344,0.03176499,0.05100725,0.015882496
268,1438345023363,0.03940081,0.05100725,0.015271631
269,1438345023383,0.040927973,0.04917465,0.014966198
270,1438345023406,0.03390302,0.046120327,0.017715093
271,1438345023425,0.021991149,0.045814894,0.0143553335
272,1438345023445,0.022296581,0.04062254,0.016798794
273,1438345023466,0.02321288,0.047036625,0.013133603
274,1438345023485,0.023518313,0.04795292,0.0143553335
275,1438345023506,0.028099801,0.050396383,0.015882496
276,1438345023525,0.02076942,0.050396383,0.017104227
277,1438345023546,0.026267206,0.049480084,0.01740966
278,1438345023566,0.03481932,0.04337143,0.015271631
279,1438345023587,0.06169739,0.042455133,0.014966198
280,1438345023606,0.03268129,0.03359759,0.017715093
281,1438345023625,0.01863139,0.04642576,0.0143553335
282,1438345023646,0.03390302,0.03940081,0.013439035
283,1438345023671,0.04642576,0.033292156,0.0143553335
284,1438345023750,0.020463986,0.029626964,0.016798794
285,1438345023751,0.016187929,0.03481932,0.018936822
286,1438345023752,0.032070424,0.045814894,0.0061086523
287,1438345023753,0.044593163,0.05131268,0.004581489
288,1438345023767,0.049785517,0.053145275,0.0076358155
289,1438345023792,0.036651913,0.050701816,0.013744468
290,1438345023805,0.026267206,0.03481932,0.011301007
291,1438345023824,0.03023783,0.026572637,0.014660766
292,1438345023845,0.03848451,0.02565634,0.014049901
293,1438345023864,0.02107485,0.023823744,0.015577064
294,1438345023887,0.02321288,0.024129177,0.0061086523
295,1438345023905,0.01863139,0.043066,0.009468411
296,1438345023925,0.034208454,0.038179077,0.010995574
297,1438345023945,0.03970624,0.04428773,0.008552114
298,1438345023967,0.043066,0.05222898,0.0106901415
299,1438345023986,0.03940081,0.052839845,0.01038471
300,1438345024007,0.03756821,0.05222898,0.009468411
301,1438345024027,0.03604105,0.049480084,0.0143553335
302,1438345024048,0.029932396,0.049480084,0.014966198
303,1438345024066,0.02687807,0.04184427,0.008552114
304,1438345024084,0.02107485,0.04734206,0.008857546
305,1438345024105,0.022296581,0.045814894,0.007941248
306,1438345024128,0.022296581,0.04550946,0.0076358155
307,1438345024145,0.020463986,0.043066,0.0076358155
308,1438345024166,0.038789943,0.03940081,0.006414085
309,1438345024185,0.046731193,0.033292156,0.011911872
310,1438345024207,0.016493361,0.025961773,0.01740966
311,1438345024226,0.021991149,0.034208454,0.013133603
312,1438345024248,0.055588737,0.038179077,0.009162978
313,1438345024267,0.045814894,0.04062254,0.019547688
314,1438345024287,0.022907447,0.03970624,0.021685716
315,1438345024304,0.012217305,0.04428773,0.01740966
316,1438345024325,0.03145956,0.04520403,0.003970624
317,1438345024345,0.048563786,0.057726767,-0.0009162979
318,1438345024366,0.044593163,0.05100725,0.005192355
319,1438345024384,0.033292156,0.045814894,0.010995574
320,1438345024452,0.027183503,0.03604105,0.005497787
321,1438345024455,0.03176499,0.03390302,0.0106901415
322,1438345024456,0.030543262,0.034513887,0.008857546
323,1438345024474,0.027488936,0.029932396,0.008857546
324,1438345024485,0.0290161,0.038179077,0.009468411
325,1438345024517,0.018936822,0.044898596,0.01038471
326,1438345024526,0.025045475,0.03970624,0.010995574
327,1438345024545,0.023518313,0.043982297,0.010995574
328,1438345024565,0.036651913,0.050701816,0.0125227375
329,1438345024585,0.030848695,0.04550946,0.019547688
330,1438345024606,0.02076942,0.04184427,0.017104227
331,1438345024628,0.01282817,0.044593163,0.02107485
332,1438345024649,0.009162978,0.04520403,0.020463986
333,1438345024666,0.0106901415,0.049480084,0.017715093
334,1438345024686,0.018936822,0.050396383,0.014660766
335,1438345024706,0.021380283,0.05589417,0.016798794
336,1438345024726,0.018936822,0.054367006,0.017715093
337,1438345024746,0.013744468,0.04795292,0.015577064
338,1438345024766,0.005192355,0.047647487,0.012217305
339,1438345024785,0.017715093,0.04184427,0.0125227375
340,1438345024805,0.027488936,0.04153884,0.014660766
341,1438345024825,-0.002443461,0.031154128,0.017104227
342,1438345024846,-0.023518313,0.032986723,0.01740966
343,1438345024867,-0.004886922,0.019547688,0.008552114
344,1438345024886,0.010079277,0.024740042,0.009773844
345,1438345024906,-0.009468411,0.027794369,0.014660766
346,1438345024926,-0.021685716,0.02687807,0.010995574
347,1438345024947,-0.0033597588,0.034208454,-0.002443461
348,1438345024990,0.021380283,0.0421497,-0.008857546
349,1438345024991,0.019242255,0.05375614,-0.008857546
350,1438345025011,0.0061086523,0.046731193,-0.005192355
351,1438345025029,-0.005497787,0.040317107,-0.0027488936
352,1438345025047,-0.0030543262,0.029932396,-0.0015271631
353,1438345025067,0.004581489,0.028099801,-0.004581489
354,1438345025090,-0.006414085,0.027488936,-0.0106901415
355,1438345025105,-0.0033597588,0.03481932,-0.0076358155
356,1438345025125,-0.008552114,0.048563786,-0.009468411
357,1438345025159,-0.003970624,0.042455133,-0.008552114
358,1438345025179,-0.004886922,0.03634648,-0.0021380284
359,1438345025187,-0.008246681,0.04642576,-0.004581489
360,1438345025208,-0.0076358155,0.04184427,-0.002443461
361,1438345025225,-0.0012217305,0.037873644,0.0009162979
362,1438345025245,0.004886922,0.048563786,0.00030543262
363,1438345025265,0.005497787,0.05009095,-0.0018325958
364,1438345025286,0.0036651916,0.055588737,0.0027488936
365,1438345025305,0.01038471,0.05222898,0.0061086523
366,1438345025326,0.007330383,0.05955936,0.01038471
367,1438345025345,0.0030543262,0.065973446,0.022296581
368,1438345025366,0.0009162979,0.083383106,0.032986723
369,1438345025389,-0.01863139,0.102319926,0.044593163
370,1438345025407,-0.059253927,0.13500121,0.034513887
371,1438345025426,-0.07941248,0.15271631,0.03359759
