id,attr_time,attr_x,attr_y,attr_z
1,1437233612910,9.89763,0.81163436,-0.33159694
2,1437233612927,9.942521,0.81043726,-0.3417723
3,1437233612944,9.901221,0.80205756,-0.34596214
4,1437233612966,9.877279,0.8146271,-0.31064767
5,1437233612984,9.882666,0.8415619,-0.31304187
6,1437233613003,9.901221,0.8182184,-0.31004912
7,1437233613025,9.858126,0.7823054,-0.2861071
8,1437233613048,9.859323,0.7870938,-0.29448682
9,1437233613067,9.882666,0.8170213,-0.29867667
10,1437233613084,9.911995,0.8194155,-0.32202014
11,1437233613147,9.858724,0.79487497,-0.30526072
12,1437233613148,9.841366,0.7793127,-0.32680854
13,1437233613149,9.863512,0.8158242,-0.3465607
14,1437233613163,9.862914,0.8535329,-0.29209262
15,1437233613184,9.874885,0.83617496,-0.29388827
16,1437233613204,9.886856,0.82719666,-0.29747957
17,1437233613223,9.883265,0.8158242,-0.3184288
18,1437233613243,9.909002,0.81283146,-0.3172317
19,1437233613267,9.903017,0.81522566,-0.31603462
20,1437233613284,9.873089,0.80325466,-0.32142156
21,1437233613305,9.884461,0.84575176,-0.30286652
22,1437233613324,9.882666,0.83737206,-0.32621
23,1437233613346,9.900024,0.78649527,-0.31423897
24,1437233613367,9.887454,0.7787141,-0.31124622
25,1437233613383,9.854534,0.78290397,-0.30765492
26,1437233613404,9.858724,0.80804306,-0.3184288
27,1437233613423,9.877279,0.82779527,-0.28670564
28,1437233613449,9.888053,0.8050503,-0.2741361
29,1437233613469,9.879673,0.8110358,-0.29269117
30,1437233613489,9.868899,0.81522566,-0.31783026
31,1437233613504,9.874885,0.8379706,-0.30765492
32,1437233613523,9.880871,0.81642276,-0.30107087
33,1437233613544,9.870096,0.79966336,-0.30645782
34,1437233613564,9.8276,0.7679402,-0.29209262
35,1437233613584,9.859323,0.79607207,-0.32202014
36,1437233613606,9.903615,0.8242039,-0.3842694
37,1437233613669,9.905411,0.8463503,-0.3286042
38,1437233613670,9.917382,0.8146271,-0.3716998
39,1437233613671,9.911396,0.81163436,-0.39324763
40,1437233613696,9.873089,0.8331822,-0.3812766
41,1437233613706,9.855731,0.8355764,-0.3477578
42,1437233613724,9.853935,0.8122329,-0.3513491
43,1437233613746,9.869498,0.78649527,-0.3824737
44,1437233613766,9.861118,0.7739257,-0.41060558
45,1437233613788,9.883265,0.7703344,-0.42556936
46,1437233613805,9.900622,0.7529764,-0.4309563
47,1437233613825,9.944916,0.75596917,-0.42676646
48,1437233613844,9.976639,0.7721301,-0.46327803
49,1437233613868,10.043676,0.8230068,-0.51475334
50,1437233613886,10.064626,0.8511387,-0.58119243
51,1437233613904,9.998186,0.8583213,-0.6392518
52,1437233613925,9.856929,0.8451532,-0.6745663
53,1437233613944,9.809045,0.84455466,-0.59615624
54,1437233613966,9.833585,0.8391677,-0.46806642
55,1437233613987,9.842564,0.7918822,-0.40581718
56,1437233614006,9.832987,0.7344214,-0.3693056
57,1437233614027,9.82341,0.6751649,-0.45669398
58,1437233614047,9.828796,0.58538234,-0.45070848
59,1437233614066,9.774328,0.6925228,-0.41958386
60,1437233614089,9.720459,0.8122329,-0.34715924
61,1437233614153,9.74859,0.89902276,-0.32621
62,1437233614154,9.790489,0.8702923,-0.34955344
63,1437233614155,9.84795,0.8086416,-0.46746787
64,1437233614174,9.958682,0.7697359,-0.545878
65,1437233614185,9.952098,0.75477207,-0.5554548
66,1437233614231,9.8683,0.7649474,-0.56203884
67,1437233614232,9.768942,0.85293436,-0.6368576
68,1437233614246,9.721058,0.99299514,-0.6799533
69,1437233614268,9.753978,1.0456676,-0.7152678
70,1437233614284,9.800066,1.0265139,-0.6871359
71,1437233614305,9.831789,0.99299514,-0.6847417
72,1437233614324,9.801263,1.0097545,-0.75357497
73,1437233614347,9.765948,1.0313023,-0.8607155
74,1437233614365,9.758766,0.97982705,-0.86490536
75,1437233614385,9.7162695,0.91219085,-0.82121116
76,1437233614404,9.69951,0.87208796,-0.8026561
77,1437233614425,9.68275,0.84575176,-0.8206126
78,1437233614447,9.690532,0.7637503,-0.95229375
79,1437233614470,9.706094,0.7188591,-1.1109096
80,1437233614487,9.693524,0.724246,-1.1857284
81,1437233614505,9.631873,0.7062895,-0.9792285
82,1437233614526,9.408015,0.6739678,-0.682946
83,1437233614545,9.140464,0.6733692,-0.6159084
84,1437233614566,8.886678,0.6991069,-0.7930793
85,1437233614659,8.763377,0.7128736,-0.91697925
86,1437233614660,8.692149,0.6314707,-1.0247183
87,1437233614661,8.811859,0.53689975,-1.1031284
88,1437233614662,8.917204,0.55006784,-1.1893197
89,1437233614687,8.707113,0.664391,-1.3491327
90,1437233614688,8.425795,0.676362,-1.2952632
91,1437233614706,8.696938,0.7769185,-1.0833763
92,1437233614737,9.31524,1.039682,-1.06123
93,1437233614746,9.589376,1.2599486,-1.377863
94,1437233614765,9.466075,1.2204443,-1.4766239
95,1437233614789,9.461287,1.0486604,-1.5646108
96,1437233614806,9.914988,1.0941502,-1.9375077
97,1437233614825,10.317812,0.9451111,-2.1703439
98,1437233614848,10.692505,0.717662,-1.9835961
99,1437233614868,11.332953,0.64583594,-1.903989
100,1437233614892,12.715007,0.97025025,-1.5502456
101,1437233614904,13.827113,1.276708,-1.2276269
102,1437233614925,17.00422,1.6519991,-1.1300632
103,1437233614945,19.607914,1.0540473,-1.9165585
104,1437233614968,19.607914,0.7493851,-3.5673606
105,1437233614987,19.607914,1.3281834,-4.64535
106,1437233615006,17.818247,1.0737995,-4.52145
107,1437233615026,13.311163,0.7170634,-4.56275
108,1437233615045,8.907627,0.79966336,-3.8522706
109,1437233615067,5.060744,0.7404069,-2.4199393
110,1437233615093,1.2491747,0.50876784,-0.6314707
111,1437233615152,-3.2782607,-0.08200141,1.2300211
112,1437233615153,-7.4645224,-0.7158663,1.2491747
113,1437233615154,-6.8851256,-0.38606504,-0.89184016
114,1437233615172,-2.4378958,-0.3609259,-2.1051018
115,1437233615186,1.584363,0.17597382,-1.9596541
116,1437233615219,3.015497,0.5674258,-1.75076
117,1437233615226,4.445434,1.3664906,-0.80205756
118,1437233615246,4.789002,0.8702923,-1.520318
119,1437233615271,6.7145386,0.31663316,-5.044583
120,1437233615287,13.284826,-1.4389153,-4.200627
121,1437233615307,19.17097,-0.29867667,-3.2543187
122,1437233615328,17.641676,1.8058267,-0.7164649
123,1437233615345,13.190854,0.5793968,0.130484
124,1437233615365,11.993753,1.5065514,-1.0486604
125,1437233615385,12.136807,3.0819361,0.9355343
126,1437233615409,16.19857,2.0488381,3.819949
127,1437233615431,19.607914,0.85054016,0.38726214
128,1437233615446,19.607914,0.9600749,-3.4781766
129,1437233615467,19.607914,3.3692403,-6.499659
130,1437233615485,19.607914,2.645593,-5.221155
131,1437233615506,18.672977,2.1535845,-4.7135844
132,1437233615525,10.6117,1.1737574,-4.173692
133,1437233615547,5.233126,0.32920274,-3.2225955
134,1437233615568,1.8866309,-0.23104046,-2.2816741
135,1437233615612,-2.0667946,-0.6769605,-0.3298013
136,1437233615613,-6.4272346,-1.3132197,1.8423382
137,1437233615626,-9.658808,-1.2318168,0.7380127
138,1437233615650,-6.4625487,-0.338181,-1.7477672
139,1437233615666,0.45729253,0.12270284,-1.2802993
140,1437233615685,4.4364557,0.24361002,-1.4622587
141,1437233615706,4.333505,0.33039984,-0.7739257
142,1437233615730,3.052607,0.52492875,0.2885013
143,1437233615752,1.9249382,0.7015011,-0.18495208
144,1437233615795,1.8004397,0.37229836,-2.3600843
145,1437233615796,4.4544125,0.35913026,-3.9971197
146,1437233615807,11.765107,0.022744916,-2.2972364
147,1437233615832,17.204733,-0.05805939,-0.91099375
148,1437233615846,19.607914,1.4544775,0.5943606
149,1437233615872,19.607914,1.0013748,-2.070386
150,1437233615893,19.607914,-0.2896984,-4.868609
151,1437233615908,18.76695,-0.6392518,-3.1453824
152,1437233615927,17.761984,1.9087774,-0.99060094
153,1437233615945,19.607914,3.2369606,-0.5009867
154,1437233615966,19.607914,3.448249,-2.183512
155,1437233615986,19.607914,2.2505496,-2.4534583
156,1437233616009,17.438766,1.1019313,-2.369661
157,1437233616029,12.397775,-0.34237084,-3.1268275
158,1437233616049,8.901642,-1.1587936,-3.2279825
159,1437233616066,5.8783636,-0.9947908,-2.8101943
160,1437233616118,2.7575219,-0.29747957,-2.2577322
161,1437233616119,-0.688333,0.17836803,-0.7044938
162,1437233616128,-2.5103204,0.2088941,0.12868834
163,1437233616150,-6.5164185,0.19393034,1.2066777
164,1437233616169,-7.973889,0.8774749,0.04129998
165,1437233616186,-4.1880574,0.7338228,-1.4329298
166,1437233616206,0.90740246,0.3250129,-1.4652514
167,1437233616237,3.2620997,-0.10654198,-1.4514848
168,1437233616245,3.506907,-0.51475334,-0.6697779
169,1437233616265,3.4243069,-0.8146271,-1.3652935
170,1437233616286,5.2002063,-1.271321,-4.1491513
171,1437233616305,11.845313,-1.371279,-4.07134
172,1437233616325,19.607914,0.05865794,-2.8856115
173,1437233616345,19.607914,3.9205053,-0.25857377
174,1437233616365,18.793884,3.4386723,-1.745373
175,1437233616385,15.064916,2.2104468,-2.9759927
176,1437233616406,12.361862,0.9020155,-2.3870192
177,1437233616426,12.932879,0.4429273,0.57760113
178,1437233616446,15.837645,0.047884032,0.7930793
179,1437233616466,19.607914,-0.18195933,-0.98581254
180,1437233616487,19.607914,0.82899237,-3.5344403
181,1437233616505,19.607914,2.372654,-4.771644
182,1437233616526,18.872894,2.5941176,-3.852869
183,1437233616545,11.327567,2.2529438,-3.5978866
184,1437233616566,5.940613,1.2635399,-4.426879
185,1437233616585,3.7618895,-0.11911154,-4.5256395
186,1437233616606,1.4742297,-0.86969376,-2.6701334
187,1437233616626,-1.6226702,-1.168969,-0.24181437
188,1437233616645,-5.4486046,-1.6424223,1.757344
189,1437233616665,-7.81647,-1.3605051,1.347337
190,1437233616689,-4.9518075,-0.037708677,-0.46208093
191,1437233616705,-0.45549688,0.9959879,-1.0845734
192,1437233616727,1.9608512,1.1474211,-2.1278467
193,1437233616752,2.2840683,0.94331545,-2.1404164
194,1437233616766,2.4971523,0.17058687,-0.8062474
195,1437233616785,3.2974143,-0.35075054,-1.0594343
196,1437233616806,4.3939586,-1.0378864,-2.545635
197,1437233616826,8.688558,-1.1264719,-2.191293
198,1437233616846,17.20653,-0.7374141,-1.7794905
199,1437233616866,19.607914,1.8267759,-1.8920178
200,1437233616886,19.607914,3.4272997,-0.99898064
201,1437233616906,18.785505,3.5739446,-4.4077253
202,1437233616926,17.191565,2.0644004,-4.6273932
203,1437233616946,16.211739,0.85473,-1.0456676
204,1437233616966,16.288952,1.0205284,2.1697452
205,1437233616988,17.939753,1.2036849,0.7978677
206,1437233617006,18.619707,0.47165772,-0.39085343
207,1437233617026,18.34198,0.6727707,-0.6745663
208,1437233617048,18.185757,0.80205756,-1.4885949
209,1437233617066,17.454927,0.43514615,-4.1180267
210,1437233617087,16.49186,0.79966336,-5.1613
211,1437233617106,13.666702,0.91219085,-5.479729
212,1437233617126,9.328408,0.6356605,-3.9857473
213,1437233617146,4.0144777,0.23104046,-2.3840263
214,1437233617166,-1.0217255,-0.17238252,0.41060558
215,1437233617186,-5.6784477,-0.21906945,1.8902222
216,1437233617206,-9.06744,0.3417723,1.9231426
217,1437233617226,-7.4872675,0.7637503,-0.6877344
218,1437233617246,-2.27928,0.4285621,-2.393603
219,1437233617266,2.2337902,0.032920275,-2.1757307
220,1437233617286,4.3766007,-0.11851298,-0.87448215
221,1437233617307,4.9679685,-0.61770403,0.9175778
222,1437233617326,5.755661,-1.0570401,-1.7908629
223,1437233617346,9.564836,-1.3210008,-3.8923733
224,1437233617366,13.669695,-1.6256629,-3.1651347
225,1437233617386,19.607914,0.23523031,-3.4171243
226,1437233617406,19.599533,3.4674027,-3.803788
227,1437233617426,17.23526,3.2333694,-4.223372
228,1437233617447,17.347189,4.2395325,-3.7367504
229,1437233617466,14.602835,3.2124202,-0.87687635
230,1437233617486,12.451046,0.741604,2.5330653
231,1437233617506,13.019669,-1.2318168,2.5079262
232,1437233617526,15.561712,-2.3301568,0.65062433
233,1437233617547,18.848352,-1.6531962,0.25258827
234,1437233617566,19.607914,1.2838906,-1.5442601
235,1437233617586,19.607914,3.8744168,-5.737106
236,1437233617611,19.141644,4.2012253,-6.9784994
237,1437233617627,15.027805,3.1663318,-6.18123
238,1437233617649,8.750807,1.1605892,-3.095703
239,1437233617670,5.852626,0.050278235,-2.1996727
240,1437233617692,0.25079262,-1.6903064,0.20111294
241,1437233617711,-3.3291376,-1.9656396,1.4454993
242,1437233617731,-7.165247,-1.9357121,2.6048915
243,1437233617747,-7.9146323,-0.5386954,0.62728083
244,1437233617793,-4.5298295,1.2246342,-2.308609
245,1437233617794,0.0011971008,1.7549498,-2.9879637
246,1437233617809,2.7449522,1.5975311,-2.180519
247,1437233617924,3.9624038,0.908001,-0.092775315
248,1437233617943,4.8961425,-0.1436521,0.7793127
249,1437233617958,6.339846,-0.86729956,-2.758719
250,1437233617959,11.632229,-1.5131354,-2.5187001
251,1437233617960,19.49778,-0.94331545,-2.2852654
252,1437233617961,19.576788,2.8491,-2.6791117
253,1437233617962,16.345814,4.794389,-5.6748567
254,1437233617977,17.084425,5.032612,-5.7496753
255,1437233618054,19.607914,5.2367177,-3.6912606
256,1437233618055,17.254414,2.6982653,2.5623944
257,1437233618056,14.597447,-0.7380127,3.2225955
258,1437233618060,13.561357,-4.1922474,0.7673417
259,1437233618087,13.958196,-3.4320881,0.96306765
260,1437233618088,14.966753,-1.3623008,0.84934306
261,1437233618108,18.398243,1.3383588,-1.483208
262,1437233618128,19.607914,4.829105,-6.979098
263,1437233618148,19.552847,5.5150437,-7.728483
264,1437233618168,14.291589,2.244564,-5.2684407
265,1437233618188,6.823475,0.21547815,-3.1160536
266,1437233618215,0.36750996,-0.6338649,-1.6771383
267,1437233618231,-4.4125137,-1.7178397,1.1390414
268,1437233618257,-8.571242,-2.7700913,3.1717186
269,1437233618270,-8.807071,-2.0296845,2.2918496
270,1437233618288,-7.019799,-0.99299514,0.36631286
271,1437233618308,-1.6370354,0.8170213,-2.3708582
272,1437233618328,2.2397757,1.8579005,-3.1573534
273,1437233618348,3.8947675,1.8531121,-2.5570073
274,1437233618373,4.8320975,1.0821792,-0.985214
275,1437233618387,6.308123,0.5021838,-2.461838
276,1437233618407,10.773309,-0.3369839,-3.520075
277,1437233618427,19.06443,-0.8535329,-2.4181437
278,1437233618448,19.607914,2.32058,-1.4903905
279,1437233618471,19.607914,3.3854012,-3.982156
280,1437233618488,18.602348,1.7100586,-3.957017
281,1437233618508,13.861231,1.2838906,-0.14664486
282,1437233618527,11.691485,0.7673417,2.878429
283,1437233618549,12.012308,0.54527944,2.1158757
284,1437233618568,14.423269,0.41180268,0.9959879
285,1437233618589,15.914259,0.33518824,0.7930793
286,1437233618607,18.826805,0.7350199,-0.6290765
287,1437233618630,19.607914,1.9961656,-2.947861
288,1437233618651,19.607914,2.492364,-5.1900306
289,1437233618672,18.70051,1.5729905,-6.0357823
290,1437233618688,12.947245,1.1749545,-4.767454
291,1437233618708,6.4948707,1.2246342,-2.971803
292,1437233618732,0.9792285,0.6218939,-1.7860745
293,1437233618748,-3.1429882,-0.14065935,-0.20829555
294,1437233618810,-6.361394,-0.32321724,1.7292122
295,1437233618811,-7.6267295,-0.3333926,1.5957354
296,1437233618812,-5.143344,-0.29568392,-0.8996213
297,1437233618835,-0.82240826,0.30406362,-1.6112977
298,1437233618876,2.5300727,0.44831428,-1.6837224
299,1437233618877,3.513491,0.1388637,-1.6519991
300,1437233618888,4.122815,0.10414778,-0.7098808
301,1437233618911,4.6591167,0.0077811554,-1.1677719
302,1437233618929,7.890092,-0.089184016,-2.6030958
303,1437233618956,18.265366,-0.27832595,-1.2264298
304,1437233618971,19.607914,2.2260091,-4.232949
305,1437233618989,19.607914,4.119224,-5.947197
306,1437233619015,18.013374,2.966416,-3.6326025
307,1437233619031,8.494029,2.4911668,-0.7799112
308,1437233619048,3.3865983,-0.25139117,0.25318682
309,1437233619069,2.7665,-1.0486604,2.3780408
310,1437233619089,6.38354,-0.14425065,2.558803
311,1437233619109,11.535862,0.5847838,2.5743654
312,1437233619131,19.054853,0.7254431,0.47465047
313,1437233619155,19.607914,2.030283,-4.0384197
314,1437233619171,19.607914,3.6511576,-6.7283053
315,1437233619190,19.588161,3.401562,-4.7961845
316,1437233619220,16.737864,2.4001873,-3.1184478
317,1437233619270,7.9391727,0.9672575,-2.6779146
318,1437233619271,2.220622,-0.33399114,-3.280655
319,1437233619272,0.2837129,-0.374094,-2.010531
320,1437233619290,-1.678934,-0.15562311,-0.032920275
321,1437233619314,-4.9787426,-0.30047232,1.5478514
322,1437233619333,-6.927623,-0.1316811,1.050456
323,1437233619349,-5.0547585,0.26635495,-1.6310499
324,1437233619371,-0.89184016,0.8595184,-1.6645688
325,1437233619391,2.4791958,0.45010993,-0.9528923
326,1437233619410,4.0306387,-0.272939,-0.51235914
327,1437233619430,5.140351,-0.7398083,-0.46567222
328,1437233619451,7.9750857,-0.97862995,-2.1134815
329,1437233619475,17.737444,-0.9044097,0.28550854
330,1437233619492,19.607914,1.4173675,0.92176765
331,1437233619510,19.607914,4.7255554,-3.6649241
332,1437233619529,19.607914,4.594473,-6.3979053
333,1437233619550,19.566614,3.6152446,-5.7005944
334,1437233619573,13.272856,1.5520413,-3.6218286
335,1437233619594,7.6309195,-0.6739678,-1.2814964
336,1437233619614,4.3580456,-1.2006922,0.15981296
337,1437233619631,2.0374656,-1.0875661,0.18914193
338,1437233619649,0.29987377,-0.98341835,0.25917232
339,1437233619670,-0.66738373,-0.7781156,0.3405752
340,1437233619689,-0.10295067,-0.074220255,0.15981296
341,1437233619713,2.5079262,1.0235212,0.011971008
342,1437233619733,5.911284,1.5233108,-0.17058687
343,1437233619784,9.365519,1.2485762,-1.9560628
344,1437233619785,14.553155,0.54527944,-3.4913447
345,1437233619790,19.607914,0.5315128,-4.7680526
346,1437233619829,19.607914,2.0284874,-3.7253778
347,1437233619830,19.607914,2.1320367,-3.2788591
348,1437233619849,14.95179,1.4329298,-2.7862523
349,1437233619876,9.268554,0.7092823,-3.4476504
350,1437233619892,4.144962,-0.12330139,-2.154183
351,1437233619914,1.5478514,-0.0011971008,-0.82240826
352,1437233619936,0.35553896,0.012569559,0.30765492
353,1437233619952,0.17717093,-0.022744916,0.9498995
354,1437233619971,0.8762778,0.22864626,1.4694413
355,1437233619989,2.1883004,0.5327099,1.5406688
356,1437233620009,4.4460325,0.688333,0.22864626
357,1437233620029,6.5607114,0.24361002,-2.9233203
358,1437233620049,11.247959,-0.31783026,-3.0520086
359,1437233620072,19.607914,-0.02633622,-0.6727707
360,1437233620096,19.607914,3.6541502,-0.6051345
361,1437233620124,19.607914,4.0683475,-5.7855883
362,1437233620177,19.607914,3.5703533,-3.4943373
363,1437233620178,18.889652,2.6431987,-3.4219127
364,1437233620179,10.873865,0.80684596,-3.2626984
365,1437233620190,6.8599863,0.18854338,-2.6366146
366,1437233620217,5.063138,-0.048482586,-2.4504654
367,1437233620229,2.7431567,-0.51235914,-2.2469583
368,1437233620261,-0.801459,-0.7679402,-1.2689269
369,1437233620272,-5.5312047,-1.1941081,1.0833763
370,1437233620304,-8.62152,-1.1168951,1.2611457
371,1437233620310,-5.990891,0.061052144,-1.4341269
372,1437233620330,-0.842759,0.5805939,-0.7116765
373,1437233620350,3.4183214,0.90261406,-0.42317516
374,1437233620370,4.1641154,1.1522095,-0.95109665
375,1437233620393,3.6379895,0.7589619,0.18435353
376,1437233620410,4.283227,0.4249708,-0.19632454
377,1437233620430,5.9047,0.130484,-2.932897
378,1437233620450,8.941745,-0.05566519,-2.4091654
379,1437233620470,19.607914,-0.6015432,-0.32202014
380,1437233620490,19.607914,3.8067808,-3.442862
381,1437233620510,19.607914,3.1950622,-2.6928782
382,1437233620530,18.926764,2.2643163,-2.2523453
383,1437233620550,11.498154,1.3365631,-3.715801
384,1437233620570,6.5020533,0.11432313,-1.9602526
385,1437233620590,5.805939,-0.05746084,-0.29328972
386,1437233620610,5.221754,-0.39564183,0.6823475
387,1437233620630,4.298789,-0.19393034,-0.40043023
388,1437233620650,2.8682537,-0.2220622,-0.74758947
389,1437233620679,1.8818425,-0.095169514,-0.8619126
390,1437233620690,2.6330233,0.2148796,-1.3431472
391,1437233620710,4.253299,0.4866215,-2.094328
392,1437233620733,5.8622026,0.75357497,-2.9586349
393,1437233620752,6.6612678,0.95827925,-3.2483332
394,1437233620771,8.357559,1.4496891,-2.7072437
395,1437233620791,10.557233,1.7812861,-0.5201403
396,1437233620812,13.851055,1.5478514,2.4181437
397,1437233620833,16.924612,0.41120413,2.0278888
398,1437233620849,19.607914,-1.3144168,0.12030864
399,1437233620870,19.607914,-0.6889315,-2.1272483
400,1437233620891,19.607914,1.435324,-2.8502972
401,1437233620914,19.607914,4.0803185,-4.100669
402,1437233620933,19.288288,4.553173,-6.337452
403,1437233620952,12.28824,2.212841,-4.473566
404,1437233620974,4.624999,-0.062249243,-3.1615434
405,1437233620991,0.12988544,-1.6358383,-1.3060371
406,1437233621011,-3.6733038,-2.7988217,0.86969376
407,1437233621034,-8.6813755,-3.9881415,2.4708161
408,1437233621054,-10.110714,-2.3523033,-0.40282443
