id,attr_time,attr_x,attr_y,attr_z
1,1436966160531,-0.55741453,0.49357912,0.86742866
2,1436966160550,-0.6001751,0.5314528,0.9611965
3,1436966160570,-0.61941737,0.57360244,1.0048733
4,1436966160590,-0.61086524,0.593761,1.0302242
5,1436966160610,-0.5681047,0.5748242,1.0375546
6,1436966160630,-0.51007247,0.5497787,1.0445796
7,1436966160650,-0.43004912,0.5458081,0.9599747
8,1436966160670,-0.36774087,0.52564955,0.8396343
9,1436966160690,-0.2919936,0.49663344,0.70066243
10,1436966160710,-0.24220806,0.4447099,0.61544675
11,1436966160730,-0.20738874,0.43310347,0.57940567
12,1436966160750,-0.16432275,0.41874814,0.49846604
13,1436966160770,-0.13988814,0.36774087,0.39187005
14,1436966160790,-0.14446963,0.30482176,0.2764165
15,1436966160811,-0.16218472,0.24220806,0.24220806
16,1436966160830,-0.17287487,0.23335053,0.2666427
17,1436966160850,-0.15821409,0.24862215,0.31520647
18,1436966160870,-0.13805555,0.26939157,0.32436943
19,1436966160892,-0.1151481,0.27855456,0.2883284
20,1436966160910,-0.08552113,0.2724459,0.21533
21,1436966160930,-0.07941248,0.24740042,0.16371189
22,1436966160950,-0.06291912,0.22113322,0.1282817
23,1436966160970,-0.047036625,0.19364429,0.10842858
24,1436966160990,-0.01985312,0.16982053,0.047647487
25,1436966161011,0.013744468,0.12095132,0.0015271631
26,1436966161030,0.03970624,0.07147124,-0.03359759
27,1436966161050,0.06414085,0.0421497,-0.05131268
28,1436966161070,0.065973446,0.027183503,-0.07238753
29,1436966161090,0.076052725,0.0033597588,-0.106595986
30,1436966161110,0.08002335,-0.023823744,-0.13164146
31,1436966161130,0.07727446,-0.046731193,-0.12980886
32,1436966161150,0.087659165,-0.06872234,-0.10903945
33,1436966161170,0.0983493,-0.099265605,-0.0888809
34,1436966161190,0.1133155,-0.10598512,-0.08368854
35,1436966161210,0.13103059,-0.11148291,-0.07819075
36,1436966161233,0.1328632,-0.10995574,-0.060170226
37,1436966161255,0.12461651,-0.1020145,-0.062308256
38,1436966161276,0.11759156,-0.10567969,-0.054061573
39,1436966161295,0.10445796,-0.102319926,-0.05497787
40,1436966161315,0.087659165,-0.08979719,-0.046731193
41,1436966161335,0.073303826,-0.073303826,-0.035430185
42,1436966161356,0.058948494,-0.076052725,-0.03756821
43,1436966161376,0.048563786,-0.08399397,-0.04795292
44,1436966161396,0.051618114,-0.0983493,-0.058337633
45,1436966161416,0.0571159,-0.10720685,-0.05589417
46,1436966161435,0.064446285,-0.103847094,-0.06261369
47,1436966161460,0.062308256,-0.0870483,-0.076358154
48,1436966161532,0.049480084,-0.06963864,-0.081855945
49,1436966161533,0.02687807,-0.06261369,-0.070249505
50,1436966161534,-0.008552114,-0.04062254,-0.05589417
51,1436966161535,-0.046120327,0.002443461,-0.042455133
52,1436966161553,-0.07696902,0.047036625,0.0009162979
53,1436966161577,-0.08552113,0.06414085,0.020158553
54,1436966161593,-0.10354166,0.08368854,0.021685716
55,1436966161612,-0.112704635,0.103847094,0.02076942
56,1436966161635,-0.121256754,0.12003502,0.021380283
57,1436966161652,-0.14385876,0.13041973,0.020463986
58,1436966161676,-0.16432275,0.13194689,0.025045475
59,1436966161692,-0.16768251,0.13744467,0.02565634
60,1436966161715,-0.15699236,0.13072516,-0.008552114
61,1436966161735,-0.11759156,0.11881329,-0.049785517
62,1436966161755,-0.062002823,0.08674286,-0.07574729
63,1436966161774,-0.027183503,0.053145275,-0.08979719
64,1436966161796,0.0106901415,0.04337143,-0.08582657
65,1436966161815,0.03970624,0.030543262,-0.08674286
66,1436966161835,0.054367006,0.017104227,-0.09865474
67,1436966161855,0.06566802,-0.0033597588,-0.11301007
68,1436966161875,0.07513642,-0.026572637,-0.1328632
69,1436966161895,0.089186326,-0.04520403,-0.15699236
70,1436966161913,0.12064589,-0.059864793,-0.20769419
71,1436966161934,0.16920967,-0.09101892,-0.27947086
72,1436966161955,0.20433442,-0.1337795,-0.3555236
73,1436966161973,0.22082779,-0.17592919,-0.40194935
74,1436966161994,0.23457226,-0.2049453,-0.4343252
75,1436966162015,0.23487769,-0.21777347,-0.47983465
76,1436966162036,0.24984388,-0.22174409,-0.5170974
77,1436966162056,0.2883284,-0.23426682,-0.57879484
78,1436966162080,0.33322698,-0.24495697,-0.6450737
79,1436966162093,0.35979962,-0.25381452,-0.6948592
80,1436966162112,0.39584067,-0.26389378,-0.7706065
81,1436966162132,0.410196,-0.28588495,-0.82344633
82,1436966162153,0.42394048,-0.31520647,-0.81000733
83,1436966162180,0.4279111,-0.3359759,-0.7489208
84,1436966162254,0.42577308,-0.33567044,-0.68875057
85,1436966162255,0.4129449,-0.32253686,-0.6178902
86,1436966162256,0.38973203,-0.32528573,-0.589485
87,1436966162257,0.36254853,-0.33475417,-0.5644395
88,1436966162275,0.34269542,-0.33505958,-0.51343226
89,1436966162301,0.3359759,-0.33322698,-0.46486846
90,1436966162314,0.32559118,-0.3313944,-0.40469822
91,1436966162332,0.28863382,-0.34788775,-0.35277468
92,1436966162355,0.23640485,-0.3662137,-0.28710666
93,1436966162373,0.19608775,-0.3848451,-0.2134974
94,1436966162394,0.1685988,-0.4147775,-0.15515977
95,1436966162413,0.124311075,-0.43768495,-0.079107046
96,1436966162436,0.06261369,-0.46700647,0.005192355
97,1436966162453,-0.014966198,-0.46120325,0.0711658
98,1436966162476,-0.074830994,-0.42119157,0.12675454
99,1436966162524,-0.09865474,-0.41141775,0.19303341
100,1436966162525,-0.090713486,-0.42210788,0.26389378
101,1436966162533,-0.051923547,-0.45448375,0.18295415
102,1436966162556,-0.009468411,-0.4718934,-0.0070249503
103,1436966162576,0.03634648,-0.45631635,-0.19730948
104,1436966162593,0.07360926,-0.43982297,-0.29718593
105,1436966162616,0.12858713,-0.419359,-0.37659842
106,1436966162634,0.17104226,-0.3903429,-0.4147775
107,1436966162654,0.19730948,-0.36193767,-0.42363504
108,1436966162676,0.21655174,-0.3368922,-0.4156938
109,1436966162696,0.21868975,-0.31642818,-0.41233405
110,1436966162715,0.22113322,-0.30604348,-0.41447207
111,1436966162734,0.21991149,-0.29657507,-0.38515055
112,1436966162756,0.2049453,-0.28160888,-0.35613444
113,1436966162776,0.17928895,-0.2507602,-0.33475417
114,1436966162800,0.15821409,-0.22296582,-0.3036
115,1436966162817,0.12156218,-0.19853121,-0.25045475
116,1436966162835,0.08552113,-0.15851954,-0.19700404
117,1436966162856,0.04917465,-0.11362094,-0.15271631
118,1436966162876,0.035430185,-0.07086037,-0.13041973
119,1436966162896,0.02107485,-0.040927973,-0.11453723
120,1436966162918,0.009162978,-0.0125227375,-0.08827003
121,1436966162977,0.0061086523,0.018020526,-0.0571159
122,1436966162987,0.0030543262,0.048563786,-0.064446285
123,1436966162988,-0.004886922,0.07788532,-0.0693332
124,1436966162994,0.010995574,0.07941248,-0.070554934
125,1436966163014,0.049480084,0.041233405,-0.086132
126,1436966163036,0.10873401,-0.018936822,-0.110872045
127,1436966163053,0.17104226,-0.07971791,-0.16829337
128,1436966163073,0.20708331,-0.12308934,-0.23273966
129,1436966163096,0.22937989,-0.15149458,-0.24007004
130,1436966163114,0.23945917,-0.15760323,-0.23273966
131,1436966163136,0.22327125,-0.13561209,-0.19822577
132,1436966163156,0.18753563,-0.09040806,-0.14630222
133,1436966163175,0.14721853,-0.031154128,-0.116675265
134,1436966163196,0.115453534,0.02076942,-0.09590584
135,1436966163215,0.0711658,0.055588737,-0.099571034
136,1436966163237,0.0421497,0.093462385,-0.10629055
137,1436966163257,0.021991149,0.11056661,-0.10415252
138,1436966163277,0.009773844,0.1160644,-0.099571034
139,1436966163297,0.00030543262,0.11636983,-0.08399397
140,1436966163314,-0.0027488936,0.12736541,-0.03634648
141,1436966163337,0.012217305,0.13255776,0.013133603
142,1436966163357,0.032070424,0.11911872,0.041233405
143,1436966163377,0.04337143,0.10934488,0.035124753
144,1436966163394,0.046731193,0.10598512,0.015882496
145,1436966163413,0.03176499,0.099265605,-0.018936822
146,1436966163434,0.028099801,0.09407325,-0.047647487
147,1436966163453,0.018936822,0.08674286,-0.046120327
148,1436966163474,0.023823744,0.07574729,-0.044593163
149,1436966163499,0.016493361,0.06169739,-0.046731193
150,1436966163519,-0.007330383,0.05681047,-0.04062254
151,1436966163535,-0.03726278,0.063224554,-0.030543262
152,1436966163557,-0.047647487,0.061391957,-0.02076942
153,1436966163574,-0.055283304,0.043066,-0.020463986
154,1436966163594,-0.048563786,0.029626964,-0.028710667
155,1436966163614,-0.040011674,0.022602014,-0.029932396
156,1436966163635,-0.022907447,0.0067195175,-0.028099801
157,1436966163654,-0.009468411,-0.011911872,-0.032070424
158,1436966163740,0.0009162979,-0.027794369,-0.0290161
159,1436966163741,0.005497787,-0.046731193,-0.029321533
160,1436966163742,0.004276057,-0.050396383,-0.03145956
161,1436966163743,0.004886922,-0.048563786,-0.033292156
162,1436966163754,0.0021380284,-0.04428773,-0.035430185
163,1436966163782,-0.01160644,-0.039095376,-0.034208454
164,1436966163795,-0.016493361,-0.029321533,-0.03023783
165,1436966163814,-0.014966198,-0.03604105,-0.038179077
166,1436966163836,-0.014660766,-0.03023783,-0.032986723
167,1436966163855,-0.0125227375,-0.031154128,-0.028710667
168,1436966163876,0.00061086525,-0.022296581,-0.025350908
169,1436966163895,0.004886922,-0.025961773,-0.022296581
170,1436966163915,0.009162978,-0.021685716,-0.022907447
171,1436966163935,0.0033597588,-0.015271631,-0.0061086523
172,1436966163957,0.004581489,-0.009773844,0.003970624
173,1436966163977,0.01038471,-0.013133603,0.013744468
174,1436966163997,0.0106901415,-0.0076358155,0.01985312
175,1436966164017,0.007941248,0.004276057,0.024129177
176,1436966164035,0.0076358155,0.002443461,0.017715093
177,1436966164056,0.0033597588,0.0030543262,0.005497787
178,1436966164077,-0.0033597588,-0.00061086525,-0.006414085
179,1436966164097,-0.0027488936,0.00580322,-0.0033597588
180,1436966164118,-0.0009162979,-0.0106901415,-0.007330383
181,1436966164134,0.004886922,-0.0106901415,-0.011301007
182,1436966164157,0.01282817,-0.022602014,-0.014049901
183,1436966164176,0.024740042,-0.029626964,-0.024129177
184,1436966164196,0.03359759,-0.0290161,-0.035430185
185,1436966164217,0.032070424,-0.03390302,-0.034513887
186,1436966164235,0.028099801,-0.025045475,-0.033292156
187,1436966164257,0.013439035,-0.026267206,-0.029932396
188,1436966164278,0.007330383,-0.010995574,-0.027183503
189,1436966164297,0.0021380284,-0.0033597588,-0.027183503
190,1436966164316,0.0018325958,-0.0033597588,-0.027183503
191,1436966164338,0.004886922,0.0033597588,-0.027488936
192,1436966164357,-0.0021380284,0.007330383,-0.019547688
193,1436966164377,-0.009468411,0.0106901415,-0.01282817
194,1436966164403,-0.004276057,0.017715093,-0.014660766
195,1436966164463,-0.009162978,0.019547688,-0.005497787
196,1436966164464,0.0012217305,0.008246681,0.0018325958
197,1436966164465,-0.0015271631,-0.010079277,-0.006414085
198,1436966164484,0.0018325958,-0.002443461,-0.00061086525
199,1436966164494,0.006414085,0.008552114,-0.00030543262
200,1436966164520,0.009773844,0.00580322,-0.0015271631
201,1436966164535,0.013133603,0.0030543262,-0.01160644
202,1436966164555,0.0106901415,0.0070249503,-0.021685716
203,1436966164577,0.0076358155,0.009162978,-0.015882496
204,1436966164596,0.0021380284,0.005497787,-0.01282817
205,1436966164616,-0.00061086525,0.0076358155,-0.01282817
206,1436966164638,0.0015271631,0.009468411,-0.009162978
207,1436966164656,0.009162978,0.0106901415,-0.009162978
208,1436966164677,0.0076358155,0.013439035,-0.010995574
209,1436966164698,0.008857546,0.016798794,-0.0061086523
210,1436966164718,0.011911872,0.017715093,-0.004581489
211,1436966164738,0.014049901,0.016798794,-0.0030543262
212,1436966164756,0.00580322,0.016798794,-0.004581489
213,1436966164777,0.007941248,0.014049901,-0.009162978
214,1436966164798,0.011301007,0.004886922,-0.0061086523
215,1436966164818,0.013439035,-0.0030543262,-0.0027488936
216,1436966164838,0.01282817,-0.0030543262,-0.0070249503
217,1436966164856,0.019242255,-0.0015271631,-0.004581489
218,1436966164876,0.018936822,-0.00030543262,-0.008552114
219,1436966164898,0.01160644,-0.004886922,-0.008246681
220,1436966164918,0.0106901415,0.0036651916,0.0018325958
221,1436966164938,0.013744468,-0.0076358155,0.0067195175
222,1436966164955,0.016493361,-0.014660766,0.004886922
223,1436966164977,0.025045475,-0.006414085,0.014966198
224,1436966164998,0.020463986,0.0018325958,0.0036651916
225,1436966165019,0.01985312,0.0,-0.0027488936
226,1436966165038,0.017715093,-0.0036651916,-0.014049901
227,1436966165055,0.009468411,0.0,-0.015577064
228,1436966165077,0.0027488936,-0.0030543262,-0.013439035
229,1436966165096,-0.0070249503,0.0018325958,-0.008552114
230,1436966165125,-0.0036651916,0.010079277,0.0
231,1436966165142,-0.007330383,0.002443461,-0.005192355
232,1436966165204,-0.004276057,0.008246681,-0.0076358155
233,1436966165205,0.0030543262,0.005192355,-0.010995574
234,1436966165206,0.014660766,0.0036651916,-0.019242255
235,1436966165227,0.016493361,-0.005192355,-0.02443461
236,1436966165235,0.021685716,-0.005192355,-0.035124753
237,1436966165255,0.013133603,-0.0070249503,-0.035430185
238,1436966165276,0.008246681,-0.01282817,-0.030543262
239,1436966165297,0.003970624,-0.01160644,-0.022602014
240,1436966165315,0.0012217305,-0.01038471,-0.017715093
241,1436966165335,0.0009162979,-0.0030543262,-0.017715093
242,1436966165355,0.0030543262,-0.00061086525,-0.007941248
243,1436966165376,-0.00061086525,0.002443461,-0.004276057
244,1436966165395,-0.005192355,0.0106901415,-0.009468411
245,1436966165417,-0.0009162979,0.02565634,0.0036651916
246,1436966165439,0.006414085,0.009468411,0.0009162979
247,1436966165459,0.0018325958,0.004581489,-0.013744468
248,1436966165475,-0.0021380284,0.014660766,-0.017715093
249,1436966165497,0.0012217305,0.01863139,-0.02443461
250,1436966165517,-0.00061086525,0.013439035,-0.028710667
251,1436966165583,0.004581489,0.011911872,-0.023823744
252,1436966165584,0.0030543262,0.008552114,-0.01740966
253,1436966165585,0.00061086525,0.0070249503,-0.01863139
254,1436966165595,0.0009162979,0.007330383,-0.009468411
255,1436966165615,0.0076358155,-0.002443461,-0.002443461
256,1436966165636,0.017715093,-0.007941248,-0.005497787
257,1436966165656,0.018325957,-0.0036651916,-0.01160644
258,1436966165676,0.026572637,0.0009162979,-0.019242255
259,1436966165696,0.017715093,-0.00030543262,-0.0290161
260,1436966165716,0.0061086523,-0.004886922,-0.024129177
261,1436966165736,-0.010995574,-0.006414085,-0.025961773
262,1436966165756,-0.025350908,-0.009468411,-0.028710667
263,1436966165776,-0.02107485,-0.0076358155,-0.027488936
264,1436966165797,-0.02107485,-0.009468411,-0.019242255
265,1436966165816,-0.002443461,-0.011301007,-0.022602014
266,1436966165837,0.007941248,-0.00580322,-0.02076942
267,1436966165856,0.010079277,-0.01160644,-0.008246681
268,1436966165875,0.016493361,-0.008552114,-0.02321288
269,1436966165896,0.0143553335,0.006414085,0.005192355
270,1436966165915,0.019242255,0.0015271631,0.006414085
271,1436966165935,0.011301007,-0.010079277,-0.0076358155
272,1436966165955,0.004276057,0.0030543262,-0.011301007
273,1436966165975,0.0027488936,0.013744468,-0.029321533
274,1436966165995,-0.0033597588,0.017715093,-0.042455133
275,1436966166015,0.004581489,0.020463986,-0.03756821
276,1436966166041,0.010079277,0.015271631,-0.024129177
277,1436966166055,0.01985312,0.021685716,-0.02565634
278,1436966166075,0.035124753,0.024740042,0.0027488936
279,1436966166095,0.06811147,0.03023783,0.04153884
280,1436966166115,0.09101892,0.014049901,0.05497787
281,1436966166135,0.10415252,0.0106901415,0.07086037
282,1436966166155,0.12186762,0.0036651916,0.08674286
283,1436966166175,0.14782938,-0.013133603,0.09621128
284,1436966166195,0.17715092,-0.050396383,0.089491755
285,1436966166215,0.19272798,-0.080634214,0.06627888
286,1436966166235,0.1957823,-0.09407325,0.042455133
287,1436966166255,0.1863139,-0.10262536,-0.0036651916
288,1436966166275,0.1777618,-0.110872045,-0.035430185
289,1436966166295,0.17745635,-0.12644911,-0.044898596
290,1436966166316,0.18570304,-0.14721853,-0.043066
291,1436966166335,0.19517145,-0.16035213,-0.023823744
292,1436966166356,0.21930063,-0.15332718,0.013133603
293,1436966166376,0.23854288,-0.12767084,0.029932396
294,1436966166396,0.24831672,-0.09590584,0.041233405
295,1436966166415,0.25167647,-0.076358154,0.054367006
296,1436966166435,0.2519819,-0.047036625,0.076358154
297,1436966166455,0.24740042,-0.014966198,0.11881329
298,1436966166475,0.24373524,0.029321533,0.18112154
299,1436966166495,0.24281894,0.065973446,0.19822577
300,1436966166515,0.24617869,0.093462385,0.16126843
301,1436966166539,0.24251351,0.10598512,0.14019357
302,1436966166556,0.25320363,0.10842858,0.14049901
303,1436966166577,0.26053402,0.106901415,0.19181168
304,1436966166596,0.27855456,0.110872045,0.26267207
305,1436966166615,0.29565877,0.10262536,0.25686884
306,1436966166636,0.30634892,0.11056661,0.21930063
307,1436966166655,0.3182608,0.112399206,0.16493362
308,1436966166675,0.32406402,0.122478485,0.1001819
309,1436966166696,0.31306845,0.13958271,0.0061086523
310,1436966166715,0.29046643,0.1554652,-0.10170906
311,1436966166736,0.26419923,0.1704314,-0.17256944
312,1436966166756,0.23273966,0.1591304,-0.22113322
313,1436966166781,0.21624629,0.103847094,-0.1908954
314,1436966166799,0.20555615,0.021380283,-0.16707164
315,1436966166817,0.18936823,-0.054367006,-0.12370021
316,1436966166837,0.17104226,-0.09010262,-0.093462385
317,1436966166859,0.1459968,-0.10140363,-0.08155051
318,1436966166879,0.13744467,-0.129198,-0.12950343
319,1436966166899,0.16249016,-0.21074851,-0.18478674
320,1436966166920,0.1554652,-0.31490102,-0.2855795
321,1436966166941,0.10048734,-0.37690386,-0.40958515
322,1436966166960,-0.020158553,-0.4266894,-0.6606508
323,1436966166980,-0.090713486,-0.52412236,-0.92271197
324,1436966166997,-0.06719518,-0.68691796,-0.9944886
325,1436966167018,-0.013133603,-0.8347474,-0.88056225
326,1436966167037,-0.015882496,-0.9120218,-0.84696466
327,1436966167067,-0.08032878,-0.92179567,-0.89552844
328,1436966167080,-0.1518,-0.8546005,-1.0030408
329,1436966167106,-0.16798794,-0.768163,-0.97035944
330,1436966167123,-0.14538592,-0.68111473,-0.9114109
331,1436966167160,-0.13041973,-0.6301075,-0.9056077
332,1436966167161,-0.15271631,-0.5381723,-1.0134255
333,1436966167244,-0.18020524,-0.43554693,-1.1209377
334,1436966167245,-0.15790866,-0.4147775,-0.7837401
335,1436966167246,-0.15821409,-0.38728857,-0.6939429
336,1436966167247,-0.17287487,-0.33505958,-0.9636399
337,1436966167268,-0.19486602,-0.33322698,-1.3707817
338,1436966167282,-0.267559,-0.27855456,-1.2660183
339,1436966167317,-0.36560285,-0.13591751,-0.9896017
340,1436966167318,-0.42913285,0.021991149,-0.8717047
341,1436966167337,-0.47219884,0.16371189,-0.84696466
342,1436966167364,-0.5381723,0.28069258,-0.7861836
343,1436966167377,-0.6169739,0.3717115,-0.6942484
344,1436966167402,-0.64934975,0.30207285,-0.516792
345,1436966167424,-0.61727935,0.08857546,-0.25534168
346,1436966167440,-0.5305365,-0.21166481,-0.1255328
347,1436966167459,-0.4034765,-0.39767328,-0.08307768
348,1436966167481,-0.3036,-0.41996986,-0.083383106
349,1436966167503,-0.22082779,-0.23396139,-0.021685716
350,1436966167519,-0.10567969,-0.03145956,0.21868975
351,1436966167538,-0.012217305,0.10445796,0.47800204
352,1436966167558,0.105374254,0.122783914,0.55680364
353,1436966167580,0.1777618,0.090713486,0.54000485
354,1436966167601,0.18325958,0.040317107,0.47678033
355,1436966167618,0.204029,0.016187929,0.54519725
356,1436966167639,0.2284636,0.08735373,0.45998153
357,1436966167660,0.0693332,0.02321288,-0.66828656
358,1436966167679,0.21838433,-0.52503866,-2.1917844
359,1436966167698,0.1731803,-0.34238997,-0.786489
360,1436966167718,0.27091873,-0.22204952,-1.1808025
361,1436966167738,0.50946164,-0.6169739,-1.9755383
362,1436966167760,0.5152648,-0.70432764,-1.3063353
363,1436966167780,0.4071417,-0.46731192,-0.602924
364,1436966167804,0.3109304,-0.090713486,-0.4129449
365,1436966167820,0.15821409,0.3155119,-0.5045747
366,1436966167838,0.15485434,0.5149594,-0.23823744
367,1436966167858,0.16218472,0.43890667,0.08368854
368,1436966167878,0.17806722,0.2611449,0.30940324
369,1436966167900,0.21227567,-0.03390302,0.464563
370,1436966167918,0.16401732,-0.14110987,0.7632761
371,1436966167982,-0.0076358155,-0.0067195175,0.51159966
372,1436966167983,-0.059253927,0.00061086525,-0.008857546
373,1436966167984,-0.042760566,-0.042760566,-0.16218472
