id,attr_time,attr_x,attr_y,attr_z
1,1437154490045,-0.0106901415,0.03023783,-0.017104227
2,1437154490046,-0.0143553335,0.036651913,-0.015577064
3,1437154490047,-0.0125227375,0.036651913,-0.018325957
4,1437154490054,-0.0030543262,0.03573562,-0.029626964
5,1437154490074,-0.004276057,0.038789943,-0.021380283
6,1437154490095,-0.010079277,0.034513887,-0.015882496
7,1437154490113,-0.00580322,0.032070424,-0.031154128
8,1437154490136,-0.008246681,0.032375857,-0.03359759
9,1437154490153,-0.002443461,0.03604105,-0.026572637
10,1437154490173,-0.0061086523,0.03634648,-0.01985312
11,1437154490196,-0.008552114,0.029626964,-0.019242255
12,1437154490215,-0.0033597588,0.035124753,-0.02565634
13,1437154490235,-0.0015271631,0.033292156,-0.020463986
14,1437154490256,-0.01038471,0.029932396,-0.016493361
15,1437154490276,-0.0106901415,0.03145956,-0.020463986
16,1437154490296,-0.0030543262,0.030543262,-0.029321533
17,1437154490316,0.00030543262,0.032070424,-0.0290161
18,1437154490336,-0.0033597588,0.030543262,-0.01863139
19,1437154490356,-0.0036651916,0.025045475,-0.021991149
20,1437154490376,-0.0015271631,0.02687807,-0.024129177
21,1437154490396,-0.0009162979,0.032070424,-0.02321288
22,1437154490416,-0.005497787,0.027488936,-0.010995574
23,1437154490434,0.0009162979,0.026267206,-0.01282817
24,1437154490461,-0.005497787,0.031154128,-0.018325957
25,1437154490476,-0.0018325958,0.032070424,-0.019547688
26,1437154490495,-0.0021380284,0.032375857,-0.016187929
27,1437154490516,-0.0067195175,0.031154128,-0.016187929
28,1437154490535,-0.002443461,0.028405234,-0.021685716
29,1437154490556,0.00061086525,0.032986723,-0.022602014
30,1437154490577,-0.003970624,0.040011674,-0.01740966
31,1437154490596,-0.002443461,0.03726278,-0.02076942
32,1437154490616,-0.0036651916,0.025045475,-0.030543262
33,1437154490637,-0.009468411,0.026267206,-0.037873644
34,1437154490666,-0.004276057,0.03481932,-0.027794369
35,1437154490674,-0.012217305,0.030848695,-0.01985312
36,1437154490693,-0.008857546,0.03145956,-0.022907447
37,1437154490713,-0.0033597588,0.034513887,-0.027794369
38,1437154490746,-0.0067195175,0.035124753,-0.03604105
39,1437154490757,-0.0061086523,0.03390302,-0.027183503
40,1437154490774,-0.007330383,0.03145956,-0.020463986
41,1437154490794,-0.009468411,0.030543262,-0.016798794
42,1437154490814,-0.0067195175,0.023518313,-0.03604105
43,1437154490834,-0.004886922,0.028405234,-0.038789943
44,1437154490856,-0.0030543262,0.028710667,-0.026572637
45,1437154490873,-0.0076358155,0.02565634,-0.016187929
46,1437154490921,-0.0033597588,0.028099801,-0.02443461
47,1437154490922,-0.00030543262,0.028405234,-0.032375857
48,1437154490948,0.0012217305,0.032986723,-0.029626964
49,1437154490961,0.002443461,0.030543262,-0.029626964
50,1437154490974,-0.004581489,0.03023783,-0.021380283
51,1437154490998,0.007941248,0.02565634,-0.025350908
52,1437154491017,0.005497787,0.024129177,-0.025961773
53,1437154491037,0.0076358155,0.03023783,-0.028405234
54,1437154491057,-0.0009162979,0.029626964,-0.026572637
55,1437154491077,-0.0012217305,0.03359759,-0.015271631
56,1437154491097,-0.00061086525,0.023823744,-0.014660766
57,1437154491117,0.0061086523,0.022602014,-0.022907447
58,1437154491137,0.0030543262,0.026572637,-0.025961773
59,1437154491157,0.003970624,0.039095376,-0.02321288
60,1437154491175,0.00061086525,0.034208454,-0.0143553335
61,1437154491197,-0.0018325958,0.027794369,-0.010079277
62,1437154491217,-0.0018325958,0.027794369,-0.01863139
63,1437154491235,0.0015271631,0.03359759,-0.028710667
64,1437154491254,-0.0009162979,0.034513887,-0.032986723
65,1437154491275,-0.00030543262,0.035430185,-0.020158553
66,1437154491299,-0.004581489,0.02565634,-0.008246681
67,1437154491320,-0.0021380284,0.024129177,-0.01740966
68,1437154491340,0.0012217305,0.035430185,-0.024129177
69,1437154491357,0.0,0.03848451,-0.021380283
70,1437154491375,0.0009162979,0.03390302,-0.018020526
71,1437154491395,0.0009162979,0.025350908,-0.024129177
72,1437154491415,0.002443461,0.026267206,-0.031154128
73,1437154491435,-0.0030543262,0.030543262,-0.02076942
74,1437154491455,-0.0076358155,0.029932396,-0.026572637
75,1437154491526,-0.004276057,0.027488936,-0.03390302
76,1437154491527,-0.0009162979,0.03176499,-0.038179077
77,1437154491528,-0.004581489,0.029321533,-0.032375857
78,1437154491535,-0.007941248,0.03023783,-0.034513887
79,1437154491563,-0.008857546,0.027488936,-0.038179077
80,1437154491575,-0.008857546,0.03359759,-0.035430185
81,1437154491596,-0.005497787,0.033292156,-0.03390302
82,1437154491616,-0.00580322,0.0290161,-0.037873644
83,1437154491636,-0.0067195175,0.034208454,-0.03940081
84,1437154491655,-0.00580322,0.034513887,-0.046120327
85,1437154491676,-0.009468411,0.029932396,-0.052534413
86,1437154491698,-0.014049901,0.032375857,-0.059253927
87,1437154491717,-0.017104227,0.037873644,-0.059253927
88,1437154491738,-0.02076942,0.042455133,-0.049480084
89,1437154491757,-0.021991149,0.04184427,-0.04795292
90,1437154491779,-0.018020526,0.03848451,-0.046731193
91,1437154491798,-0.01985312,0.034208454,-0.04153884
92,1437154491818,-0.021380283,0.036651913,-0.0421497
93,1437154491835,-0.021685716,0.041233405,-0.028710667
94,1437154491855,-0.019242255,0.029932396,-0.023518313
95,1437154491875,-0.018325957,0.030848695,-0.025961773
96,1437154491926,-0.014660766,0.031154128,-0.029932396
97,1437154491928,-0.008857546,0.030543262,-0.029932396
98,1437154491938,-0.004581489,0.032070424,-0.03023783
99,1437154491956,0.0021380284,0.025045475,-0.03756821
100,1437154491976,0.004886922,0.031154128,-0.036957346
101,1437154491996,-0.004886922,0.035124753,-0.02076942
102,1437154492019,-0.0009162979,0.027488936,-0.018936822
103,1437154492037,-0.0012217305,0.023518313,-0.032375857
104,1437154492058,0.0030543262,0.024129177,-0.045814894
105,1437154492078,0.004886922,0.028405234,-0.038179077
106,1437154492096,0.004886922,0.025045475,-0.043676864
107,1437154492116,-0.0009162979,0.018936822,-0.051923547
108,1437154492136,-0.0027488936,0.023518313,-0.057421334
109,1437154492168,-0.003970624,0.028099801,-0.04550946
110,1437154492238,-0.0027488936,0.02076942,-0.04062254
111,1437154492239,-0.010079277,0.010079277,-0.05955936
112,1437154492240,-0.011301007,0.018936822,-0.07422013
113,1437154492241,-0.014049901,0.029321533,-0.0720821
114,1437154492255,-0.016187929,0.032986723,-0.06505715
115,1437154492276,-0.017104227,0.026572637,-0.08246681
116,1437154492295,-0.015882496,0.026267206,-0.10262536
117,1437154492315,-0.015577064,0.040011674,-0.100792766
118,1437154492338,-0.01282817,0.04337143,-0.07788532
119,1437154492356,-0.016798794,0.03726278,-0.06505715
120,1437154492377,-0.017104227,0.032070424,-0.06291912
121,1437154492397,-0.0106901415,0.03756821,-0.044593163
122,1437154492418,-0.01282817,0.032375857,-0.03726278
123,1437154492438,-0.01160644,0.02443461,-0.05467244
124,1437154492459,-0.0125227375,0.03359759,-0.0571159
125,1437154492479,-0.012217305,0.035430185,-0.04886922
126,1437154492498,-0.017104227,0.027794369,-0.05009095
127,1437154492518,-0.018936822,0.02443461,-0.058948494
128,1437154492538,-0.0143553335,0.028099801,-0.059864793
129,1437154492558,-0.01038471,0.022907447,-0.062308256
130,1437154492578,-0.004886922,0.0030543262,-0.07269296
131,1437154492598,0.0018325958,-0.0070249503,-0.07819075
132,1437154492616,0.014966198,-0.008857546,-0.086132
133,1437154492636,0.02107485,-0.030848695,-0.08460484
134,1437154492658,0.021380283,-0.051618114,-0.08124508
135,1437154492687,0.018936822,-0.056505036,-0.07544186
136,1437154492698,0.02443461,-0.05009095,-0.063224554
137,1437154492716,0.028405234,-0.03848451,-0.055283304
138,1437154492738,0.029626964,-0.03023783,-0.03970624
139,1437154492758,0.029932396,-0.04520403,-0.029321533
140,1437154492782,0.027794369,-0.044898596,-0.04337143
141,1437154492798,0.031154128,-0.010079277,-0.04062254
142,1437154492817,0.035430185,0.0027488936,-0.027488936
143,1437154492837,0.030848695,-0.008857546,-0.028710667
144,1437154492859,0.028099801,-0.006414085,-0.042760566
145,1437154492877,0.03390302,0.01863139,-0.03726278
146,1437154493030,0.031154128,0.016798794,-0.020158553
147,1437154493031,0.034208454,0.017104227,-0.014966198
148,1437154493032,0.03573562,0.02107485,-0.0125227375
149,1437154493033,0.042455133,0.031154128,-0.021380283
150,1437154493034,0.043982297,0.03390302,-0.02321288
151,1437154493035,0.042760566,0.038179077,-0.013133603
152,1437154493036,0.04886922,0.032070424,-0.0030543262
153,1437154493056,0.04795292,0.0061086523,-0.007330383
154,1437154493057,0.055588737,0.011911872,-0.0036651916
155,1437154493076,0.060170226,0.013133603,0.003970624
156,1437154493101,0.050396383,0.02321288,0.00061086525
157,1437154493116,0.052839845,0.05955936,0.00030543262
158,1437154493140,0.054367006,0.074830994,-0.00061086525
159,1437154493160,0.06047566,0.057726767,0.009162978
160,1437154493177,0.058643065,0.03359759,0.0030543262
161,1437154493198,0.06261369,0.030848695,-0.016187929
162,1437154493219,0.06811147,0.034208454,-0.021685716
163,1437154493239,0.06841691,0.04428773,-0.021685716
164,1437154493258,0.070249505,0.03756821,0.0
165,1437154493279,0.06352998,0.022296581,0.0125227375
166,1437154493299,0.06169739,0.015882496,0.008857546
167,1437154493319,0.06505715,0.013133603,0.011301007
168,1437154493339,0.062002823,0.008246681,0.015271631
169,1437154493360,0.060170226,-0.005192355,0.016187929
170,1437154493382,0.060170226,0.005497787,0.026572637
171,1437154493399,0.064751714,0.004581489,0.034208454
172,1437154493419,0.058337633,-0.0012217305,0.031154128
173,1437154493436,0.057421334,0.00061086525,0.029932396
174,1437154493457,0.051923547,0.004276057,0.02076942
175,1437154493477,0.04642576,0.005192355,0.017104227
176,1437154493501,0.048258353,0.0033597588,0.020158553
177,1437154493518,0.05222898,0.0015271631,0.02565634
178,1437154493546,0.047036625,-0.004886922,0.01863139
179,1437154493557,0.04428773,0.0009162979,0.01740966
180,1437154493581,0.03940081,0.0018325958,0.015577064
181,1437154493597,0.04184427,0.0021380284,0.015577064
182,1437154493620,0.041233405,0.0030543262,0.0106901415
183,1437154493637,0.040011674,-0.0012217305,0.01282817
184,1437154493707,0.039095376,0.0021380284,0.01985312
185,1437154493708,0.04062254,0.0076358155,0.025350908
186,1437154493709,0.035430185,-0.0009162979,0.014966198
187,1437154493727,0.0290161,-0.0009162979,0.009162978
188,1437154493736,0.029932396,0.006414085,0.01038471
189,1437154493759,0.023823744,0.014966198,0.011911872
190,1437154493778,0.020463986,0.018936822,0.015271631
191,1437154493798,0.022296581,0.016493361,0.008857546
192,1437154493818,0.019242255,0.0106901415,0.014966198
193,1437154493837,0.021685716,0.010995574,0.0125227375
194,1437154493858,0.015271631,0.010995574,0.00061086525
195,1437154493878,0.016187929,0.013439035,-0.0067195175
196,1437154493898,0.018325957,0.022907447,-0.00580322
197,1437154493918,0.011911872,0.027488936,-0.010079277
198,1437154493940,0.019242255,0.03145956,-0.020463986
199,1437154493960,0.0143553335,0.028710667,-0.03848451
200,1437154493978,0.015271631,0.03756821,-0.036651913
201,1437154493999,0.00580322,0.03145956,-0.008552114
202,1437154494020,0.008552114,0.02443461,-0.004276057
203,1437154494040,0.013133603,0.021991149,-0.0018325958
204,1437154494060,0.015882496,0.025350908,-0.0106901415
205,1437154494078,0.013744468,0.024129177,-0.0125227375
206,1437154494100,0.007941248,0.027183503,-0.011911872
207,1437154494120,0.008246681,0.018325957,-0.0009162979
208,1437154494140,0.0061086523,0.015271631,-0.004276057
209,1437154494160,0.002443461,0.01863139,-0.008246681
210,1437154494177,0.0009162979,0.023518313,-0.013744468
211,1437154494199,-0.0027488936,0.024740042,-0.014966198
212,1437154494219,0.005497787,0.027183503,-0.01740966
213,1437154494239,-0.0015271631,0.03176499,-0.009162978
214,1437154494259,-0.0015271631,0.035124753,-0.0033597588
215,1437154494279,-0.007330383,0.041233405,-0.0061086523
216,1437154494300,-0.011301007,0.038179077,-0.0106901415
217,1437154494317,-0.005497787,0.038179077,-0.024740042
218,1437154494338,-0.0030543262,0.038179077,-0.027794369
219,1437154494358,-0.008246681,0.038179077,-0.020158553
220,1437154494430,-0.01740966,0.03481932,-0.0125227375
221,1437154494443,-0.01863139,0.03604105,-0.010995574
222,1437154494444,-0.0125227375,0.032375857,-0.020158553
223,1437154494445,-0.014660766,0.029932396,-0.023518313
224,1437154494457,-0.017104227,0.03145956,-0.024740042
225,1437154494481,-0.0106901415,0.033292156,-0.020463986
226,1437154494498,-0.013744468,0.038789943,-0.010995574
227,1437154494529,-0.014660766,0.035430185,-0.005497787
228,1437154494537,-0.016493361,0.03481932,-0.015271631
229,1437154494558,-0.012217305,0.03145956,-0.019242255
230,1437154494605,-0.016798794,0.03176499,-0.013439035
231,1437154494606,-0.018020526,0.03145956,-0.0070249503
232,1437154494618,-0.01863139,0.032375857,-0.0061086523
233,1437154494641,-0.0125227375,0.03573562,-0.006414085
234,1437154494659,-0.014660766,0.03481932,-0.008552114
235,1437154494677,-0.016798794,0.03268129,-0.015577064
236,1437154494697,-0.0125227375,0.03726278,-0.01740966
237,1437154494717,-0.014660766,0.035124753,-0.011301007
238,1437154494737,-0.0106901415,0.03481932,-0.011301007
239,1437154494757,-0.005497787,0.029626964,-0.020158553
240,1437154494777,-0.0021380284,0.042760566,-0.025961773
241,1437154494801,-0.014966198,0.042760566,-0.009468411
242,1437154494816,-0.020463986,0.040011674,-0.01863139
243,1437154494837,-0.013439035,0.040927973,-0.029932396
244,1437154494858,-0.0067195175,0.03940081,-0.03756821
245,1437154494878,-0.0061086523,0.032986723,-0.02687807
246,1437154494898,-0.009773844,0.037873644,-0.023518313
247,1437154494918,-0.009162978,0.037873644,-0.024740042
248,1437154494938,-0.0061086523,0.038789943,-0.027488936
249,1437154494958,-0.0018325958,0.038179077,-0.0290161
250,1437154494978,-0.0018325958,0.03970624,-0.021380283
251,1437154494996,-0.009773844,0.03848451,-0.012217305
252,1437154495017,-0.013133603,0.040317107,-0.013439035
253,1437154495037,-0.006414085,0.038179077,-0.020463986
254,1437154495059,-0.004276057,0.034208454,-0.02687807
255,1437154495103,-0.004886922,0.037873644,-0.02076942
256,1437154495104,-0.0061086523,0.033292156,-0.008246681
257,1437154495117,-0.00580322,0.029321533,-0.004886922
258,1437154495140,-0.00030543262,0.03023783,-0.0021380284
259,1437154495157,-0.0036651916,0.03023783,-0.0009162979
260,1437154495179,-0.007941248,0.025350908,-0.0018325958
261,1437154495199,-0.0018325958,0.017104227,0.0012217305
262,1437154495217,0.0015271631,0.021991149,0.00580322
263,1437154495237,-0.003970624,0.023518313,0.017715093
264,1437154495261,-0.004276057,0.022296581,0.010995574
265,1437154495281,-0.007330383,0.025350908,0.0070249503
266,1437154495298,-0.0021380284,0.028710667,-0.0033597588
267,1437154495318,-0.0033597588,0.028710667,-0.004581489
268,1437154495341,-0.0036651916,0.028099801,-0.00061086525
269,1437154495363,-0.004581489,0.029321533,0.009468411
270,1437154495378,-0.008246681,0.03848451,0.013133603
271,1437154495399,-0.005192355,0.036651913,0.0143553335
272,1437154495421,0.003970624,0.03604105,0.008552114
273,1437154495441,0.00061086525,0.040011674,0.008246681
274,1437154495459,0.0,0.030848695,0.0061086523
275,1437154495481,-0.003970624,0.03023783,0.0106901415
276,1437154495499,-0.006414085,0.029321533,0.0125227375
277,1437154495533,-0.0070249503,0.026267206,-0.00030543262
278,1437154495538,-0.0030543262,0.030848695,-0.003970624
279,1437154495566,0.0,0.033292156,-0.00061086525
280,1437154495578,-0.003970624,0.027488936,0.0027488936
281,1437154495598,-0.005192355,0.027488936,0.0021380284
282,1437154495618,-0.0033597588,0.038179077,0.0027488936
283,1437154495638,0.0015271631,0.036957346,0.0061086523
284,1437154495658,-0.0009162979,0.03359759,0.015882496
285,1437154495678,-0.0033597588,0.030543262,0.012217305
286,1437154495698,-0.005497787,0.029321533,0.005497787
287,1437154495718,-0.009162978,0.032070424,0.0070249503
288,1437154495738,-0.006414085,0.035124753,0.01282817
289,1437154495758,-0.0076358155,0.03481932,0.011911872
290,1437154495785,-0.0067195175,0.026572637,0.008857546
291,1437154495798,-0.008857546,0.021991149,-0.005192355
292,1437154495819,-0.011301007,0.02076942,-0.0015271631
293,1437154495838,-0.0076358155,0.03359759,0.01038471
294,1437154495858,-0.011301007,0.027183503,0.007330383
295,1437154495882,-0.009468411,0.036957346,0.0027488936
296,1437154495898,-0.0036651916,0.038789943,0.004886922
297,1437154495918,-0.0018325958,0.036957346,0.0021380284
298,1437154495938,-0.0076358155,0.0290161,-0.006414085
299,1437154495958,-0.013439035,0.034513887,-0.013439035
300,1437154495978,-0.008857546,0.04337143,-0.0070249503
301,1437154495998,-0.00580322,0.041233405,0.013744468
302,1437154496018,-0.004581489,0.032070424,0.014049901
303,1437154496038,-0.0061086523,0.024129177,0.0
304,1437154496058,-0.0067195175,0.029932396,-0.00580322
305,1437154496079,-0.004581489,0.039095376,-0.0036651916
306,1437154496098,-0.0070249503,0.03481932,0.00061086525
307,1437154496121,-0.008246681,0.03268129,-0.004581489
308,1437154496142,-0.0076358155,0.03359759,-0.005192355
309,1437154496165,-0.015882496,0.03604105,-0.009468411
310,1437154496182,-0.004581489,0.034208454,-0.01985312
311,1437154496199,-0.011911872,0.035124753,-0.020463986
312,1437154496221,-0.01160644,0.03176499,-0.0009162979
313,1437154496248,-0.01740966,0.03176499,0.0012217305
314,1437154496260,-0.0106901415,0.028405234,-0.0061086523
315,1437154496278,-0.015271631,0.03726278,-0.0036651916
316,1437154496299,-0.014966198,0.03573562,-0.0021380284
317,1437154496319,-0.01863139,0.03604105,-0.0143553335
318,1437154496341,-0.017104227,0.03604105,-0.025350908
319,1437154496366,-0.012217305,0.046120327,-0.01863139
320,1437154496384,-0.014660766,0.040927973,-0.0015271631
321,1437154496400,-0.011301007,0.030848695,-0.012217305
322,1437154496429,-0.0027488936,0.026572637,-0.02443461
323,1437154496528,-0.0021380284,0.03481932,-0.027488936
324,1437154496529,-0.013439035,0.040317107,-0.013744468
325,1437154496530,-0.013744468,0.0421497,-0.008857546
326,1437154496531,-0.0061086523,0.03726278,-0.026267206
327,1437154496532,-0.0027488936,0.032070424,-0.03940081
328,1437154496541,-0.0018325958,0.03145956,-0.036957346
329,1437154496564,-0.003970624,0.0290161,-0.024129177
330,1437154496579,-0.0015271631,0.024129177,-0.0421497
331,1437154496603,0.0030543262,0.025350908,-0.04428773
332,1437154496632,0.0015271631,0.027794369,-0.050701816
333,1437154496649,-0.0018325958,0.028710667,-0.04153884
334,1437154496659,-0.010079277,0.027183503,-0.044593163
335,1437154496679,-0.006414085,0.028099801,-0.043982297
336,1437154496699,-0.00580322,0.0290161,-0.044593163
337,1437154496720,-0.005192355,0.03023783,-0.027794369
338,1437154496741,-0.0125227375,0.03970624,-0.021685716
339,1437154496761,-0.013439035,0.03756821,-0.02565634
340,1437154496781,-0.023823744,0.04428773,-0.016187929
341,1437154496803,-0.020463986,0.04153884,-0.022296581
342,1437154496823,-0.017104227,0.040317107,-0.038179077
343,1437154496842,-0.02443461,0.042760566,-0.03573562
344,1437154496863,-0.02321288,0.03390302,-0.034513887
345,1437154496883,-0.022602014,0.03268129,-0.03176499
346,1437154496902,-0.019547688,0.030543262,-0.036957346
347,1437154496920,-0.017715093,0.01985312,-0.056199603
348,1437154496943,-0.016798794,0.024740042,-0.05589417
349,1437154496959,-0.01282817,0.035430185,-0.04062254
350,1437154496987,-0.014660766,0.032375857,-0.04153884
351,1437154496999,-0.0106901415,0.038789943,-0.044593163
352,1437154497019,-0.0125227375,0.03940081,-0.046120327
353,1437154497041,-0.010079277,0.03390302,-0.04428773
354,1437154497062,-0.01160644,0.03268129,-0.042455133
355,1437154497082,-0.014049901,0.029932396,-0.046120327
356,1437154497100,-0.006414085,0.042760566,-0.03390302
357,1437154497120,-0.007330383,0.03848451,-0.020463986
358,1437154497140,-0.006414085,0.034513887,-0.022907447
359,1437154497161,-0.0067195175,0.03145956,-0.025045475
360,1437154497183,-0.008246681,0.03634648,-0.020158553
361,1437154497259,-0.010079277,0.034208454,-0.012217305
362,1437154497260,-0.008552114,0.03634648,-0.011911872
