id,attr_time,attr_x,attr_y,attr_z
1,1437154490053,-0.0433655,-0.0057373,0.0236816
2,1437154490074,-0.011322,-0.021759,-0.00195312
3,1437154490094,0.000427246,-0.0238953,-0.0307922
4,1437154490112,0.0271301,-0.00894165,-0.0211792
5,1437154490133,0.0100403,-0.00787353,-0.0318604
6,1437154490153,-0.00598145,-0.0377808,-0.0233154
7,1437154490172,-0.00811768,-0.0356445,-0.0307922
8,1437154490192,-0.0134583,-0.0249634,-0.0243835
9,1437154490212,-0.0519104,-0.0270996,-0.0339966
10,1437154490231,-0.057251,-0.0441895,-0.0275879
11,1437154490252,-0.0348206,-0.0206909,-0.00942993
12,1437154490271,-0.0412292,0.0166931,-0.00195312
13,1437154490291,-0.0722046,-0.012146,0.00445557
14,1437154490311,-0.0839539,-0.0281677,0.00765991
15,1437154490331,-0.0722046,-0.00787353,0.0108643
16,1437154490350,-0.0647278,-0.0185547,0.00445557
17,1437154490369,-0.0487061,-0.0388489,-0.0115662
18,1437154490390,-0.00384521,-0.0110779,-0.0158386
19,1437154490410,0.0271301,0.0209656,-0.0126343
20,1437154490430,0.0185852,0.015625,-0.00622559
21,1437154490449,-0.00704956,-0.0335083,-0.0222473
22,1437154490469,0.00790405,-0.021759,-0.0275879
23,1437154490489,0.0431519,0.0134888,-0.0265198
24,1437154490506,0.0431519,0.0198975,-0.0265198
25,1437154490528,0.0143127,0.00387573,-0.0072937
26,1437154490547,-0.0230713,-0.000396729,0.00125122
27,1437154490567,-0.0326843,0.0017395,0.00979614
28,1437154490587,-0.0337524,0.00601196,0.00552368
29,1437154490607,-0.0166626,0.00921631,0.00552368
30,1437154490627,0.00469971,0.0284424,0.00125122
31,1437154490646,0.00256348,0.0188293,0.00338745
32,1437154490666,-0.0145264,0.0166931,-0.00622559
33,1437154490685,-0.00170898,0.0124207,0.00979614
34,1437154490706,0.0121765,0.0263062,0.0130005
35,1437154490726,-0.00384521,0.00814819,0.0119324
36,1437154490745,-0.011322,-0.0132141,0.00125122
37,1437154490765,0.000427246,-0.00787353,0.0065918
38,1437154490785,0.0143127,0.0134888,-0.00088501
39,1437154490804,0.016449,-0.0100098,-0.00195312
40,1437154490822,0.00256348,0.0145569,-0.0222473
41,1437154490843,0.0346069,0.0166931,-0.0158386
42,1437154490862,0.0324707,0.0102844,-0.00195312
43,1437154490883,-0.0027771,0.00494385,0.0065918
44,1437154490903,-0.0422974,-0.0238953,-0.00088501
45,1437154490922,-0.0380249,-0.0313721,-0.00408936
46,1437154490943,0.0100403,-0.00680542,-0.00408936
47,1437154490963,0.035675,0.0177612,0.000183105
48,1437154490982,0.0121765,0.0102844,-0.00622559
49,1437154491001,-0.0102539,-0.0164185,-0.00515747
50,1437154491021,-0.0166626,-0.00894165,-0.00302124
51,1437154491040,-0.0209351,0.00280762,-0.00942993
52,1437154491062,-0.00704956,-0.00253296,-0.00622559
53,1437154491081,0.00256348,0.0241699,-0.00195312
54,1437154491101,-0.0145264,0.0166931,-0.00302124
55,1437154491120,-0.0166626,0.000671387,-0.010498
56,1437154491139,0.0100403,0.0102844,-0.00942993
57,1437154491160,0.0239258,0.0295105,-0.0137024
58,1437154491179,0.0228577,0.0284424,-0.0179749
59,1437154491199,0.0185852,0.033783,-0.00942993
60,1437154491219,0.0143127,0.0220337,0.00125122
61,1437154491239,0.0111084,0.0134888,0.00125122
62,1437154491259,0.0132446,0.0188293,-0.00515747
63,1437154491278,0.0153809,0.0305786,-0.00088501
64,1437154491298,0.0207214,0.0263062,-0.00088501
65,1437154491316,0.0249939,0.015625,0.00125122
66,1437154491338,0.0100403,0.0209656,-0.00088501
67,1437154491357,0.000427246,0.00814819,-0.00836182
68,1437154491377,0.00683594,0.0231018,-0.010498
69,1437154491397,0.0495605,0.043396,-0.00515747
70,1437154491417,0.0527649,0.0391235,0.0140686
71,1437154491436,-0.00918579,0.0134888,0.0065918
72,1437154491456,-0.0465698,-0.0260315,0.000183105
73,1437154491476,-0.0102539,-0.012146,0.00338745
74,1437154491495,0.0303345,0.0273743,0.00445557
75,1437154491515,0.0324707,0.0220337,0.00445557
76,1437154491534,0.0143127,-0.0057373,-0.00088501
77,1437154491555,0.0111084,-0.00360107,0.00765991
78,1437154491575,0.00790405,0.00494385,0.00765991
79,1437154491594,0.00256348,-0.00253296,0.00125122
80,1437154491614,0.0249939,0.0017395,0.000183105
81,1437154491632,0.026062,0.0113525,0.00552368
82,1437154491654,-0.00491333,-0.00360107,0.00231934
83,1437154491672,-0.00811768,-0.0196228,0.00338745
84,1437154491693,0.0111084,0.0017395,0.0140686
85,1437154491713,0.0292664,0.0102844,0.00445557
86,1437154491733,0.0388794,-0.0057373,0.000183105
87,1437154491753,0.0388794,0.00387573,-0.0147705
88,1437154491772,0.0378113,0.00280762,-0.00836182
89,1437154491792,0.0175171,-0.0142822,-0.00836182
90,1437154491809,0.0175171,-0.0153503,0.000183105
91,1437154491831,0.0314026,0.0017395,0.0065918
92,1437154491849,0.0335388,0.0113525,0.00338745
93,1437154491871,0.0303345,-0.00680542,0.00125122
94,1437154491891,0.0303345,-0.000396729,-0.00408936
95,1437154491910,0.0431519,-0.00146484,-0.00088501
96,1437154491929,0.0217896,-0.00146484,-0.00942993
97,1437154491949,0.0196533,0.0017395,-0.0222473
98,1437154491969,0.0506287,-0.0142822,-0.0072937
99,1437154491991,0.0559692,-0.0142822,0.00872803
100,1437154492009,0.0132446,-0.0196228,0.0140686
101,1437154492029,-0.0380249,-0.0591431,0.0322266
102,1437154492049,-0.0401611,-0.0719604,0.0535889
103,1437154492068,0.0410156,-0.0612793,0.0941772
104,1437154492088,0.0751953,-0.0260315,0.128357
105,1437154492107,0.0602417,-0.0420532,0.133698
106,1437154492126,0.0549011,-0.067688,0.125153
107,1437154492147,0.0623779,-0.0409851,0.106995
108,1437154492166,0.0677185,-0.0292358,0.0770874
109,1437154492186,0.053833,-0.0527344,0.054657
110,1437154492206,0.0378113,-0.0666199,0.0354309
111,1437154492226,0.04422,-0.0484619,0.0300903
112,1437154492246,0.0228577,-0.0623474,0.0279541
113,1437154492266,-0.00491333,-0.0837097,0.0354309
114,1437154492286,0.0153809,-0.0890503,0.0397034
115,1437154492305,0.0292664,-0.0837097,0.0407715
116,1437154492325,0.0121765,-0.0644836,0.0119324
117,1437154492344,-0.0027771,-0.0473938,0.00231934
118,1437154492364,0.016449,-0.0260315,0.0119324
119,1437154492384,0.0666504,0.00921631,0.0354309
120,1437154492404,0.102966,0.0444641,0.0856323
121,1437154492424,0.0965576,0.0487366,0.11554
122,1437154492441,0.071991,0.0305786,0.131561
123,1437154492463,0.0196533,0.0231018,0.105927
124,1437154492485,0.00363159,0.0220337,0.0653381
125,1437154492503,0.0431519,0.0647583,0.0151367
126,1437154492522,0.112579,0.122437,-0.0072937
127,1437154492542,0.137146,0.149139,-0.0243835
128,1437154492562,0.112579,0.126709,-0.0169067
129,1437154492582,0.0602417,0.0914612,-0.0350647
130,1437154492601,0.0175171,0.0679626,-0.0489502
131,1437154492619,-0.0209351,0.0444641,-0.0809937
132,1437154492641,-0.0401611,0.0209656,-0.10556
133,1437154492660,-0.0465698,0.025238,-0.130127
134,1437154492681,-0.0455017,-0.000396729,-0.127991
135,1437154492700,-0.0561829,-0.021759,-0.126923
136,1437154492720,-0.0807495,-0.0249634,-0.119446
137,1437154492740,-0.0999756,-0.0484619,-0.101288
138,1437154492758,-0.10318,-0.039917,-0.0671082
139,1437154492779,-0.0764771,-0.0367126,-0.0222473
140,1437154492799,-0.0401611,-0.0377808,0.0311584
141,1437154492819,-0.0273438,-0.0335083,0.0493164
142,1437154492838,-0.0198669,-0.0153503,0.0578613
143,1437154492857,-0.0177307,-0.00253296,0.0482483
144,1437154492877,-0.0209351,0.00601196,0.0375671
145,1437154492898,-0.0166626,0.0145569,0.0343628
146,1437154492918,-0.011322,0.0241699,0.0397034
147,1437154492936,-0.0027771,0.0359192,0.0354309
148,1437154492957,0.0111084,0.0476685,0.036499
149,1437154492976,0.0143127,0.061554,0.0226135
150,1437154492996,0.0196533,0.061554,0.0151367
151,1437154493016,0.0217896,0.0647583,0.0108643
152,1437154493036,0.00897217,0.0668945,0.00125122
153,1437154493055,0.0196533,0.0797119,-0.00515747
154,1437154493075,0.0527649,0.0679626,-0.00515747
155,1437154493095,0.0687866,0.0572815,-0.00515747
156,1437154493114,0.0388794,0.0455322,-0.00515747
157,1437154493135,-0.00384521,0.0231018,-0.0275879
158,1437154493153,-0.0027771,-0.000396729,-0.0318604
159,1437154493174,0.0207214,0.0177612,-0.0446777
160,1437154493193,0.0367432,0.0166931,-0.0574951
161,1437154493214,0.00469971,0.00387573,-0.0713806
162,1437154493233,-0.0220032,-0.00894165,-0.0639038
163,1437154493251,-0.0123901,-0.00360107,-0.0553589
164,1437154493272,0.0100403,-0.00466919,-0.0361328
165,1437154493292,0.0303345,-0.00466919,-0.0307922
166,1437154493313,0.0292664,0.00601196,-0.0350647
167,1437154493331,0.0100403,-0.00253296,-0.0307922
168,1437154493352,0.00256348,-0.00787353,-0.0222473
169,1437154493372,0.0143127,-0.00360107,-0.0115662
170,1437154493391,0.0143127,-0.0132141,0.00338745
171,1437154493411,0.0143127,-0.0174866,0.00231934
172,1437154493429,0.0175171,-0.0153503,0.00231934
173,1437154493450,-0.011322,-0.0238953,-0.00088501
174,1437154493469,-0.039093,-0.0527344,0.00445557
175,1437154493490,-0.0465698,-0.0623474,0.0140686
176,1437154493509,-0.0305481,-0.058075,0.0290222
177,1437154493530,-0.0273438,-0.0548706,0.0397034
178,1437154493549,-0.0433655,-0.0708923,0.0397034
179,1437154493569,-0.0679321,-0.0783691,0.0343628
180,1437154493589,-0.0786133,-0.0826416,0.0215454
181,1437154493608,-0.0722046,-0.0708923,0.0140686
182,1437154493628,-0.0636597,-0.0527344,0.00338745
183,1437154493648,-0.0561829,-0.0634155,0.0279541
184,1437154493668,-0.0690002,-0.0740967,0.0514526
185,1437154493687,-0.0700684,-0.0879822,0.0717468
186,1437154493708,-0.0647278,-0.0794373,0.0728149
187,1437154493727,-0.0593872,-0.0591431,0.0749512
188,1437154493744,-0.0593872,-0.0548706,0.0696106
189,1437154493767,-0.0508423,-0.0644836,0.0877686
190,1437154493785,-0.0422974,-0.0516663,0.0834961
191,1437154493806,-0.0230713,-0.04953,0.0899048
192,1437154493826,-0.0198669,-0.0292358,0.0664062
193,1437154493845,-0.0284119,-0.0270996,0.0471802
194,1437154493865,-0.0337524,-0.0206909,0.0375671
195,1437154493885,-0.0348206,-0.0196228,0.0397034
196,1437154493905,-0.0187988,-0.00894165,0.0386353
197,1437154493924,0.00256348,0.0017395,0.0375671
198,1437154493945,0.000427246,0.00814819,0.0226135
199,1437154493963,-0.00384521,0.00387573,0.00552368
200,1437154493984,0.00576782,0.0188293,-0.0072937
201,1437154494004,0.000427246,0.0273743,-0.0243835
202,1437154494023,0.000427246,0.0124207,-0.0233154
203,1437154494043,0.00149536,0.00601196,-0.0404053
204,1437154494061,0.0249939,0.0209656,-0.0532227
205,1437154494082,0.0239258,0.0305786,-0.0639038
206,1437154494101,-0.000640869,0.00708008,-0.0692444
207,1437154494121,-0.0102539,-0.0153503,-0.074585
208,1437154494144,-0.0102539,-0.0228271,-0.0820618
209,1437154494161,-0.0187988,-0.0249634,-0.103424
210,1437154494180,-0.0209351,-0.0206909,-0.12265
211,1437154494201,-0.00384521,-0.0249634,-0.124786
212,1437154494221,0.00790405,-0.0409851,-0.101288
213,1437154494241,-0.0230713,-0.067688,-0.0799255
214,1437154494260,-0.0519104,-0.101868,-0.0617676
215,1437154494279,-0.0465698,-0.102936,-0.056427
216,1437154494299,-0.0166626,-0.0740967,-0.0532227
217,1437154494320,0.00790405,-0.0559387,-0.0478821
218,1437154494340,0.0153809,-0.0484619,-0.0436096
219,1437154494359,0.00897217,-0.067688,-0.0233154
220,1437154494379,-0.0027771,-0.0708923,-0.00836182
221,1437154494398,-0.0134583,-0.0505981,-0.00408936
222,1437154494418,-0.0123901,-0.0505981,0.00552368
223,1437154494439,-0.0145264,-0.0591431,-0.00195312
224,1437154494457,-0.0166626,-0.0484619,-0.0254517
225,1437154494477,-0.02948,-0.0324402,-0.0414734
226,1437154494497,-0.0540466,-0.0238953,-0.0553589
227,1437154494516,-0.0561829,-0.0142822,-0.0372009
228,1437154494537,-0.0369568,-0.0100098,-0.0126343
229,1437154494554,-0.0284119,-0.0174866,0.0162048
230,1437154494576,-0.0529785,-0.00680542,0.0065918
231,1437154494595,-0.0657959,-0.00253296,0.00125122
232,1437154494616,-0.0775452,0.0241699,-0.019043
233,1437154494636,-0.0615234,0.033783,-0.00836182
234,1437154494655,-0.0455017,0.0401917,0.00445557
235,1437154494675,-0.0487061,0.0305786,0.0204773
236,1437154494694,-0.0551147,0.0444641,0.0226135
237,1437154494714,-0.0551147,0.0636902,0.0140686
238,1437154494736,-0.0593872,0.071167,0.00338745
239,1437154494754,-0.0433655,0.0690308,-0.0072937
240,1437154494773,-0.0252075,0.0562134,-0.00622559
241,1437154494793,-0.0433655,0.0401917,-0.00088501
242,1437154494813,-0.0892944,0.0166931,-0.0072937
243,1437154494836,-0.102112,-0.000396729,-0.00408936
244,1437154494849,-0.0839539,0.0017395,-0.00622559
245,1437154494872,-0.0604553,0.00708008,-0.00302124
246,1437154494892,-0.0540466,0.000671387,-0.00836182
247,1437154494912,-0.0647278,-0.00787353,-0.010498
248,1437154494931,-0.066864,-0.00894165,-0.00622559
249,1437154494952,-0.0722046,-0.00680542,-0.00622559
250,1437154494971,-0.0625915,-0.0142822,-0.0072937
251,1437154494991,-0.0529785,-0.0142822,-0.00515747
252,1437154495011,-0.0465698,0.0124207,-0.0179749
253,1437154495030,-0.0369568,0.0124207,-0.0179749
254,1437154495049,-0.0316162,0.00921631,-0.0211792
255,1437154495070,-0.0305481,0.015625,-0.0307922
256,1437154495089,-0.0422974,0.015625,-0.0275879
257,1437154495109,-0.0519104,0.0134888,-0.0318604
258,1437154495129,-0.0380249,0.0220337,-0.0275879
259,1437154495149,-0.0273438,0.0284424,-0.0233154
260,1437154495169,-0.0230713,0.0327148,-0.0179749
261,1437154495188,-0.0252075,0.0241699,-0.0126343
262,1437154495209,-0.02948,0.033783,-0.00836182
263,1437154495228,-0.0166626,0.0348511,-0.00195312
264,1437154495248,0.00469971,0.0348511,0.00979614
265,1437154495267,0.00363159,0.0295105,0.00445557
266,1437154495287,-0.0273438,0.0220337,-0.010498
267,1437154495307,-0.0262756,0.0220337,-0.0233154
268,1437154495327,0.00897217,0.0241699,-0.0158386
269,1437154495346,0.0143127,0.0177612,-0.00088501
270,1437154495364,-0.00704956,-0.0110779,0.0108643
271,1437154495386,-0.0241394,-0.030304,0.00765991
272,1437154495405,-0.0209351,-0.0174866,-0.00195312
273,1437154495425,0.00897217,0.0017395,-0.00515747
274,1437154495445,0.0292664,0.00921631,-0.00515747
275,1437154495465,0.0196533,-0.00146484,0.000183105
276,1437154495485,-0.0027771,-0.0174866,0.00338745
277,1437154495505,-0.00918579,-0.00787353,0.00765991
278,1437154495523,0.00469971,0.00494385,0.0108643
279,1437154495542,0.0185852,0.00387573,0.0226135
280,1437154495564,0.0207214,0.0188293,0.0204773
281,1437154495582,0.0249939,0.0231018,0.0247498
282,1437154495603,0.0271301,0.0241699,0.0226135
283,1437154495623,0.0196533,0.0188293,0.0258179
284,1437154495643,0.0185852,0.0145569,0.0162048
285,1437154495662,0.026062,0.0220337,0.0119324
286,1437154495681,0.0249939,0.0305786,0.00445557
287,1437154495702,0.0100403,0.0273743,0.00231934
288,1437154495721,0.00683594,0.0145569,0.0119324
289,1437154495741,0.0303345,0.00814819,0.0204773
290,1437154495761,0.0410156,0.0241699,0.0172729
291,1437154495781,0.0292664,0.0231018,0.000183105
292,1437154495801,0.00683594,0.0102844,-0.0126343
293,1437154495820,-0.00384521,-0.000396729,-0.0126343
294,1437154495840,-0.000640869,0.0017395,-0.0115662
295,1437154495859,0.0207214,0.015625,-0.010498
296,1437154495880,0.0570374,0.0198975,-0.00302124
297,1437154495898,0.0687866,0.0263062,0.00872803
298,1437154495918,0.0303345,0.0102844,0.00872803
299,1437154495939,-0.00491333,-0.0228271,-0.0072937
300,1437154495959,-0.00811768,-0.030304,-0.019043
301,1437154495978,0.0111084,-0.00360107,-0.0361328
302,1437154495998,0.0346069,0.00601196,-0.0318604
303,1437154496018,0.0185852,-0.0057373,-0.0243835
304,1437154496038,-0.00811768,-0.0249634,-0.010498
305,1437154496057,-0.00918579,-0.0142822,0.000183105
306,1437154496076,0.0143127,-0.00894165,0.00231934
307,1437154496097,0.0399475,0.00494385,0.000183105
308,1437154496116,0.035675,0.0188293,-0.00836182
309,1437154496137,-0.000640869,0.00387573,-0.0072937
310,1437154496156,-0.0102539,-0.0132141,0.000183105
311,1437154496174,0.00790405,-0.00146484,0.0119324
312,1437154496194,0.035675,0.0198975,0.0194092
313,1437154496215,0.0249939,0.0113525,0.0183411
314,1437154496235,-0.00384521,-0.00466919,0.00765991
315,1437154496255,-0.0198669,-0.00466919,0.0065918
316,1437154496274,-0.00811768,0.0124207,0.00445557
317,1437154496294,0.0228577,0.0102844,0.00979614
318,1437154496314,0.0228577,0.0241699,0.00872803
319,1437154496334,0.00683594,0.0166931,0.00872803
320,1437154496352,-0.0198669,0.00708008,-0.00302124
321,1437154496373,-0.0134583,0.0145569,-0.00302124
322,1437154496392,0.00469971,0.0295105,-0.00622559
323,1437154496413,0.0132446,0.0444641,-0.0126343
324,1437154496433,0.0239258,0.0284424,-0.00836182
325,1437154496452,0.0239258,0.0166931,0.00125122
326,1437154496472,0.0121765,0.0295105,0.0065918
327,1437154496491,0.00256348,0.0145569,0.00445557
328,1437154496511,0.0100403,-0.00146484,0.00552368
329,1437154496531,0.0271301,0.0209656,-0.00195312
330,1437154496551,0.0452881,0.0284424,0.00765991
331,1437154496571,0.0324707,0.00601196,0.00979614
332,1437154496591,0.00683594,-0.0174866,0.00872803
333,1437154496610,-0.0027771,-0.0164185,0.00338745
334,1437154496630,0.000427246,-0.0153503,-0.0072937
335,1437154496650,0.026062,-0.00680542,-0.00088501
336,1437154496668,0.0335388,-0.0110779,0.00872803
337,1437154496689,0.0153809,-0.0345764,0.0151367
338,1437154496708,0.00149536,-0.0463257,0.00765991
339,1437154496729,0.00790405,-0.0431213,0.00125122
340,1437154496749,0.0207214,-0.0324402,-0.010498
341,1437154496768,0.0346069,-0.0270996,-0.00836182
342,1437154496788,0.0271301,-0.0356445,0.00552368
343,1437154496808,0.00576782,-0.0473938,0.0119324
344,1437154496828,0.00576782,-0.0516663,0.0236816
345,1437154496846,0.016449,-0.0388489,0.0204773
346,1437154496867,0.0249939,-0.0228271,0.0236816
347,1437154496885,0.0271301,-0.0185547,0.0162048
348,1437154496906,0.0121765,-0.021759,0.0247498
349,1437154496925,0.0100403,-0.00680542,0.0172729
350,1437154496946,0.0175171,0.00387573,0.0119324
351,1437154496966,0.0281982,0.0220337,-0.00302124
352,1437154496984,0.0463562,0.0273743,-0.0115662
353,1437154497006,0.0378113,0.00921631,-0.0169067
354,1437154497024,-0.000640869,-0.012146,-0.0243835
355,1437154497045,-0.0252075,-0.00894165,-0.0339966
356,1437154497065,-0.0134583,0.000671387,-0.0297241
357,1437154497084,0.016449,0.0198975,-0.0211792
358,1437154497103,0.0399475,0.0231018,-0.010498
359,1437154497124,0.0239258,-0.00146484,-0.00408936
360,1437154497143,-0.00811768,-0.0132141,-0.00088501
361,1437154497160,-0.0177307,0.000671387,-0.0126343
362,1437154497182,-0.00918579,0.0017395,-0.00942993
363,1437154497202,0.016449,0.0102844,-0.00302124
364,1437154497222,0.0281982,0.0198975,0.0108643
365,1437154497242,0.016449,0.00921631,0.0162048
366,1437154497262,0.00576782,0.0166931,0.0108643
367,1437154497282,0.0111084,0.0295105,0.0172729
368,1437154497302,0.00469971,0.0241699,0.0226135
369,1437154497321,0.00576782,0.0198975,0.0311584
370,1437154497340,0.00363159,0.0198975,0.0429077
371,1437154497360,-0.0134583,0.0145569,0.0418396
372,1437154497381,-0.02948,0.0134888,0.0311584
373,1437154497400,-0.0102539,0.0305786,0.0247498
374,1437154497420,0.0111084,0.043396,0.0300903
375,1437154497440,0.00576782,0.0412598,0.0247498
376,1437154497460,-0.0273438,0.0231018,0.0204773
377,1437154497478,-0.0465698,0.0263062,0.0065918
378,1437154497499,-0.0358887,0.0327148,-0.00622559
379,1437154497517,-0.0252075,0.0562134,-0.0329285
380,1437154497538,-0.00598145,0.0562134,-0.0350647
381,1437154497558,0.000427246,0.0401917,-0.028656
382,1437154497578,-0.0262756,0.033783,-0.0222473
383,1437154497598,-0.0519104,0.0188293,-0.0201111
384,1437154497618,-0.0358887,0.0113525,-0.019043
385,1437154497637,0.00790405,0.0380554,-0.019043
386,1437154497657,0.0303345,0.043396,-0.010498
387,1437154497677,0.000427246,0.0188293,-0.0126343
388,1437154497696,-0.0241394,-0.00466919,-0.00408936
389,1437154497716,-0.0187988,-0.00146484,-0.00088501
390,1437154497736,-0.00918579,-0.00146484,0.00552368
391,1437154497756,-0.00170898,-0.0132141,0.0065918
392,1437154497775,-0.0102539,-0.0238953,0.0172729
393,1437154497794,-0.0155945,-0.0185547,0.0247498
394,1437154497815,-0.0102539,-0.0270996,0.0343628
395,1437154497834,0.00363159,-0.0345764,0.0354309
396,1437154497854,0.0143127,-0.0260315,0.0258179
397,1437154497874,0.00469971,-0.0196228,0.00872803
398,1437154497894,-0.0123901,-0.0345764,-0.0072937
399,1437154497913,-0.0230713,-0.030304,-0.0137024
400,1437154497933,-0.0145264,-0.0249634,-0.0126343
