id,attr_time,attr_x,attr_y,attr_z
1,1436986568526,0.0015271631,0.022602014,-0.012217305
2,1436986568543,-0.004886922,0.017715093,-0.0143553335
3,1436986568564,-0.0036651916,0.016187929,-0.014660766
4,1436986568583,-0.004276057,0.021380283,-0.018020526
5,1436986568603,-0.0061086523,0.023518313,-0.010995574
6,1436986568621,-0.005192355,0.02565634,-0.01160644
7,1436986568643,-0.00580322,0.021991149,-0.008552114
8,1436986568662,-0.0076358155,0.02076942,-0.0067195175
9,1436986568681,-0.009162978,0.028405234,-0.0021380284
10,1436986568704,-0.008246681,0.02076942,-0.0033597588
11,1436986568724,-0.008857546,0.01863139,-0.00061086525
12,1436986568744,-0.007330383,0.027183503,-0.0027488936
13,1436986568761,-0.004276057,0.02321288,-0.0036651916
14,1436986568785,-0.0033597588,0.02565634,-0.0021380284
15,1436986568801,-0.013439035,0.023518313,0.0036651916
16,1436986568822,-0.009162978,0.02443461,0.0015271631
17,1436986568843,-0.009162978,0.025045475,0.0021380284
18,1436986568874,-0.012217305,0.025045475,0.0030543262
19,1436986568881,-0.01038471,0.025045475,0.002443461
20,1436986568901,-0.01282817,0.02565634,0.004886922
21,1436986568920,-0.01282817,0.025961773,0.004276057
22,1436986568940,-0.0106901415,0.027183503,0.011301007
23,1436986568962,-0.008857546,0.029321533,0.015882496
24,1436986568981,-0.008857546,0.0290161,0.016493361
25,1436986569002,-0.01160644,0.02321288,0.021991149
26,1436986569026,-0.013133603,0.025961773,0.024129177
27,1436986569043,-0.0125227375,0.022907447,0.021685716
28,1436986569060,-0.011301007,0.028710667,0.022907447
29,1436986569082,-0.013439035,0.029321533,0.0125227375
30,1436986569102,-0.011301007,0.036957346,0.010995574
31,1436986569123,-0.007330383,0.036957346,0.009468411
32,1436986569143,-0.0012217305,0.0290161,0.0036651916
33,1436986569164,0.0009162979,0.027488936,0.0012217305
34,1436986569185,0.00580322,0.027794369,-0.0015271631
35,1436986569205,0.013439035,0.029626964,-0.00061086525
36,1436986569224,0.015271631,0.01985312,-0.007941248
37,1436986569244,0.016187929,0.02443461,-0.007941248
38,1436986569265,0.021685716,0.0290161,-0.007941248
39,1436986569285,0.021991149,0.022907447,-0.0106901415
40,1436986569305,0.027488936,0.018936822,-0.009468411
41,1436986569322,0.029321533,0.018325957,-0.013439035
42,1436986569344,0.03023783,0.022296581,-0.01282817
43,1436986569365,0.03359759,0.022296581,-0.007941248
44,1436986569385,0.029626964,0.01282817,-0.005192355
45,1436986569405,0.028710667,0.0070249503,-0.0067195175
46,1436986569425,0.03359759,0.003970624,-0.007941248
47,1436986569443,0.03268129,0.005192355,-0.007330383
48,1436986569463,0.037873644,0.015882496,-0.011911872
49,1436986569483,0.035430185,0.01863139,-0.011301007
50,1436986569504,0.03573562,0.016798794,-0.010995574
51,1436986569593,0.03573562,0.014966198,-0.011301007
52,1436986569594,0.03756821,0.013439035,-0.014966198
53,1436986569595,0.03573562,0.017104227,-0.01160644
54,1436986569596,0.039095376,0.02076942,-0.006414085
55,1436986569614,0.03604105,0.015882496,-0.0076358155
56,1436986569627,0.040011674,0.012217305,-0.004886922
57,1436986569644,0.04153884,0.018020526,-0.0067195175
58,1436986569667,0.03481932,0.0143553335,-0.0027488936
59,1436986569686,0.03940081,0.005192355,0.0018325958
60,1436986569716,0.03756821,0.004581489,0.0021380284
61,1436986569729,0.03756821,0.0076358155,0.0030543262
62,1436986569742,0.041233405,0.014966198,0.0036651916
63,1436986569762,0.03970624,0.00580322,0.009162978
64,1436986569782,0.043676864,-0.002443461,0.008246681
65,1436986569802,0.04642576,0.0,0.0067195175
66,1436986569877,0.048563786,0.0009162979,0.005192355
67,1436986569878,0.042455133,0.00061086525,0.002443461
68,1436986569879,0.043676864,0.0036651916,-0.003970624
69,1436986569882,0.03970624,0.007330383,-0.00580322
70,1436986569902,0.04153884,0.016798794,-0.003970624
71,1436986569924,0.0421497,0.016798794,-0.0030543262
72,1436986569946,0.038179077,0.015271631,-0.0012217305
73,1436986569964,0.044593163,0.01740966,-0.0030543262
74,1436986569983,0.040927973,0.016798794,-0.0021380284
75,1436986570002,0.0290161,0.020158553,-0.004581489
76,1436986570023,0.028710667,0.016798794,-0.0070249503
77,1436986570043,0.027488936,0.029321533,-0.017715093
78,1436986570063,0.026572637,0.03176499,-0.0106901415
79,1436986570083,0.02321288,0.030543262,-0.0027488936
80,1436986570103,0.01863139,0.025045475,-0.0021380284
81,1436986570123,0.018020526,0.018936822,-0.0076358155
82,1436986570144,0.014966198,0.02321288,-0.009773844
83,1436986570165,0.014966198,0.018325957,-0.016187929
84,1436986570185,0.020158553,0.015271631,-0.020158553
85,1436986570206,0.02687807,0.008246681,-0.032070424
86,1436986570223,0.03176499,0.009162978,-0.04520403
87,1436986570244,0.0290161,0.013439035,-0.05131268
88,1436986570265,0.032986723,0.01282817,-0.053450707
89,1436986570283,0.032986723,0.013133603,-0.06261369
90,1436986570304,0.028099801,0.011911872,-0.06352998
91,1436986570368,0.028099801,0.013439035,-0.0720821
92,1436986570369,0.024129177,0.015577064,-0.06627888
93,1436986570370,0.022907447,0.015577064,-0.0693332
94,1436986570389,0.019242255,0.009468411,-0.065973446
95,1436986570403,0.014049901,0.019547688,-0.060170226
96,1436986570423,0.01282817,0.01863139,-0.057421334
97,1436986570443,0.0067195175,0.020463986,-0.04337143
98,1436986570463,0.010995574,0.021991149,-0.046120327
99,1436986570484,0.014049901,0.016187929,-0.050396383
100,1436986570506,0.010995574,0.013744468,-0.048563786
101,1436986570525,0.008246681,0.012217305,-0.043982297
102,1436986570544,0.004886922,0.00580322,-0.04184427
103,1436986570564,0.0061086523,0.010995574,-0.043676864
104,1436986570586,0.0012217305,0.013439035,-0.035430185
105,1436986570604,-0.007330383,0.010079277,-0.0290161
106,1436986570626,-0.008246681,0.0125227375,-0.027183503
107,1436986570646,-0.007330383,0.009468411,-0.025961773
108,1436986570665,-0.0012217305,0.005497787,-0.031154128
109,1436986570686,-0.0021380284,0.011301007,-0.03023783
110,1436986570706,-0.014049901,0.013744468,-0.022296581
111,1436986570723,-0.010079277,0.01160644,-0.025961773
112,1436986570744,-0.006414085,0.0070249503,-0.02565634
113,1436986570765,-0.003970624,0.0027488936,-0.028710667
114,1436986570785,-0.013133603,0.008857546,-0.030848695
115,1436986570806,-0.0067195175,0.01160644,-0.032375857
116,1436986570826,-0.0076358155,0.015577064,-0.025961773
117,1436986570846,-0.009468411,0.011911872,-0.025045475
118,1436986570864,-0.003970624,0.0076358155,-0.028710667
119,1436986570886,-0.008246681,0.003970624,-0.0290161
120,1436986570907,-0.010995574,-0.0009162979,-0.029321533
121,1436986570927,-0.005497787,0.0030543262,-0.040317107
122,1436986570944,-0.012217305,0.012217305,-0.034208454
123,1436986570966,-0.007330383,0.013439035,-0.03359759
124,1436986570984,-0.01038471,0.012217305,-0.030543262
125,1436986571006,-0.01038471,0.013744468,-0.030848695
126,1436986571025,-0.01282817,0.015882496,-0.035124753
127,1436986571045,-0.014660766,0.020158553,-0.033292156
128,1436986571090,-0.0125227375,0.0125227375,-0.03481932
129,1436986572615,-0.012217305,0.015882496,-0.024740042
130,1436986572616,-0.0143553335,0.0143553335,-0.03145956
131,1436986572617,-0.014966198,0.015882496,-0.034513887
132,1436986572618,-0.01282817,0.022602014,-0.03390302
133,1436986572619,-0.011911872,0.017715093,-0.031154128
134,1436986572620,-0.017104227,0.02107485,-0.028099801
135,1436986572621,-0.020158553,0.022296581,-0.025350908
136,1436986572622,-0.019547688,0.027183503,-0.023518313
137,1436986572623,-0.0143553335,0.022907447,-0.022602014
138,1436986572624,-0.016493361,0.018325957,-0.022602014
139,1436986572625,-0.0125227375,0.02076942,-0.01985312
140,1436986572626,-0.018936822,0.016798794,-0.014966198
141,1436986572627,-0.025350908,0.024740042,-0.004581489
142,1436986572628,-0.024740042,0.026267206,-0.0018325958
143,1436986572629,-0.027183503,0.028710667,-0.004276057
144,1436986572630,-0.024740042,0.026572637,-0.007941248
145,1436986572631,-0.02565634,0.027183503,-0.009162978
146,1436986572632,-0.01863139,0.032375857,-0.013133603
147,1436986572633,-0.016187929,0.040927973,-0.014660766
148,1436986572634,-0.018936822,0.034513887,-0.0125227375
149,1436986572635,-0.011911872,0.03176499,-0.0143553335
150,1436986572636,-0.016798794,0.034208454,-0.013744468
151,1436986572637,-0.022296581,0.038789943,-0.014049901
152,1436986572638,-0.018325957,0.040011674,-0.011911872
153,1436986572639,-0.016798794,0.03023783,-0.005497787
154,1436986572640,-0.015577064,0.029626964,-0.0061086523
155,1436986572641,-0.01740966,0.03023783,-0.004276057
156,1436986572642,-0.009162978,0.03145956,-0.008552114
157,1436986572643,-0.0076358155,0.027794369,-0.011911872
158,1436986572644,-0.015577064,0.025961773,-0.009773844
159,1436986572645,-0.01038471,0.032375857,-0.009773844
160,1436986572646,-0.008552114,0.030848695,-0.009773844
161,1436986572647,-0.0061086523,0.02687807,-0.0070249503
162,1436986572648,-0.010995574,0.025961773,-0.008857546
163,1436986572649,-0.008246681,0.0290161,-0.013439035
164,1436986572650,-0.0067195175,0.02443461,-0.0106901415
165,1436986572651,-0.00580322,0.026267206,-0.013439035
166,1436986572652,-0.008552114,0.015577064,-0.009773844
167,1436986572653,-0.014660766,0.016187929,-0.008857546
168,1436986572654,-0.00580322,0.022296581,-0.01282817
169,1436986572655,-0.00580322,0.020463986,-0.0125227375
170,1436986572656,-0.004581489,0.018020526,-0.014049901
171,1436986572657,-0.004276057,0.01038471,-0.019242255
172,1436986572658,-0.0033597588,0.01863139,-0.015882496
173,1436986572659,-0.008246681,0.013439035,-0.014049901
174,1436986572660,-0.005497787,0.019242255,-0.01740966
175,1436986572661,-0.004276057,0.011911872,-0.018936822
176,1436986572662,0.00030543262,0.012217305,-0.01740966
177,1436986572663,-0.0012217305,0.008857546,-0.01863139
178,1436986572664,-0.0021380284,0.011911872,-0.01863139
179,1436986572665,-0.009468411,0.013744468,-0.016493361
180,1436986572666,-0.0076358155,0.019547688,-0.015271631
181,1436986572667,-0.00061086525,0.02107485,-0.01863139
182,1436986572668,-0.0009162979,0.018325957,-0.022296581
183,1436986572669,0.0009162979,0.01985312,-0.028710667
184,1436986572670,-0.0036651916,0.022296581,-0.030848695
185,1436986572671,-0.002443461,0.025961773,-0.034208454
186,1436986572672,0.0018325958,0.02687807,-0.02565634
187,1436986572673,0.0021380284,0.01863139,-0.027794369
188,1436986572674,0.0009162979,0.02076942,-0.02443461
189,1436986572675,-0.004886922,0.020463986,-0.023518313
190,1436986572676,-0.010079277,0.025961773,-0.02321288
191,1436986572677,-0.01038471,0.023823744,-0.02107485
192,1436986572678,-0.0070249503,0.021685716,-0.022602014
193,1436986572679,-0.010079277,0.020158553,-0.02076942
194,1436986572680,-0.0033597588,0.021380283,-0.028710667
195,1436986572681,-0.00580322,0.010995574,-0.024129177
196,1436986572682,-0.012217305,0.01282817,-0.02107485
197,1436986572683,-0.009773844,0.02107485,-0.025045475
198,1436986572684,-0.013439035,0.017715093,-0.023823744
199,1436986572685,-0.012217305,0.018325957,-0.021380283
200,1436986572686,-0.0125227375,0.020158553,-0.023518313
201,1436986572687,-0.01282817,0.022602014,-0.025350908
202,1436986572688,-0.009468411,0.018325957,-0.027794369
203,1436986572689,-0.004886922,0.02321288,-0.0290161
204,1436986572690,-0.0027488936,0.01985312,-0.03145956
205,1436986572691,-0.0012217305,0.019242255,-0.03268129
206,1436986572692,-0.003970624,0.019547688,-0.028710667
207,1436986572693,-0.004581489,0.012217305,-0.0290161
208,1436986572694,0.004886922,0.015271631,-0.03634648
209,1436986572695,0.0067195175,0.010995574,-0.038179077
210,1436986572704,0.009468411,0.0106901415,-0.037873644
211,1436986572724,0.011911872,0.012217305,-0.037873644
212,1436986572744,0.009773844,0.013133603,-0.039095376
213,1436986572764,0.0027488936,0.013439035,-0.04520403
214,1436986572784,0.0009162979,0.026572637,-0.038789943
215,1436986572804,0.007941248,0.026267206,-0.034513887
216,1436986572824,0.00061086525,0.02687807,-0.028405234
217,1436986572847,0.0015271631,0.013439035,-0.028099801
218,1436986572868,-0.0018325958,0.013744468,-0.022907447
219,1436986572887,-0.004581489,0.018020526,-0.026572637
220,1436986572906,-0.008552114,0.02076942,-0.026572637
221,1436986572925,-0.0125227375,0.022602014,-0.022602014
222,1436986572947,-0.012217305,0.026572637,-0.023518313
223,1436986572969,-0.01282817,0.019242255,-0.018936822
224,1436986572987,-0.015271631,0.021685716,-0.020463986
225,1436986573006,-0.0076358155,0.02565634,-0.022907447
226,1436986573029,-0.011301007,0.02443461,-0.020463986
227,1436986573049,-0.020463986,0.023823744,-0.018325957
228,1436986573069,-0.0125227375,0.019547688,-0.02443461
229,1436986573089,-0.01282817,0.025961773,-0.022602014
230,1436986573108,-0.007941248,0.014660766,-0.02565634
231,1436986573130,-0.008857546,0.019547688,-0.023823744
232,1436986573150,-0.01282817,0.025045475,-0.02565634
233,1436986573169,-0.01740966,0.028099801,-0.027183503
234,1436986573190,-0.014966198,0.026267206,-0.02565634
235,1436986573262,-0.015577064,0.018936822,-0.025961773
236,1436986573264,-0.014049901,0.027488936,-0.028099801
237,1436986573266,-0.018020526,0.029626964,-0.023823744
238,1436986573267,-0.018020526,0.02321288,-0.029321533
239,1436986573286,-0.017715093,0.032986723,-0.03145956
240,1436986573309,-0.019242255,0.038789943,-0.03481932
241,1436986573326,-0.019242255,0.046120327,-0.03970624
242,1436986573346,-0.028710667,0.046731193,-0.038789943
243,1436986573368,-0.027488936,0.047647487,-0.03145956
244,1436986573387,-0.03940081,0.040927973,-0.024740042
245,1436986573406,-0.040317107,0.037873644,-0.028405234
246,1436986573426,-0.040317107,0.042760566,-0.031154128
247,1436986573454,-0.044593163,0.04886922,-0.025961773
248,1436986573468,-0.04153884,0.04428773,-0.030543262
249,1436986573489,-0.04337143,0.048258353,-0.03023783
250,1436986573508,-0.043982297,0.040927973,-0.03359759
251,1436986573529,-0.04795292,0.028710667,-0.03176499
252,1436986573549,-0.043982297,0.02107485,-0.03604105
253,1436986573569,-0.04428773,0.019242255,-0.046731193
254,1436986573589,-0.04337143,0.02687807,-0.04337143
255,1436986573609,-0.048258353,0.025045475,-0.04062254
256,1436986573629,-0.063224554,0.01160644,-0.035430185
257,1436986573647,-0.09560041,0.006414085,-0.038789943
258,1436986573670,-0.11148291,0.003970624,-0.034208454
259,1436986573689,-0.12522738,-0.006414085,-0.032375857
260,1436986573706,-0.09315695,-0.021685716,-0.044898596
261,1436986573726,-0.16646078,-0.0106901415,-0.024740042
262,1436986573746,-0.16982053,-0.06169739,-0.035124753
263,1436986573771,-0.16187929,-0.10781772,-0.053450707
264,1436986573792,-0.16646078,-0.0870483,-0.04642576
265,1436986573812,-0.16218472,-0.10873401,-0.04428773
266,1436986573829,-0.14844026,-0.11759156,-0.06078109
267,1436986573846,-0.12614368,-0.09162979,-0.07238753
268,1436986573867,-0.111177474,-0.07727446,-0.06658431
269,1436986573886,-0.109650314,-0.09682214,-0.061391957
270,1436986573910,-0.12797627,-0.12858713,-0.0729984
271,1436986573926,-0.15393804,-0.13500121,-0.06872234
272,1436986574000,-0.18325958,-0.1328632,-0.056199603
273,1436986574001,-0.2049453,-0.13408493,-0.021991149
274,1436986574002,-0.22937989,-0.116980694,0.004581489
275,1436986574009,-0.25503623,-0.10323623,0.0106901415
276,1436986574030,-0.27947086,-0.07849618,0.0015271631
277,1436986574051,-0.30085114,-0.05497787,0.0070249503
278,1436986574066,-0.32925636,-0.051923547,0.013133603
279,1436986574093,-0.35521814,-0.055588737,0.014049901
280,1436986574106,-0.36774087,-0.06780604,-0.002443461
281,1436986574140,-0.38698313,-0.06719518,-0.02076942
282,1436986574147,-0.41233405,-0.08857546,-0.023823744
283,1436986574170,-0.43554693,-0.099571034,-0.040317107
284,1436986574191,-0.47342056,-0.1151481,-0.035124753
285,1436986574209,-0.5161811,-0.14080444,-0.032070424
286,1436986574229,-0.5714644,-0.16279559,-0.019242255
287,1436986574250,-0.61758476,-0.17562376,-0.0036651916
288,1436986574270,-0.6826419,-0.17104226,0.019547688
289,1436986574290,-0.7632761,-0.18906279,0.0009162979
290,1436986574310,-0.80878556,-0.25717425,0.002443461
291,1436986574330,-0.86467975,-0.30848694,0.021380283
292,1436986574350,-0.9272934,-0.33536503,0.09712757
293,1436986574370,-1.006095,-0.29779682,0.18692477
294,1436986574392,-1.1392636,-0.23609942,0.36254853
295,1436986574407,-1.2229522,-0.36041048,0.5891795
296,1436986574430,-1.1588113,-0.38881573,0.70005155
297,1436986574450,-1.1548407,-0.44837508,0.754724
298,1436986574470,-1.1572843,-0.4202753,0.99112886
299,1436986574490,-1.1774428,-0.6401868,1.3390167
300,1436986574510,-0.98624194,-0.9334021,1.6777414
301,1436986574530,-0.47311515,-1.9404135,1.7757853
302,1436986574550,-0.24098633,-3.154508,1.5909985
303,1436986574570,-0.0290161,-3.5268304,1.2880094
304,1436986574591,0.15210545,-3.0301971,0.7504479
305,1436986574611,0.2489276,-2.5158484,0.22632557
306,1436986574631,0.29810223,-1.72264,-0.17684549
307,1436986574649,0.40439278,-1.0064005,-0.6246097
308,1436986574669,0.5681047,-0.5821546,-0.9972375
309,1436986574755,0.700357,-0.6227771,-1.2944235
310,1436986574756,0.883922,-0.7348709,-1.6163495
311,1436986574757,1.0283916,-1.0613784,-1.8732183
312,1436986574758,1.1172725,-1.6190983,-2.0619757
313,1436986574768,1.1578951,-1.9526308,-2.2525656
314,1436986574787,1.1523973,-2.2131648,-2.4083362
315,1436986574807,1.1582005,-2.350915,-2.4810293
316,1436986574829,1.1322387,-2.3576343,-2.5372288
317,1436986574850,0.9428705,-2.2696698,-2.552806
318,1436986574868,0.8381071,-2.159714,-2.3744333
319,1436986574889,0.7809912,-1.9394971,-2.2724187
320,1436986574909,0.7464773,-1.5262468,-2.1053472
321,1436986574929,0.74464476,-0.9111055,-1.8267925
322,1436986574947,0.7293731,-0.34330627,-1.5900823
323,1436986574969,0.6218608,0.14477506,-1.2229522
324,1436986574990,0.49357912,0.68752885,-0.7583892
325,1436986575010,0.40530908,0.99021256,-0.37782016
326,1436986575030,0.25381452,1.1163563,0.09896017
327,1436986575050,0.112704635,1.1826351,0.61208695
328,1436986575071,0.06505715,0.70738196,1.0030408
329,1436986575091,-0.040927973,0.3155119,1.3704761
330,1436986575111,-0.13072516,-0.12644911,0.94959
331,1436986575129,-0.20097467,1.0103711,1.4056009
332,1436986575151,-0.10445796,0.7296785,2.051591
333,1436986575171,-0.03023783,-1.1554517,1.8942931
334,1436986575187,-0.1563815,-0.6084218,1.5012014
335,1436986575207,-0.25320363,-0.589485,1.2562444
336,1436986575231,-0.27885997,-0.17592919,1.0705414
337,1436986575251,-0.27458394,-0.070249505,0.7635816
338,1436986575271,-0.17104226,0.33322698,0.7510588
339,1436986575292,-0.06963864,0.26389378,0.7302894
340,1436986575310,-0.059864793,0.30757064,0.71837753
341,1436986575330,-0.1151481,0.3200934,0.65484756
342,1436986575350,-0.17837265,0.25778514,0.5045747
343,1436986575370,-0.21410827,0.27977628,0.37568212
344,1436986575389,-0.19792034,0.29352075,0.3182608
345,1436986575479,-0.16279559,0.28985557,0.2855795
346,1436986575480,-0.1423316,0.26419923,0.26908615
347,1436986575481,-0.1518,0.22968534,0.2611449
348,1436986575482,-0.18203785,0.28680122,0.3109304
349,1436986575490,-0.22632557,0.46181414,0.4288274
350,1436986575509,-0.25411993,0.4841107,0.59864795
351,1436986575529,-0.24923302,0.42730024,0.8384125
352,1436986575548,-0.26450464,0.3408628,0.97341377
353,1436986575569,-0.2660318,0.17654006,1.1184943
354,1436986575591,-0.2843578,0.12308934,1.1585059
355,1436986575631,-0.28405234,0.1423316,1.3249667
356,1436986575632,-0.25686884,0.31215215,1.4676038
357,1436986575665,-0.3643811,0.42302418,1.598329
358,1436986575670,-0.64721173,0.4905248,1.9336939
359,1436986575688,-0.8912524,0.40622538,2.4471262
360,1436986575708,-0.8918633,0.49754974,2.814867
361,1436986575728,-0.6227771,0.743423,2.154827
362,1436986575749,-0.38453966,2.2473733,1.9520199
363,1436986575768,-0.20616703,1.6398678,1.9737056
364,1436986575788,-0.39553526,0.025961773,1.0283916
365,1436986575808,-0.19608775,0.110872045,-0.6243043
366,1436986575828,-0.19058995,1.1795808,-1.4004086
367,1436986575854,0.19730948,1.9046779,-1.5106697
368,1436986575868,0.50946164,0.64721173,-2.3985624
369,1436986575888,0.6291912,-0.3417791,-2.9712486
370,1436986575908,0.874759,-0.24373524,-3.3628132
