id,attr_time,attr_x,attr_y,attr_z
1,1436986568505,-0.021380283,-0.12370021,0.01282817
2,1436986568524,-0.027794369,-0.08399397,0.01038471
3,1436986568544,-0.027183503,-0.0580322,0.010995574
4,1436986568565,-0.031154128,-0.048563786,0.018936822
5,1436986568586,-0.038789943,-0.058643065,0.020463986
6,1436986568605,-0.043066,-0.07391469,0.017715093
7,1436986568625,-0.043676864,-0.08307768,0.018020526
8,1436986568646,-0.04550946,-0.07666359,0.017715093
9,1436986568725,-0.05222898,-0.0693332,0.008857546
10,1436986568726,-0.06047566,-0.058643065,0.004581489
11,1436986568727,-0.06688975,-0.04642576,0.01038471
12,1436986568728,-0.06780604,-0.05222898,0.020463986
13,1436986568744,-0.07269296,-0.08002335,0.033292156
14,1436986568789,-0.071776666,-0.12950343,0.0421497
15,1436986568790,-0.07696902,-0.18509217,0.050701816
16,1436986568803,-0.07788532,-0.24587326,0.04734206
17,1436986568825,-0.07269296,-0.28924468,0.055283304
18,1436986568843,-0.070554934,-0.2959642,0.059864793
19,1436986568864,-0.0571159,-0.2864958,0.058948494
20,1436986568883,-0.047036625,-0.2751948,0.05375614
21,1436986568904,-0.0421497,-0.28130344,0.05375614
22,1436986568923,-0.032070424,-0.28771752,0.04062254
23,1436986568946,-0.028710667,-0.29932398,0.015882496
24,1436986568965,-0.028405234,-0.28680122,-0.0036651916
25,1436986568985,-0.0125227375,-0.23365596,-0.01740966
26,1436986569005,-0.007941248,-0.183565,-0.02321288
27,1436986569025,0.0,-0.16584991,-0.026572637
28,1436986569045,0.002443461,-0.17470746,-0.028099801
29,1436986569063,0.004886922,-0.2144137,-0.03268129
30,1436986569083,0.0076358155,-0.26511553,-0.014660766
31,1436986569105,0.015882496,-0.30604348,-0.007941248
32,1436986569125,0.013744468,-0.3191771,0.0021380284
33,1436986569146,0.015882496,-0.31245756,0.0018325958
34,1436986569165,0.016493361,-0.30268374,-0.006414085
35,1436986569185,0.014049901,-0.30695978,-0.010079277
36,1436986569204,0.015882496,-0.30176744,-0.013439035
37,1436986569223,0.013744468,-0.28038713,-0.022602014
38,1436986569244,0.015577064,-0.25961772,-0.016187929
39,1436986569265,0.013744468,-0.24220806,-0.00580322
40,1436986569285,0.009162978,-0.23335053,-0.007941248
41,1436986569305,0.00030543262,-0.24098633,-0.021380283
42,1436986569323,0.002443461,-0.23182335,-0.03145956
43,1436986569350,0.0009162979,-0.20738874,-0.040927973
44,1436986569475,0.004276057,-0.16493362,-0.047647487
45,1436986569476,0.004886922,-0.13164146,-0.04886922
46,1436986569477,0.00580322,-0.093767814,-0.043066
47,1436986569478,0.007330383,-0.069027774,-0.03573562
48,1436986569479,0.0030543262,-0.048563786,-0.03268129
49,1436986569480,0.0027488936,-0.03848451,-0.03604105
50,1436986569570,-0.0061086523,-0.016798794,-0.043676864
51,1436986569571,-0.015577064,0.03481932,-0.04184427
52,1436986569572,-0.019242255,0.09010262,-0.029932396
53,1436986569573,-0.022602014,0.1337795,-0.026572637
54,1436986569574,-0.033292156,0.1563815,-0.023518313
55,1436986569582,-0.046120327,0.16676621,-0.012217305
56,1436986569620,-0.049480084,0.17837265,0.003970624
57,1436986569644,-0.050396383,0.18234327,0.028405234
58,1436986569645,-0.049785517,0.21868975,0.04428773
59,1436986569663,-0.052534413,0.22968534,0.043676864
60,1436986569682,-0.060170226,0.21227567,0.06536258
61,1436986569704,-0.04520403,0.18845193,0.0888809
62,1436986569726,-0.043066,0.16554448,0.083383106
63,1436986569746,-0.044593163,0.15485434,0.069027774
64,1436986569766,-0.047647487,0.17745635,0.04886922
65,1436986569786,-0.043066,0.24740042,0.03573562
66,1436986569806,-0.03756821,0.3323107,0.03359759
67,1436986569825,-0.03359759,0.3921755,0.03726278
68,1436986569842,-0.039095376,0.41416663,0.04520403
69,1436986569863,-0.03573562,0.40530908,0.054061573
70,1436986569883,-0.03176499,0.3539964,0.058643065
71,1436986569903,-0.032375857,0.2837469,0.0693332
72,1436986569923,-0.038789943,0.23426682,0.07269296
73,1436986569943,-0.040011674,0.19028452,0.076358154
74,1436986569968,-0.03481932,0.112704635,0.08093964
75,1436986569987,-0.029626964,0.058643065,0.087659165
76,1436986570006,-0.031154128,0.02107485,0.0842994
77,1436986570022,-0.032070424,0.0033597588,0.070249505
78,1436986570043,-0.029626964,-0.021380283,0.057421334
79,1436986570062,-0.02443461,-0.032070424,0.03726278
80,1436986570087,-0.02565634,-0.03604105,0.016187929
81,1436986570108,-0.029321533,-0.033292156,0.0012217305
82,1436986570128,-0.029626964,-0.0290161,-0.0067195175
83,1436986570144,-0.023518313,-0.040011674,-0.024129177
84,1436986570165,-0.022907447,-0.06688975,-0.02687807
85,1436986570195,-0.015577064,-0.10262536,-0.030848695
86,1436986570208,-0.016187929,-0.13316862,-0.035124753
87,1436986570224,-0.01282817,-0.17287487,-0.047036625
88,1436986570244,-0.014966198,-0.204029,-0.054061573
89,1436986570262,-0.014660766,-0.2134974,-0.055283304
90,1436986570284,-0.013439035,-0.20799962,-0.06047566
91,1436986570305,-0.008552114,-0.19822577,-0.06352998
92,1436986570322,-0.008246681,-0.17195857,-0.057421334
93,1436986570344,-0.0015271631,-0.14813483,-0.054367006
94,1436986570365,0.0015271631,-0.14202617,-0.052839845
95,1436986570386,-0.00061086525,-0.14263703,-0.04886922
96,1436986570407,-0.0021380284,-0.13591751,-0.043676864
97,1436986570425,-0.0021380284,-0.10781772,-0.044898596
98,1436986570446,-0.0061086523,-0.0888809,-0.028710667
99,1436986570466,-0.005192355,-0.0711658,-0.018325957
100,1436986570487,-0.003970624,-0.07452556,-0.0036651916
101,1436986570506,-0.002443461,-0.0842994,0.0061086523
102,1436986570526,-0.00580322,-0.10629055,-0.0009162979
103,1436986570548,-0.011911872,-0.08155051,-0.008552114
104,1436986570564,-0.013133603,-0.018325957,-0.0106901415
105,1436986570587,-0.01038471,0.025961773,-0.003970624
106,1436986570606,-0.020463986,0.080634214,0.00580322
107,1436986570626,-0.029932396,0.11453723,0.010995574
108,1436986570647,-0.027794369,0.13133603,0.023518313
109,1436986570667,-0.027183503,0.14202617,0.042455133
110,1436986570687,-0.03023783,0.13897185,0.048563786
111,1436986570707,-0.03359759,0.14569137,0.053450707
112,1436986570727,-0.035430185,0.15943582,0.05100725
113,1436986570747,-0.040011674,0.15393804,0.05131268
114,1436986570768,-0.04520403,0.14935656,0.05100725
115,1436986570787,-0.04795292,0.14385876,0.046731193
116,1436986570809,-0.042760566,0.12797627,0.042455133
117,1436986570927,-0.043066,0.10995574,0.04642576
118,1436986570928,-0.049480084,0.07238753,0.037873644
119,1436986570929,-0.05681047,0.052534413,0.034208454
120,1436986570930,-0.055283304,0.032375857,0.02687807
121,1436986570931,-0.053450707,0.035124753,0.02107485
122,1436986570932,-0.05009095,0.038789943,0.013439035
123,1436986570948,-0.054061573,0.036651913,-0.0015271631
124,1436986570964,-0.05375614,0.03390302,-0.016187929
125,1436986570984,-0.054061573,0.022602014,-0.016493361
126,1436986571004,-0.05375614,0.008246681,-0.008552114
127,1436986571025,-0.048258353,-0.009162978,-0.010079277
128,1436986571044,-0.045814894,-0.034208454,-0.014660766
129,1436986571066,-0.04062254,-0.080634214,-0.01160644
130,1436986571085,-0.035430185,-0.12675454,-0.0076358155
131,1436986571106,-0.03023783,-0.15515977,-0.008552114
132,1436986571127,-0.030848695,-0.15790866,-0.016187929
133,1436986571147,-0.027794369,-0.13530666,-0.02107485
134,1436986571167,-0.021380283,-0.1151481,-0.026267206
135,1436986571187,-0.020158553,-0.08155051,-0.025045475
136,1436986571207,-0.020463986,-0.07513642,-0.03145956
137,1436986571226,-0.015577064,-0.09987647,-0.02076942
138,1436986571247,-0.009162978,-0.1423316,-0.00030543262
139,1436986571267,0.0015271631,-0.18203785,0.008246681
140,1436986571287,-0.0061086523,-0.20952678,0.0
141,1436986571307,-0.011911872,-0.20586158,-0.020158553
142,1436986571324,-0.0067195175,-0.16126843,-0.023518313
143,1436986571347,0.0030543262,-0.09773844,-0.0290161
144,1436986571368,0.003970624,-0.03726278,-0.03176499
145,1436986571387,-0.0036651916,0.011911872,-0.039095376
146,1436986571407,0.0009162979,0.032070424,-0.032986723
147,1436986571427,-0.0015271631,0.037873644,-0.016187929
148,1436986571447,-0.0067195175,0.008552114,-0.00580322
149,1436986571467,-0.014966198,-0.014660766,-0.0012217305
150,1436986571487,-0.0143553335,-0.01985312,0.004581489
151,1436986571507,-0.0106901415,-0.015882496,0.0067195175
152,1436986571526,-0.015577064,0.0106901415,0.002443461
153,1436986571546,-0.018325957,0.058337633,-0.0033597588
154,1436986571565,-0.01985312,0.093767814,-0.003970624
155,1436986571584,-0.019242255,0.10629055,0.008246681
156,1436986571669,-0.02687807,0.09101892,0.022296581
157,1436986571670,-0.03359759,0.074830994,0.022907447
158,1436986571671,-0.033292156,0.06994407,0.023518313
159,1436986571672,-0.03726278,0.076358154,0.022907447
160,1436986571684,-0.036957346,0.08979719,0.018325957
161,1436986571707,-0.0421497,0.10476339,0.0076358155
162,1436986571725,-0.04153884,0.10842858,0.0030543262
163,1436986571745,-0.04184427,0.115453534,0.004886922
164,1436986571773,-0.037873644,0.11148291,0.0070249503
165,1436986571785,-0.039095376,0.10140363,0.0030543262
166,1436986571809,-0.03726278,0.09132435,-0.0027488936
167,1436986571827,-0.03390302,0.07880162,-0.004581489
168,1436986571848,-0.03268129,0.0729984,-0.008857546
169,1436986571865,-0.028405234,0.06627888,-0.006414085
170,1436986571886,-0.029932396,0.06078109,-0.01160644
171,1436986571906,-0.0290161,0.06383542,-0.013744468
172,1436986571926,-0.023823744,0.061391957,-0.02107485
173,1436986571947,-0.02321288,0.05467244,-0.027794369
174,1436986571968,-0.018936822,0.056505036,-0.0290161
175,1436986571988,-0.016493361,0.058948494,-0.017104227
176,1436986572008,-0.02107485,0.06047566,-0.02107485
177,1436986572026,-0.0290161,0.027488936,-0.021380283
178,1436986572046,-0.034513887,-0.008857546,0.0033597588
179,1436986572067,-0.021380283,-0.042760566,0.010995574
180,1436986572087,-0.019547688,-0.079107046,-0.0021380284
181,1436986572107,-0.031154128,-0.09010262,-0.021685716
182,1436986572126,-0.031154128,-0.040317107,-0.03848451
183,1436986572147,-0.027488936,0.003970624,-0.048563786
184,1436986572168,-0.027183503,0.061391957,-0.048563786
185,1436986572188,-0.030848695,0.108123146,-0.052534413
186,1436986572208,-0.028099801,0.13775012,-0.044898596
187,1436986572226,-0.027488936,0.15424347,-0.03359759
188,1436986572247,-0.026572637,0.1441642,-0.020158553
189,1436986572267,-0.03634648,0.10629055,-0.010079277
190,1436986572285,-0.041233405,0.07880162,-0.0076358155
191,1436986572306,-0.040927973,0.053450707,0.004276057
192,1436986572389,-0.03726278,0.032986723,0.014966198
193,1436986572390,-0.03726278,0.031154128,0.014049901
194,1436986572391,-0.042455133,0.046731193,0.0106901415
195,1436986572392,-0.041233405,0.056199603,0.0125227375
196,1436986572405,-0.034513887,0.06261369,0.025350908
197,1436986572428,-0.035430185,0.05589417,0.034208454
198,1436986572445,-0.032986723,0.032070424,0.040011674
199,1436986572466,-0.037873644,0.0070249503,0.040011674
200,1436986572485,-0.03268129,-0.01282817,0.03359759
201,1436986572505,-0.032070424,-0.021380283,0.022296581
202,1436986572529,-0.03573562,-0.02687807,0.015882496
203,1436986572546,-0.03726278,-0.02565634,0.014660766
204,1436986572568,-0.039095376,-0.023518313,0.009773844
205,1436986572586,-0.03848451,-0.029626964,0.008857546
206,1436986572609,-0.040011674,-0.03604105,0.009468411
207,1436986572626,-0.043676864,-0.04917465,0.0106901415
208,1436986572647,-0.04734206,-0.06536258,0.015577064
209,1436986572669,-0.05100725,-0.1020145,0.024740042
210,1436986572689,-0.058948494,-0.13316862,0.043676864
211,1436986572709,-0.064751714,-0.1826487,0.0571159
212,1436986572726,-0.073303826,-0.22602014,0.06352998
213,1436986572747,-0.07880162,-0.24831672,0.061391957
214,1436986572768,-0.08155051,-0.25778514,0.071776666
215,1436986572786,-0.076358154,-0.26175576,0.08032878
216,1436986572807,-0.07513642,-0.26175576,0.077579886
217,1436986572827,-0.08460484,-0.2828306,0.06536258
218,1436986572848,-0.09101892,-0.30940324,0.064446285
219,1436986572870,-0.0888809,-0.33322698,0.087964594
220,1436986572889,-0.08582657,-0.3594942,0.11026118
221,1436986572905,-0.09285152,-0.38912117,0.12186762
222,1436986572928,-0.0983493,-0.45081854,0.15271631
223,1436986572947,-0.096516706,-0.5119051,0.18203785
224,1436986572967,-0.08857546,-0.5516113,0.2049453
225,1436986572987,-0.08735373,-0.61850107,0.21227567
226,1436986573007,-0.09162979,-0.6536258,0.19333886
227,1436986573027,-0.09987647,-0.68386364,0.17654006
228,1436986573052,-0.112704635,-0.72021013,0.17501289
229,1436986573128,-0.10934488,-0.75961095,0.17654006
230,1436986573129,-0.10262536,-0.7791586,0.17379116
231,1436986573130,-0.09254608,-0.7901542,0.16279559
232,1436986573131,-0.08460484,-0.83077675,0.1563815
233,1436986573147,-0.07819075,-0.8720101,0.15027285
234,1436986573168,-0.09101892,-0.8857546,0.1386664
235,1436986573186,-0.13652839,-0.8533788,0.13836098
236,1436986573213,-0.17806722,-0.77549344,0.14477506
237,1436986573226,-0.19486602,-0.6795876,0.1255328
238,1436986573249,-0.22388211,-0.6065892,0.116980694
239,1436986573270,-0.22449298,-0.50518554,0.12492194
240,1436986573287,-0.20158553,-0.44012842,0.11484267
241,1436986573309,-0.18509217,-0.4538729,0.09315695
242,1436986573328,-0.17623462,-0.5329799,0.06291912
243,1436986573349,-0.17134771,-0.68875057,0.027183503
244,1436986573369,-0.15454891,-0.818254,-0.004581489
245,1436986573389,-0.14355333,-0.90408057,-0.013744468
246,1436986573409,-0.1282817,-0.9211848,-0.009468411
247,1436986573429,-0.12492194,-0.89736104,0.0036651916
248,1436986573449,-0.12644911,-0.8338311,0.02076942
249,1436986573467,-0.14049901,-0.7690793,0.027794369
250,1436986573489,-0.15302174,-0.7302894,0.032986723
251,1436986573508,-0.16829337,-0.7098254,0.0421497
252,1436986573527,-0.19120082,-0.64934975,0.06352998
253,1436986573549,-0.22082779,-0.52381694,0.11942416
254,1436986573569,-0.21868975,-0.35705075,0.15027285
255,1436986573589,-0.2003638,-0.13652839,0.106901415
256,1436986573608,-0.2012801,0.028710667,0.003970624
257,1436986573629,-0.23823744,0.20708331,0.02076942
258,1436986573649,-0.23671028,0.33383787,0.11942416
259,1436986573669,-0.23793201,0.3903429,0.18325958
260,1436986573690,-0.28405234,0.3295618,0.20891592
261,1436986573710,-0.30085114,0.046120327,0.08368854
262,1436986573728,-0.17073683,-0.398895,-0.14569137
263,1436986573748,0.0290161,-0.6618725,-0.24465153
264,1436986573776,0.099265605,-0.48624873,-0.21410827
265,1436986573890,0.089491755,-0.1740966,-0.09162979
266,1436986573891,0.09682214,0.13103059,0.008552114
267,1436986573892,0.09743301,0.19150625,0.06505715
268,1436986573893,0.056199603,-0.01282817,0.09132435
269,1436986573894,0.0015271631,-0.398895,0.10293079
270,1436986573895,-0.086437434,-0.5861252,0.16401732
271,1436986573906,-0.17928895,-0.59742624,0.22510384
272,1436986573935,-0.25350907,-0.40194935,0.25961772
273,1436986573947,-0.28771752,-0.06811147,0.25137106
274,1436986573977,-0.30848694,0.22418754,0.20738874
275,1436986573987,-0.33200526,0.61727935,0.16523905
276,1436986574008,-0.3567453,0.90224797,0.16615535
277,1436986574027,-0.38087448,1.0085385,0.20616703
278,1436986574048,-0.40866885,0.95142263,0.2501493
279,1436986574069,-0.45814893,0.84971356,0.25167647
280,1436986574091,-0.5152648,0.6963864,0.12980886
281,1436986574110,-0.5369505,0.5149594,0.008857546
282,1436986574130,-0.50426924,0.3643811,0.0018325958
283,1436986574151,-0.41996986,0.34025195,0.06291912
284,1436986574167,-0.3390302,0.35094208,0.1386664
285,1436986574190,-0.30268374,0.3463606,0.183565
286,1436986574211,-0.30543262,0.31306845,0.19700404
287,1436986574229,-0.31642818,0.2733622,0.20861048
288,1436986574250,-0.32834008,0.23854288,0.22449298
289,1436986574271,-0.2996294,0.17898351,0.22113322
290,1436986574289,-0.24740042,0.14446963,0.19486602
291,1436986574313,-0.18967366,0.15424347,0.15118915
292,1436986574334,-0.103847094,0.21105394,0.112399206
293,1436986574349,-0.027183503,0.25350907,0.084910266
294,1436986574370,0.026572637,0.3115413,0.0571159
295,1436986574387,0.06627888,0.36896262,0.03756821
296,1436986574407,0.09040806,0.40775254,0.03390302
297,1436986574427,0.12034045,0.37232238,-0.00030543262
298,1436986574453,0.13927728,0.099265605,-0.00030543262
299,1436986574474,0.16340645,-0.36835176,0.04153884
300,1436986574496,0.18142697,-0.82650065,0.0720821
301,1436986574508,0.16493362,-1.3026701,0.09468412
302,1436986574532,0.12217305,-1.7061466,0.18448131
303,1436986574564,0.09407325,-2.058616,0.16310102
304,1436986574635,0.08399397,-2.1939225,-0.051618114
305,1436986574636,0.07666359,-2.3515258,-0.2507602
306,1436986574637,0.10445796,-2.522568,-0.40378192
307,1436986574638,0.21227567,-2.6254988,-0.3662137
308,1436986574657,0.364992,-2.3793201,-0.26908615
309,1436986574667,0.4251622,-1.8875736,-0.1872302
310,1436986574693,0.4089743,-1.2959507,-0.16829337
311,1436986574707,0.32070425,-0.8921687,-0.19700404
312,1436986574727,0.24312437,-0.4801401,-0.29749137
313,1436986574749,0.23823744,-0.21135938,-0.37140608
314,1436986574770,0.24862215,-0.12156218,-0.3463606
315,1436986574789,0.24495697,-0.129198,-0.22204952
316,1436986574809,0.20555615,-0.1518,-0.10415252
317,1436986574832,0.1432479,-0.18509217,-0.07666359
318,1436986574850,0.059253927,-0.20341812,-0.06536258
319,1436986574872,0.0143553335,-0.183565,-0.07819075
320,1436986574891,-0.01740966,-0.1001819,-0.13622294
321,1436986574911,-0.01863139,0.16126843,-0.17654006
322,1436986574931,0.004276057,0.5665775,-0.09712757
323,1436986574951,0.008857546,1.0235047,0.059864793
324,1436986574970,-0.028405234,1.5283848,0.10048734
325,1436986574992,-0.10262536,1.8487836,0.10751228
326,1436986575010,-0.13164146,2.232407,0.2764165
327,1436986575030,-0.076358154,2.5262332,0.634689
328,1436986575052,-0.01740966,2.5094345,0.88239485
329,1436986575071,-0.0067195175,2.221717,0.91354895
330,1436986575091,-0.14263703,1.5558738,0.6200282
331,1436986575112,-0.36957347,0.9807441,0.29840767
332,1436986575131,-0.5039638,0.7131852,0.22510384
333,1436986575150,-0.42119157,0.7461719,0.38515055
334,1436986575169,-0.21319197,0.8900307,0.59986967
335,1436986575201,-0.2098322,1.0067059,0.6273586
336,1436986575208,-0.3295618,0.83291477,0.4981606
337,1436986575228,-0.39492437,0.45204028,0.3408628
338,1436986575248,-0.3894266,0.15790866,0.1255328
339,1436986575269,-0.2938262,-0.101098195,0.023518313
340,1436986575288,-0.16065755,-0.051618114,0.1160644
341,1436986575308,-0.03970624,0.3036,0.26633725
342,1436986575329,0.010995574,0.64934975,0.33169982
343,1436986575353,0.0033597588,0.795652,0.31795537
344,1436986575368,-0.043676864,0.8185594,0.26542094
345,1436986575390,-0.12095132,0.65057147,0.25961772
346,1436986575408,-0.20586158,0.37965274,0.19883664
347,1436986575428,-0.25503623,0.083383106,0.103847094
348,1436986575490,-0.17654006,-0.29840767,0.023518313
349,1436986575491,0.043066,-0.49113566,0.042760566
350,1436986575492,0.23701571,-0.57543504,-0.006414085
351,1436986575515,0.3203988,-0.6969972,-0.10995574
352,1436986575529,0.32345316,-0.82986045,-0.29443705
353,1436986575554,0.32834008,-1.0073168,-0.3921755
354,1436986575571,0.3481932,-1.1432343,-0.41722095
355,1436986575592,0.30085114,-1.1307116,-0.47861293
356,1436986575612,0.23457226,-1.0403035,-0.5317582
357,1436986575631,0.1469131,-0.9779953,-0.57787853
358,1436986575652,0.02076942,-0.8857546,-0.6414085
359,1436986575671,-0.15271631,-0.7449502,-0.70554936
360,1436986575692,-0.19700404,-0.50671273,-0.5674938
361,1436986575712,-0.08674286,-0.2098322,-0.17684549
362,1436986575733,-0.01160644,0.2012801,0.087659165
363,1436986575749,-0.016493361,0.42332962,0.20463985
364,1436986575771,0.01160644,0.43218717,0.28405234
365,1436986575791,0.041233405,0.64812803,0.33169982
366,1436986575815,0.0842994,0.8368854,0.40225476
367,1436986575832,0.062308256,0.9954049,0.42394048
368,1436986575851,-0.053450707,0.8359691,0.3885103
369,1436986575872,-0.15851954,0.30848694,0.34330627
370,1436986575891,-0.23365596,-0.14477506,0.27030787
371,1436986575913,-0.22693644,-0.7816021,0.16554448
372,1436986575938,-0.15760323,-1.2846496,-0.043982297
373,1436986575951,-0.093462385,-1.4269812,-0.32498032
374,1436986575970,-0.07391469,-1.0589349,-0.5271767
375,1436986576082,-0.08246681,-0.48472157,-0.68539083
