id,attr_time,attr_x,attr_y,attr_z
1,1436464501009,-0.9139865,10.085575,1.8561049
2,1436464501026,-0.84216046,10.101735,1.7304093
3,1436464501048,-0.82599956,10.156203,1.7633295
4,1436464501077,-0.7858967,10.2178545,1.8201919
5,1436464501147,-0.8062474,10.294469,1.8848352
6,1436464501148,-1.0181342,10.296265,1.9153614
7,1436464501149,-1.3569138,10.155006,1.8171991
8,1436464501150,-1.654992,9.979631,1.5705963
9,1436464501166,-1.7142484,9.81503,1.3503298
10,1436464501187,-1.5197195,9.822212,1.2629414
11,1436464501206,-1.2689269,9.973047,1.3245921
12,1436464501226,-1.0055647,10.093356,1.532289
13,1436464501247,-0.8822633,10.238804,1.6944963
14,1436464501269,-0.66498953,10.433332,1.7741034
15,1436464501287,-0.54527944,10.350733,1.8974048
16,1436464501316,-0.5081693,10.162787,1.875857
17,1436464501328,-0.4818331,10.1065235,1.7549498
18,1436464501347,-0.5153519,10.14124,1.6112977
19,1436464501370,-0.40940848,10.171766,1.6472107
20,1436464501387,-0.078410104,10.0987425,1.9512744
21,1436464501408,0.17178397,9.774927,2.2523453
22,1436464501430,0.02932897,9.424176,2.2679076
23,1436464501450,-0.5943606,9.399037,1.8028339
24,1436464501470,-1.395221,9.3421755,1.3192052
25,1436464501486,-1.9877859,9.431359,1.0007763
26,1436464501507,-2.1996727,9.661202,0.94092125
27,1436464501529,-2.0260932,9.99639,1.0498575
28,1436464501549,-1.7220296,10.195109,1.2425907
29,1436464501570,-1.3754689,10.25257,1.46585
30,1436464501588,-1.1779473,10.191518,1.6154876
31,1436464501609,-1.0486604,10.1939125,1.62686
32,1436464501628,-0.97144735,10.242394,1.6777369
33,1436464501649,-0.97623575,10.253767,1.6657659
34,1436464501669,-0.99538934,10.191518,1.6244658
35,1436464501689,-0.9379285,10.247782,1.5023615
36,1436464501707,-0.90021986,10.210671,1.3928268
37,1436464501730,-0.83258367,10.105327,1.5628152
38,1436464501750,-0.76434886,10.078991,1.7884687
39,1436464501769,-0.6823475,10.023924,1.9231426
40,1436464501797,-0.6099229,10.023924,1.9261353
41,1436464501879,-0.581791,9.996989,1.7884687
42,1436464501880,-0.635062,9.942521,1.6244658
43,1436464501883,-0.6781576,9.793482,1.5107412
44,1436464501887,-0.65780693,9.842564,1.4616601
45,1436464501888,-0.64463884,9.988609,1.3868413
46,1436464501954,-0.6464345,10.014946,1.377863
47,1436464501955,-0.6607997,10.013748,1.3706805
48,1436464501956,-0.6572084,10.025121,1.3096284
49,1436464501989,-0.6919243,10.149021,1.2671312
50,1436464501990,-0.7266402,10.253169,1.2719196
51,1436464502007,-0.7116765,10.365098,1.3820529
52,1436464502033,-0.6775591,10.429741,1.4766239
53,1436464502047,-0.676362,10.349535,1.5454572
54,1436464502068,-0.641646,10.110115,1.5634137
55,1436464502087,-0.5482722,10.035296,1.4981717
56,1436464502110,-0.45489833,10.104729,1.4101849
57,1436464502131,-0.39025488,10.138845,1.4437037
58,1436464502149,-0.25977087,10.131064,1.4909891
59,1436464502170,-0.073621705,10.022128,1.6089035
60,1436464502188,0.08559271,9.935937,1.7118542
61,1436464502210,0.19991584,10.085575,1.7298107
62,1436464502231,0.25977087,10.181941,1.6184803
63,1436464502250,0.3286042,10.159196,1.5640123
64,1436464502271,0.36152446,10.184934,1.5729905
65,1436464502291,0.4285621,10.299856,1.536479
66,1436464502310,0.44951138,10.260351,1.4562732
67,1436464502331,0.4297592,10.010756,1.4508862
68,1436464502349,0.53809685,10.108918,1.4622587
69,1436464502371,0.5566519,10.5440645,1.4065934
70,1436464502388,0.31364042,10.732608,1.3599066
71,1436464502408,-0.010175358,10.474632,1.460463
72,1436464502429,-0.15442601,10.161591,1.590947
73,1436464502449,-0.16400282,10.180145,1.6101006
74,1436464502474,-0.32321724,10.465055,1.4975731
75,1436464502488,-0.45609543,10.438121,1.555034
76,1436464502510,-0.31783026,10.1939125,1.7741034
77,1436464502529,-0.05207389,9.929353,1.951873
78,1436464502549,0.22026655,9.697116,1.9710265
79,1436464502612,0.40581718,9.671976,1.8764555
80,1436464502613,0.5506664,9.797073,1.6687586
81,1436464502614,0.58777654,9.81503,1.6077064
82,1436464502635,0.59017074,9.69951,1.5119383
83,1436464502648,0.5177461,9.585785,1.5185224
84,1436464502668,0.35913026,9.731832,1.4640543
85,1436464502689,0.10534488,9.950302,1.4407109
86,1436464502709,-0.12689269,10.075399,1.448492
87,1436464502732,-0.24480712,10.138845,1.5688007
88,1436464502748,-0.18854338,10.096947,1.762731
89,1436464502769,-0.089782566,10.0508585,1.8662802
90,1436464502788,0.08200141,9.93893,1.9428947
91,1436464502811,0.23882163,9.986814,1.91596
92,1436464502828,0.35673606,9.961675,1.7932571
93,1436464502855,0.4902128,9.85633,1.6903064
94,1436464502871,0.6003461,9.674371,1.7124528
95,1436464502891,0.5542577,9.596559,1.7477672
96,1436464502918,0.30107087,9.746197,1.6938977
97,1436464502931,-0.008379706,9.887454,1.6968905
98,1436464502952,-0.18614918,10.115502,1.8100165
99,1436464502971,-0.20590134,10.401609,1.9632454
100,1436464502995,-0.19033903,10.603919,2.1170728
101,1436464503008,-0.2160767,10.621277,2.1871033
102,1436464503241,-0.33399114,10.529699,2.1877017
103,1436464503242,-0.5883751,10.367492,2.111686
104,1436464503243,-0.9804256,10.183139,1.9111716
105,1436464503244,-1.2587515,9.981427,1.6496049
106,1436464503245,-1.2653356,9.7958765,1.5711949
107,1436464503246,-0.9451111,9.805453,1.7076644
108,1436464503247,-0.60932434,9.855133,1.8579005
109,1436464503248,-0.37588966,9.883863,1.9111716
110,1436464503249,-0.091578215,10.019135,1.9949685
111,1436464503250,0.18375498,10.263943,2.0380642
112,1436464503253,0.32800564,10.458471,2.0177135
113,1436464503254,0.40043023,10.519524,1.9800048
114,1436464503276,0.45370123,10.469844,2.0009542
115,1436464503343,0.59735334,10.163386,2.0901382
116,1436464503344,0.7158663,9.813234,2.2319946
117,1436464503346,0.6865373,9.51755,2.2661119
118,1436464503348,0.4429273,9.449914,2.1942859
119,1436464503372,0.045489833,9.67018,2.0847511
120,1436464503389,-0.38486794,9.949704,2.0530279
121,1436464503409,-0.79008657,10.138845,2.147599
122,1436464503452,-1.0875661,10.197504,2.3014264
123,1436464503453,-1.364695,10.0269165,2.1865046
124,1436464503472,-1.5370775,9.77792,1.9662381
125,1436464503492,-1.4167689,9.508572,1.7663223
126,1436464503512,-1.1013328,9.270947,1.614889
127,1436464503529,-0.66139823,9.303269,1.6244658
128,1436464503553,-0.18974048,9.516952,1.7537527
129,1436464503571,0.27832595,9.904813,2.0799627
130,1436464503588,0.62847793,10.206482,2.4450784
131,1436464503608,0.7529764,10.234613,2.6844985
132,1436464503632,0.7882909,10.159196,2.6767175
133,1436464503650,0.74399817,10.114903,2.4827871
134,1436464503672,0.6859388,10.185533,2.2349873
135,1436464503689,0.51235914,10.189124,2.0494366
136,1436464503712,0.31543607,10.134057,1.9758149
137,1436464503731,0.13946225,10.171766,1.9189527
138,1436464503752,-0.02932897,10.077195,1.8537107
139,1436464503772,-0.110133275,9.949105,1.8261774
140,1436464503791,-0.17537527,9.824008,1.8177977
141,1436464503808,-0.22804771,9.768942,1.8034325
142,1436464503830,-0.25438392,9.763555,1.8471266
143,1436464503848,-0.23523031,9.909002,1.9686323
144,1436464503872,-0.23403321,10.142437,1.9303252
145,1436464503892,-0.16879122,10.31901,1.9231426
146,1436464503912,-0.034117375,10.5285015,1.8417397
147,1436464503929,0.094570965,10.385448,1.7986441
148,1436464503954,0.17178397,10.192117,1.8207904
149,1436464504005,0.31483752,10.002377,1.903989
150,1436464504006,0.29029694,10.140042,1.8064252
151,1436464504008,0.18854338,10.095152,1.7178397
152,1436464504028,0.12210429,9.986814,1.7489643
153,1436464504048,0.04070143,10.059837,1.7537527
154,1436464504068,-0.16699557,10.135254,1.6555905
155,1436464504095,-0.29628247,9.879075,1.6190789
156,1436464504112,-0.17417817,9.865308,1.6663644
157,1436464504132,-0.05865794,9.977237,1.7208325
158,1436464504152,0.04189853,10.014347,1.821389
159,1436464504172,0.13587095,10.085575,1.7962499
160,1436464504195,0.33039984,9.89344,1.8124107
161,1436464504212,0.52253455,9.856929,1.8872294
162,1436464504232,0.30526072,10.0269165,1.7663223
163,1436464504252,-0.15203181,9.878476,1.7369933
164,1436464504272,-0.46447513,9.969456,1.7824832
165,1436464504292,-0.7823054,10.119692,1.7717092
166,1436464504315,-1.1779473,10.268731,1.7645266
167,1436464504330,-1.5556326,10.311827,1.6795325
168,1436464504352,-1.7262194,10.224439,1.6017209
169,1436464504373,-1.6765398,10.08318,1.5771804
170,1436464504393,-1.4443022,9.955689,1.638831
171,1436464504413,-1.0875661,9.767744,1.7591397
172,1436464504433,-0.777517,9.65821,1.91596
173,1436464504452,-0.53211135,9.773131,1.9608512
174,1436464504473,-0.51595044,9.836577,1.9853917
175,1436464504493,-0.7032967,9.888652,1.8764555
176,1436464504514,-0.92775315,9.85633,1.8261774
177,1436464504533,-1.1121067,9.946711,1.7956513
178,1436464504553,-1.258153,9.928156,1.8022354
179,1436464504573,-1.3192052,9.894038,1.7956513
180,1436464504595,-1.3018472,9.976639,1.7190368
181,1436464504643,-1.1719618,10.048465,1.6011224
182,1436464504646,-1.0893618,10.078991,1.590947
183,1436464504662,-0.90141696,10.050261,1.5945383
184,1436464504670,-0.76075757,10.014946,1.6346412
185,1436464504695,-0.7356185,9.986814,1.6831238
186,1436464504713,-0.7493851,10.020931,1.7417817
187,1436464504730,-0.80804306,10.0341,1.738789
188,1436464504752,-0.8738836,10.049662,1.7405846
189,1436464504770,-0.95349085,10.05864,1.6825253
190,1436464504791,-0.93373865,9.993997,1.6968905
191,1436464504811,-0.8619126,9.9550905,1.7250223
192,1436464504833,-0.82121116,9.968858,1.7070658
193,1436464504851,-0.84575176,10.119094,1.6286557
194,1436464504873,-0.8984242,10.231621,1.5478514
195,1436464504916,-0.8403648,10.2974615,1.5065514
196,1436464504917,-0.789488,10.298658,1.5107412
197,1436464504933,-0.83617496,10.205285,1.4155718
198,1436464504953,-0.7314286,10.032304,1.4047978
199,1436464504973,-0.5554548,10.006566,1.4377182
200,1436464504995,-0.41000703,10.107721,1.460463
201,1436464505011,-0.40282443,10.092757,1.5334862
202,1436464505031,-0.51954174,10.052654,1.5735891
203,1436464505053,-0.59974754,10.044274,1.5041572
204,1436464505073,-0.6015432,10.051457,1.4652514
205,1436464505091,-0.4842273,10.020332,1.5185224
206,1436464505112,-0.28909984,9.979631,1.6514006
207,1436464505133,-0.22325931,10.014347,1.6741456
208,1436464505155,-0.3333926,10.031107,1.5849615
209,1436464505175,-0.46208093,10.031705,1.620276
210,1436464505195,-0.5746084,10.0903635,1.553837
211,1436464505213,-0.62368953,10.094553,1.5358804
212,1436464505230,-0.5883751,10.1065235,1.5705963
213,1436464505252,-0.5722142,10.115502,1.5676036
214,1436464505275,-0.5650316,10.0748005,1.5837644
215,1436464505292,-0.6027403,10.117298,1.644218
216,1436464505310,-0.6392518,10.110115,1.6166847
217,1436464505362,-0.59376204,10.101735,1.6232687
218,1436464505363,-0.5758055,10.125079,1.6130934
219,1436464505380,-0.56563014,10.065823,1.6160861
220,1436464505390,-0.51595044,10.080188,1.6705543
221,1436464505414,-0.45070848,10.022128,1.7016789
222,1436464505433,-0.46148238,9.933543,1.7274165
223,1436464505453,-0.5734113,9.988011,1.7184383
224,1436464505474,-0.6811504,10.015544,1.7238252
225,1436464505490,-0.7344214,10.032304,1.7142484
226,1436464505514,-0.7787141,9.97185,1.7489643
227,1436464505536,-0.8098387,9.917382,1.7645266
228,1436464505552,-0.8463503,9.9473095,1.7842789
229,1436464505570,-0.8415619,9.962872,1.8052281
230,1436464505594,-0.89782566,10.041282,1.751957
231,1436464505614,-0.99538934,10.055647,1.7100586
232,1436464505634,-1.0594343,10.0029745,1.7088615
233,1436464505651,-1.0636241,9.928156,1.821389
234,1436464505674,-1.0767922,10.109517,1.8680758
235,1436464505694,-1.1145009,10.271125,1.762731
236,1436464505714,-1.043872,10.153211,1.7675194
237,1436464505734,-0.87448215,9.986216,1.8249803
238,1436464505755,-0.7721301,9.822212,1.9644425
239,1436464505771,-0.82599956,9.796474,1.95307
240,1436464505793,-0.9636662,9.956886,1.8441339
241,1436464505814,-1.027711,10.109517,1.809418
242,1436464505834,-1.0097545,10.135254,1.9063832
243,1436464505857,-1.0540473,10.134656,1.917157
244,1436464505874,-1.1390414,10.134057,1.821389
245,1436464505894,-1.1456255,10.083779,1.751957
246,1436464505914,-1.055843,10.042479,1.6998832
247,1436464505934,-0.85532856,9.872491,1.7998412
248,1436464505955,-0.65900403,9.857527,1.9021933
249,1436464505974,-0.56922144,9.907207,1.9201498
250,1436464505995,-0.5351041,9.900622,1.8956091
251,1436464506014,-0.49081135,9.907805,1.9201498
252,1436464506103,-0.41299978,9.8515415,1.9315223
253,1436464506104,-0.338181,9.81922,1.9853917
254,1436464506105,-0.37828386,9.771336,2.0111294
255,1436464506106,-0.53330845,9.75697,2.0482395
256,1436464506141,-0.7266402,9.915586,1.9973627
257,1436464506142,-0.9127894,10.077195,1.8441339
258,1436464506151,-1.0115502,10.204087,1.7058687
259,1436464506172,-0.98102415,10.219051,1.6041151
260,1436464506195,-0.7906851,10.068216,1.6885108
261,1436464506212,-0.54288524,10.007165,1.8626889
262,1436464506231,-0.38367084,9.938332,1.9177556
263,1436464506251,-0.3345897,9.898229,1.929128
264,1436464506279,-0.41060558,9.929353,1.9668367
265,1436464506300,-0.6344634,10.107721,1.8136078
266,1436464506315,-0.7858967,10.08737,1.7866731
267,1436464506332,-0.7565677,10.039486,1.8866309
268,1436464506352,-0.6859388,9.9951935,1.9434932
269,1436464506371,-0.6967127,10.011354,1.9333179
270,1436464506392,-0.74758947,10.02572,1.8926164
271,1436464506412,-0.7218518,9.991602,1.8746599
272,1436464506432,-0.6362591,10.00477,1.8537107
273,1436464506453,-0.54887074,9.993398,1.8752584
274,1436464506472,-0.44232875,9.981427,1.9692309
275,1436464506492,-0.38486794,10.028712,1.9949685
276,1436464506512,-0.48243165,10.0341,1.9734207
277,1436464506532,-0.5931635,9.961076,1.9482816
278,1436464506555,-0.60573304,9.927557,1.9596541
279,1436464506572,-0.6338649,9.937134,1.970428
280,1436464506592,-0.6464345,9.930551,1.9919758
281,1436464506612,-0.6254852,10.016143,2.0111294
282,1436464506630,-0.65660983,10.057443,2.0057425
283,1436464506651,-0.6745663,10.0269165,2.0380642
284,1436464506672,-0.6937199,10.0029745,2.0488381
285,1436464506693,-0.6919243,9.931149,2.0530279
286,1436464506710,-0.7152678,9.962872,2.0530279
287,1436464506732,-0.7272388,10.017939,2.023699
288,1436464506752,-0.748188,10.009559,1.9788077
289,1436464506775,-0.76434886,9.960478,1.9931729
290,1436464506792,-0.7763199,10.032902,1.9782091
291,1436464506815,-0.84216046,10.047866,1.9871874
292,1436464506831,-0.8655039,10.073005,1.9979613
293,1436464506851,-0.81343,10.053851,1.9901801
294,1436464506872,-0.7266402,10.013748,1.951873
295,1436464506895,-0.6392518,10.061034,1.9446903
296,1436464506915,-0.59136784,10.035895,1.8896236
297,1436464506932,-0.5398925,9.974244,1.8980033
298,1436464506951,-0.50517654,9.89763,1.9877859
299,1436464506976,-0.47644615,9.907805,2.0033484
300,1436464506991,-0.55964464,9.909002,1.9871874
301,1436464507016,-0.5979519,9.941922,1.9428947
302,1436464507035,-0.62129533,9.962872,1.9189527
303,1436464507055,-0.60693014,9.99639,1.9213469
304,1436464507076,-0.6003461,10.032304,1.9405005
305,1436464507096,-0.5722142,9.995792,2.0141222
306,1436464507115,-0.5446809,10.00896,2.034473
307,1436464507134,-0.5895722,10.048465,1.9566613
308,1436464507154,-0.6194997,9.985617,1.9231426
309,1436464507173,-0.5710171,9.925163,1.9512744
310,1436464507195,-0.51235914,9.924564,1.9746178
311,1436464507215,-0.4830302,9.97604,2.0248961
312,1436464507235,-0.54887074,10.092757,1.9931729
313,1436464507254,-0.5919664,10.045472,1.927931
314,1436464507273,-0.55006784,9.919178,1.9602526
315,1436464507295,-0.4782418,9.968259,1.9405005
316,1436464507315,-0.49919105,9.959879,1.9381063
317,1436464507335,-0.48841715,9.948506,1.9710265
318,1436464507356,-0.48722005,9.991004,2.0003555
319,1436464507375,-0.48003745,10.012551,1.9847932
320,1436464507394,-0.55006784,9.9951935,2.0081367
321,1436464507414,-0.6500258,9.999383,1.988983
322,1436464507432,-0.7044938,10.019734,1.9375077
323,1436464507497,-0.7152678,10.0269165,1.8992004
324,1436464507498,-0.6775591,10.006566,1.9003977
325,1436464507499,-0.55365914,10.045472,1.9841946
326,1436464507521,-0.52073884,10.119094,1.9722236
327,1436464507532,-0.5243302,10.042479,1.9853917
328,1436464507555,-0.50757074,9.837775,1.9734207
329,1436464507572,-0.44232875,9.604341,1.9183542
330,1436464507594,-0.37349546,9.540894,1.858499
331,1436464507613,-0.4225766,9.731832,1.8561049
332,1436464507635,-0.55485624,9.994595,1.9243397
333,1436464507654,-0.6751649,10.13286,2.022502
334,1436464507674,-0.81642276,10.0664215,2.0362685
335,1436464507696,-1.0175357,9.991602,1.9901801
336,1436464507712,-1.2641385,9.991602,1.851915
337,1436464507736,-1.3533225,10.045472,1.8740613
338,1436464507756,-1.18094,10.140641,1.905186
339,1436464507776,-0.9331401,10.149021,1.8590976
340,1436464507794,-0.75237787,10.083779,1.8016368
341,1436464507816,-0.6584055,9.929353,1.8010383
342,1436464507836,-0.5351041,9.859921,1.8788497
343,1436464507856,-0.362123,9.928156,1.9147629
344,1436464507878,-0.22325931,9.992201,1.8435353
345,1436464507893,-0.15622166,10.064626,1.857302
346,1436464507917,-0.08020575,10.1699705,1.9560628
347,1436464507935,-0.015562311,10.268132,1.9865888
348,1436464507955,-0.050278235,10.3214035,1.9452889
349,1436464507976,-0.1945289,10.2657385,1.8980033
350,1436464507997,-0.32561144,10.14543,1.8267759
351,1436464508016,-0.35254622,10.073604,1.7615339
352,1436464508033,-0.2741361,10.019734,1.7980455
353,1436464508053,-0.14425065,10.093356,1.8411411
354,1436464508075,-0.10594343,10.055647,1.887828
355,1436464508094,-0.092176765,10.048465,1.9033904
356,1436464508113,-0.17776948,10.059238,1.8938135
357,1436464508134,-0.2621651,10.009559,1.8130093
358,1436464508186,-0.32920274,9.953894,1.6759412
359,1436464508187,-0.38307226,9.915586,1.6130934
360,1436464508203,-0.2717419,9.816826,1.6519991
361,1436464508213,-0.16699557,9.863512,1.6633717
362,1436464508235,-0.15622166,9.834184,1.7447745
363,1436464508255,-0.2136825,9.953894,1.7657237
364,1436464508275,-0.40342298,10.107721,1.6478093
365,1436464508296,-0.54049104,10.162787,1.6537948
366,1436464508314,-0.61112,10.108918,1.7172412
367,1436464508335,-0.60094464,10.043077,1.7878702
368,1436464508355,-0.55964464,10.028113,1.8010383
369,1436464508375,-0.59017074,9.981427,1.7681179
370,1436464508396,-0.6823475,9.922171,1.7375919
371,1436464508416,-0.7739257,9.940127,1.6962919
372,1436464508436,-0.85891986,9.936536,1.6573862
373,1436464508457,-0.93134445,9.878476,1.7202339
374,1436464508477,-0.943914,9.927557,1.714847
375,1436464508497,-0.95708215,9.941922,1.6525977
376,1436464508517,-0.973243,9.973047,1.6089035
377,1436464508537,-0.943914,10.0029745,1.5298948
378,1436464508557,-0.82899237,10.062231,1.5448587
379,1436464508577,-0.6937199,10.1699705,1.5221137
380,1436464508595,-0.5859809,10.168773,1.5251064
381,1436464508617,-0.56084174,10.123882,1.5251064
382,1436464508636,-0.53570265,10.079589,1.5167267
383,1436464508656,-0.5919664,10.125677,1.4197617
384,1436464508674,-0.6183026,10.097546,1.359308
385,1436464508697,-0.5835867,10.0825815,1.4077905
386,1436464508717,-0.5650316,10.095152,1.3856442
387,1436464508737,-0.4902128,10.032304,1.3790601
388,1436464508757,-0.40462008,10.080787,1.3874398
389,1436464508776,-0.30346507,10.131663,1.3946224
390,1436464508794,-0.14065935,10.142437,1.4107834
391,1436464508815,-0.079008654,10.118495,1.388637
392,1436464508836,-0.06404489,10.031705,1.3754689
393,1436464508854,-0.16400282,9.898827,1.3820529
394,1436464508907,-0.30346507,9.909002,1.3467385
395,1436464508908,-0.40641573,9.991004,1.3006501
396,1436464508925,-0.40462008,10.052056,1.2797008
397,1436464508934,-0.33399114,10.165182,1.3000516
398,1436464508959,-0.3489549,10.313024,1.2916719
399,1436464508977,-0.41718966,10.404003,1.3174095
400,1436464508994,-0.41000703,10.415975,1.3108255
401,1436464509014,-0.30765492,10.353127,1.2838906
402,1436464509034,-0.2100912,10.20289,1.323395
403,1436464509056,-0.17058687,10.074203,1.2898762
404,1436464509131,-0.16460137,9.989208,1.2868834
405,1436464509132,-0.18136078,10.049662,1.2467805
406,1436464509133,-0.25558102,10.102334,1.2491747
407,1436464509134,-0.3489549,10.135853,1.3180081
408,1436464509154,-0.3693056,10.181343,1.3144168
409,1436464509174,-0.43275195,10.149619,1.3227965
410,1436464509194,-0.50517654,10.135853,1.3042414
411,1436464509214,-0.53689975,10.181941,1.2773066
