id,attr_time,attr_x,attr_y,attr_z
1,1436464501016,-0.5758055,9.255983,1.3012487
2,1436464501033,-0.6039374,8.992621,1.2366052
3,1436464501055,-0.7428011,8.916606,1.2294226
4,1436464501073,-0.9696517,8.90643,1.2150574
5,1436464501094,-1.1204864,8.957906,1.3551182
6,1436464501113,-1.0708067,9.108741,1.228824
7,1436464501137,-0.9804256,9.193136,1.1234791
8,1436464501184,-0.86370826,9.230247,0.93134445
9,1436464501185,-0.7553706,9.506777,0.89303726
10,1436464501201,-0.7445967,9.816826,1.0534488
11,1436464501213,-0.7757214,10.224439,1.158195
12,1436464501233,-0.81642276,10.508151,1.276708
13,1436464501253,-0.8355764,10.513538,1.3611037
14,1436464501273,-0.74639237,10.226832,1.407192
15,1436464501294,-0.6278794,9.953894,1.4101849
16,1436464501315,-0.6039374,9.522339,1.3634979
17,1436464501334,-0.664391,9.111733,1.3383588
18,1436464501353,-0.7763199,8.91062,1.3509283
19,1436464501375,-0.8846575,8.896853,1.3946224
20,1436464501393,-0.99419224,9.024344,1.3018472
21,1436464501416,-1.091756,9.17099,1.2096704
22,1436464501436,-1.1288661,9.307459,1.1246762
23,1436464501456,-1.1336545,9.462483,1.1558008
24,1436464501473,-1.1001357,9.560047,1.1659763
25,1436464501494,-0.90620536,9.592369,1.1139023
26,1436464501516,-0.75357497,9.674969,1.0630256
27,1436464501536,-0.7326257,9.651626,1.0528502
28,1436464501556,-0.78050977,9.701904,1.1192893
29,1436464501576,-0.84216046,9.892242,1.1923125
30,1436464501599,-0.9588778,10.000581,1.216853
31,1436464501616,-1.1719618,9.980828,1.2348095
32,1436464501636,-1.3718776,9.694721,1.1354501
33,1436464501656,-1.3521254,9.44333,1.0570401
34,1436464501674,-1.1605892,9.343372,1.002572
35,1436464501696,-0.9379285,9.375694,1.043872
36,1436464501715,-0.82240826,9.411607,0.99898064
37,1436464501735,-0.8110358,9.494206,0.8984242
38,1436464501755,-0.83378077,9.586384,0.8774749
39,1436464501777,-0.8834604,9.827001,0.91458505
40,1436464501794,-0.90979666,9.929353,0.86969376
41,1436464501814,-0.87208796,9.857527,0.866701
42,1436464501834,-0.76434886,9.7803135,0.8355764
43,1436464501861,-0.724246,9.803658,0.74399817
44,1436464501938,-0.7811083,9.661801,0.7433996
45,1436464501939,-0.7128736,9.576208,0.7846996
46,1436464501940,-0.44651863,9.48882,0.99778354
47,1436464501941,-0.16220717,9.331401,0.81642276
48,1436464502018,-0.2208651,8.98903,0.54288524
49,1436464502019,-0.53450555,8.871715,0.58418524
50,1436464502020,-0.99898064,9.069236,0.78050977
51,1436464502021,-1.3910311,9.409811,0.82001406
52,1436464502033,-1.5346833,9.651626,0.760159
53,1436464502054,-1.4059949,9.863512,0.6805518
54,1436464502074,-1.1623849,9.961076,0.6889315
55,1436464502106,-0.9792285,9.847352,0.6452374
56,1436464502114,-0.9540894,9.894038,0.6596026
57,1436464502134,-0.95708215,9.995792,0.7104794
58,1436464502157,-0.95109665,10.040684,0.6332663
59,1436464502174,-0.95588505,9.952098,0.52732295
60,1436464502196,-0.8858546,9.797073,0.3800795
61,1436464502214,-0.7739257,9.7641535,0.27234045
62,1436464502234,-0.7158663,9.690532,0.3333926
63,1436464502254,-0.6835446,9.637859,0.41180268
64,1436464502274,-0.61890113,9.560047,0.39444473
65,1436464502296,-0.5351041,9.456498,0.26396075
66,1436464502314,-0.60453594,9.385869,0.05805939
67,1436464502335,-0.7104794,9.362526,0.088585466
68,1436464502354,-0.76075757,9.472659,0.19153613
69,1436464502374,-0.78410107,9.522937,0.16340427
70,1436464502394,-0.8002619,9.523536,0.05626374
71,1436464502414,-0.83258367,9.5798,-0.049679685
72,1436464502434,-0.8379706,9.614515,-0.092176765
73,1436464502456,-0.83018947,9.677363,-0.06584055
74,1436464502474,-0.7751228,9.759365,-0.023343466
75,1436464502496,-0.7314286,9.844957,-0.049081136
76,1436464502517,-0.7248446,9.954493,-0.1412579
77,1436464502538,-0.7667431,9.8683,-0.08080431
78,1436464502558,-0.7445967,9.803059,0.053869538
79,1436464502579,-0.7314286,9.704897,0.08499416
80,1436464502598,-0.6147113,9.695918,0.044292733
81,1436464502615,-0.51475334,9.722255,-0.048482586
82,1436464502639,-0.4309563,9.712079,-0.1376666
83,1436464502668,-0.3800795,9.651027,-0.18495208
84,1436464502673,-0.3788824,9.567828,-0.18315643
85,1436464502697,-0.32680854,9.545084,-0.21068975
86,1436464502714,-0.26036942,9.643845,-0.2813187
87,1436464502734,-0.16699557,9.750386,-0.3669114
88,1436464502756,-0.11731588,9.822212,-0.4381389
89,1436464502776,-0.093373865,9.861118,-0.53809685
90,1436464502794,-0.10474633,9.964667,-0.4237737
91,1436464502815,-0.08738836,10.043676,-0.3357868
92,1436464502836,-0.17058687,9.96766,-0.37948096
93,1436464502858,-0.26276365,9.870695,-0.49320555
94,1436464502874,-0.34715924,9.959281,-0.5823896
95,1436464502898,-0.42437226,10.159196,-0.57281274
96,1436464502918,-0.42556936,10.205285,-0.44352585
97,1436464502936,-0.25677812,10.040684,-0.31543607
98,1436464502958,0.030526072,9.886257,-0.3184288
99,1436464502978,0.107739076,9.858126,-0.45370123
100,1436464502998,0.023343466,9.80665,-0.43634325
101,1436464503018,0.023942016,9.83957,-0.29867667
102,1436464503034,0.08259996,9.734225,-0.21308395
103,1436464503058,0.18195933,9.483433,-0.23942018
104,1436464503077,0.14544775,9.236232,-0.3633201
105,1436464503097,0.27593175,9.0476885,-0.59376204
106,1436464503117,0.18734628,9.131485,-0.56802434
107,1436464503136,0.076614454,9.218275,-0.5398925
108,1436464503159,0.030526072,9.263765,-0.4794389
109,1436464503174,0.035314474,9.353547,-0.53211135
110,1436464503208,0.017956512,9.467272,-0.58298814
111,1436464503217,0.1364695,9.533711,-0.5129577
112,1436464503235,0.2681506,9.713875,-0.40821138
113,1436464503255,0.3890578,9.721058,-0.3645172
114,1436464503275,0.45250413,9.728839,-0.3321955
115,1436464503295,0.5081693,9.654019,-0.3489549
116,1436464503320,0.5129577,9.620501,-0.43514615
117,1436464503338,0.45250413,9.555858,-0.34356794
118,1436464503358,0.42916065,9.562442,-0.23702596
119,1436464503375,0.4285621,9.446322,-0.22565351
120,1436464503395,0.4758476,9.271546,-0.40043023
121,1436464503415,0.4866215,9.244013,-0.48602295
122,1436464503435,0.47345337,9.4696665,-0.32621
123,1436464503456,0.47285482,9.982025,-0.12090719
124,1436464503475,0.44232875,10.201095,-0.20171149
125,1436464503496,0.3489549,10.342353,-0.32142156
126,1436464503515,0.23463176,10.369886,-0.37588966
127,1436464503535,0.107739076,10.208278,-0.25797522
128,1436464503555,0.008379706,10.061633,-0.1448492
129,1436464503575,0.047285482,9.950302,-0.051475335
130,1436464503594,0.17238252,9.852738,-0.05746084
131,1436464503614,0.23822308,9.706693,-0.05865794
132,1436464503634,0.24660277,9.495404,0.044292733
133,1436464503654,0.33997664,9.51336,0.050278235
134,1436464503674,0.45848963,9.667188,0.11671733
135,1436464503696,0.49440265,9.680356,0.12389994
136,1436464503718,0.480636,9.776124,0.076614454
137,1436464503738,0.5009867,9.902418,-0.10414778
138,1436464503757,0.56682724,9.992201,-0.1412579
139,1436464503775,0.581791,10.020332,-0.08200141
140,1436464503796,0.6380547,9.817424,0.019752163
141,1436464503816,0.7380127,9.527127,0.23762453
142,1436464503838,0.7164649,9.3738985,0.2765303
143,1436464503858,0.59136784,9.2308445,0.23822308
144,1436464503878,0.3633201,9.236232,0.31543607
145,1436464503898,0.16220717,9.57142,0.49679685
146,1436464503918,0.060453594,9.96347,0.45010993
147,1436464503936,-0.054468088,9.920973,0.31483752
148,1436464503955,-0.02932897,9.807249,0.3333926
149,1436464503977,0.10295067,9.619304,0.46028528
150,1436464503999,0.30645782,9.338584,0.36391866
151,1436464504016,0.5177461,8.94773,0.3357868
152,1436464504041,0.82779527,8.862736,0.24600422
153,1436464504070,0.96905315,9.124303,0.2777274
154,1436464504075,0.97144735,9.545682,0.40880993
155,1436464504095,0.8631097,9.918579,0.4878186
156,1436464504117,0.7769185,10.09156,0.4950012
157,1436464504137,0.7326257,10.073604,0.44651863
158,1436464504155,0.74878657,9.912594,0.3716998
159,1436464504177,0.75716627,9.831191,0.2681506
160,1436464504195,0.7015011,9.773131,0.22984336
161,1436464504220,0.65900403,9.798869,0.20590134
162,1436464504237,0.60094464,9.8437605,0.18734628
163,1436464504259,0.557849,9.792285,0.1945289
164,1436464504281,0.50757074,9.670779,0.13706805
165,1436464504300,0.47225627,9.522339,0.09995792
166,1436464504319,0.46866497,9.451111,0.12330139
167,1436464504338,0.51475334,9.451111,0.09935937
168,1436464504359,0.52492875,9.631275,0.05327099
169,1436464504376,0.41359833,9.686341,0.04369418
170,1436464504398,0.33159694,9.794679,0.11552023
171,1436464504415,0.32202014,10.049063,0.010175358
172,1436464504439,0.4225766,10.1699705,0.049679685
173,1436464504456,0.57161564,9.890448,-0.008978256
174,1436464504477,0.6434417,9.657611,-0.08559271
175,1436464504499,0.5734113,9.551667,0.03232172
176,1436464504549,0.51714754,9.67856,0.10594343
177,1436464504550,0.40102878,9.764751,0.08080431
178,1436464504557,0.30705637,9.827001,-0.03232172
179,1436464504579,0.27473465,9.715072,-0.020949265
180,1436464504599,0.30107087,9.675568,0.08619126
181,1436464504619,0.35314476,9.680356,0.22804771
182,1436464504639,0.42317516,9.7240505,0.26515785
183,1436464504659,0.4333505,9.768343,0.25258827
184,1436464504679,0.39743748,9.737817,0.34356794
185,1436464504699,0.3645172,9.743204,0.36990416
186,1436464504720,0.30166942,9.862914,0.24660277
187,1436464504739,0.079008654,9.706693,0.3226187
188,1436464504809,-0.050876785,9.590573,0.25737667
189,1436464504810,-0.049679685,9.610326,0.31783026
190,1436464504811,-0.10474633,9.780912,0.34117374
191,1436464504819,-0.1592144,9.932944,0.14185645
192,1436464504838,-0.21547815,9.885659,0.017956512
193,1436464504859,-0.13467385,9.812037,0.0724246
194,1436464504876,0.06284779,9.789292,0.272939
195,1436464504898,0.1316811,9.706693,0.35075054
196,1436464504917,0.08319851,9.524733,0.42197806
197,1436464504938,0.032920275,9.497798,0.43275195
198,1436464504957,-0.05805939,9.510367,0.44592008
199,1436464504980,-0.20709845,9.484032,0.5141548
200,1436464505001,-0.3196259,9.566033,0.6075287
201,1436464505019,-0.3890578,9.610924,0.4985925
202,1436464505040,-0.3866636,9.518148,0.3788824
203,1436464505060,-0.37588966,9.599552,0.4309563
204,1436464505080,-0.34476504,9.6049385,0.47884035
205,1436464505099,-0.35194764,9.638457,0.45789108
206,1436464505120,-0.3393781,9.662998,0.41599256
207,1436464505140,-0.29807812,9.746795,0.41060558
208,1436464505160,-0.26994625,9.749189,0.38965634
209,1436464505178,-0.28491,9.664794,0.39085343
210,1436464505200,-0.30765492,9.627684,0.44831428
211,1436464505220,-0.36750996,9.674371,0.46148238
212,1436464505240,-0.39983168,9.733028,0.5303157
213,1436464505258,-0.31124622,9.709685,0.4866215
214,1436464505280,-0.22625206,9.660006,0.50278234
215,1436464505300,-0.20829555,9.631275,0.4950012
216,1436464505319,-0.21428105,9.577405,0.5021838
217,1436464505340,-0.23044191,9.64564,0.4321534
218,1436464505360,-0.25139117,9.7007065,0.32441434
219,1436464505379,-0.24779987,9.782109,0.25019407
220,1436464505399,-0.31902736,9.876082,0.2669535
221,1436464505420,-0.40641573,9.909002,0.2753332
222,1436464505531,-0.4189853,9.865907,0.31304187
223,1436464505532,-0.39683893,9.691729,0.3345897
224,1436464505533,-0.3238158,9.561843,0.36032736
225,1436464505534,-0.3184288,9.683349,0.40402153
226,1436464505535,-0.29209262,9.660006,0.37828386
227,1436464505547,-0.2633622,9.644443,0.33039984
228,1436464505559,-0.18315643,9.657013,0.32142156
229,1436464505577,-0.15143326,9.63726,0.4261679
230,1436464505597,-0.08080431,9.66659,0.5081693
231,1436464505620,-0.033518825,9.673173,0.46567222
232,1436464505637,-0.05865794,9.615712,0.26874915
233,1436464505657,-0.11731588,9.565434,0.29209262
234,1436464505712,-0.12449849,9.61691,0.37948096
235,1436464505713,-0.12928689,9.794081,0.46088383
236,1436464505729,-0.24241292,9.81922,0.3561375
237,1436464505742,-0.20829555,9.768942,0.30166942
238,1436464505758,-0.16879122,9.739613,0.31543607
239,1436464505780,-0.1364695,9.7162695,0.33997664
240,1436464505800,-0.12270284,9.739014,0.40581718
241,1436464505820,-0.14305355,9.745598,0.44711718
242,1436464505840,-0.14604631,9.7719345,0.45070848
243,1436464505860,-0.14724341,9.782109,0.4189853
244,1436464505880,-0.110731825,9.7007065,0.38845924
245,1436464505900,-0.090381116,9.7402115,0.3716998
246,1436464505921,-0.09756372,9.67856,0.43873745
247,1436464505940,-0.1388637,9.640852,0.53929394
248,1436464505961,-0.15083471,9.671378,0.5734113
249,1436464505978,-0.16879122,9.698911,0.533907
250,1436464506000,-0.18136078,9.691729,0.51116204
251,1436464506019,-0.14963761,9.626487,0.5231331
252,1436464506039,-0.14844051,9.636662,0.5530606
253,1436464506060,-0.18076223,9.64145,0.57161564
254,1436464506080,-0.24181437,9.694721,0.6332663
255,1436464506101,-0.29388827,9.731832,0.61770403
256,1436464506120,-0.29807812,9.705495,0.62129533
257,1436464506141,-0.28491,9.674969,0.6464345
258,1436464506160,-0.24720132,9.6767645,0.61650693
259,1436464506180,-0.31064767,9.691729,0.6218939
260,1436464506200,-0.39983168,9.663596,0.56084174
261,1436464506219,-0.42796355,9.746795,0.6997054
262,1436464506239,-0.32202014,9.797073,0.80924016
263,1436464506293,-0.13946225,9.705495,0.88166475
264,1436464506294,-0.19153613,9.564836,0.78290397
265,1436464506307,-0.29568392,9.5798,0.76315176
266,1436464506318,-0.3788824,9.6845455,0.80325466
267,1436464506343,-0.46866497,9.740809,0.8882488
268,1436464506360,-0.46866497,9.81084,0.9463082
269,1436464506380,-0.41060558,9.816826,0.8702923
270,1436464506404,-0.25737667,9.658808,0.6943185
271,1436464506420,-0.16759412,9.569624,0.6979098
272,1436464506438,-0.09876082,9.513959,0.7739257
273,1436464506461,-0.04129998,9.5253315,0.9151836
274,1436464506483,-0.0700304,9.622296,0.919972
275,1436464506499,-0.11372458,9.606734,0.84694886
276,1436464506521,-0.14844051,9.570822,0.8242039
277,1436464506539,-0.09696517,9.589376,0.87687635
278,1436464506559,-0.08319851,9.545084,0.95349085
279,1436464506578,-0.12808979,9.448118,1.0085574
280,1436464506598,-0.15083471,9.388862,0.92535895
281,1436464506632,-0.12749124,9.607333,0.86729956
282,1436464506637,-0.089782566,9.80665,0.7793127
283,1436464506659,-0.06344634,9.943718,0.6889315
284,1436464506680,-0.04249708,9.934141,0.66379243
285,1436464506699,0.017956512,9.844957,0.6027403
286,1436464506718,0.013766659,9.679159,0.57041854
287,1436464506739,-0.031124622,9.592968,0.6003461
288,1436464506760,-0.065242,9.561244,0.61171854
289,1436464506782,-0.05746084,9.607931,0.59017074
290,1436464506802,-0.06943185,9.674371,0.60333884
291,1436464506821,-0.053869538,9.798869,0.54288524
292,1436464506841,-0.005985504,9.807847,0.5386954
293,1436464506860,0.046686932,9.7007065,0.5746084
294,1436464506878,0.10175357,9.695918,0.5758055
295,1436464506900,0.12928689,9.722853,0.5781997
296,1436464506919,0.08020575,9.687539,0.55725044
297,1436464506939,0.05207389,9.662399,0.52492875
298,1436464506963,0.11851298,9.742006,0.55964464
299,1436464506992,0.1364695,9.803059,0.62249243
300,1436464507006,0.18614918,9.779716,0.6063316
301,1436464507020,0.110133275,9.722255,0.61411273
302,1436464507039,0.109534726,9.665991,0.58897364
303,1436464507060,0.13467385,9.631275,0.62847793
304,1436464507082,0.1436521,9.655815,0.6410475
305,1436464507098,0.10055647,9.662399,0.6907272
306,1436464507120,0.08319851,9.735423,0.6596026
307,1436464507140,0.077811554,9.79827,0.6745663
308,1436464507162,0.0712275,9.764751,0.6727707
309,1436464507182,0.08379706,9.731233,0.7356185
310,1436464507200,0.0724246,9.6845455,0.74878657
311,1436464507220,0.061650693,9.680955,0.7697359
312,1436464507242,0.032920275,9.741408,0.7870938
313,1436464507262,0.025737667,9.713875,0.81402856
314,1436464507282,0.048482586,9.703699,0.7673417
315,1436464507302,0.023343466,9.651027,0.7751228
316,1436464507322,-0.033518825,9.715072,0.79607207
317,1436464507343,-0.05327099,9.745,0.79726917
318,1436464507360,-0.02873042,9.7479925,0.7589619
319,1436464507380,0.026934769,9.700109,0.6913257
320,1436464507403,0.04309563,9.69113,0.66259533
321,1436464507423,0.05626374,9.680356,0.66498953
322,1436464507443,0.0796072,9.622895,0.7152678
323,1436464507462,0.09756372,9.554661,0.6991069
324,1436464507481,0.12509704,9.580399,0.6404489
325,1436464507501,0.089782566,9.558251,0.7086837
326,1436464507521,0.074818805,9.621698,0.7314286
327,1436464507543,0.08798691,9.668385,0.770933
328,1436464507566,0.06584055,9.679159,0.61411273
329,1436464507584,0.0700304,9.651626,0.61890113
330,1436464507601,0.107140526,9.706693,0.6907272
331,1436464507625,0.15861586,9.734824,0.7428011
332,1436464507691,0.15741876,9.75697,0.7344214
333,1436464507692,0.14604631,9.7563715,0.6835446
334,1436464507693,0.12749124,9.653421,0.6326678
335,1436464507702,0.107140526,9.6288805,0.7038953
336,1436464507729,0.089184016,9.622296,0.7140707
337,1436464507741,0.11731588,9.710882,0.6847417
338,1436464507762,0.12270284,9.761759,0.6937199
339,1436464507781,0.14664486,9.673173,0.6925228
340,1436464507800,0.19991584,9.693524,0.7398083
341,1436464507821,0.18614918,9.731233,0.7368156
342,1436464507842,0.130484,9.67018,0.6811504
343,1436464507861,0.089782566,9.654019,0.7032967
344,1436464507881,0.09636662,9.6845455,0.7230489
345,1436464507902,0.05865794,9.694122,0.6596026
346,1436464507922,0.048482586,9.689334,0.6805518
347,1436464507942,0.04070143,9.731233,0.7158663
348,1436464507963,0.037110128,9.715072,0.7344214
349,1436464507982,0.109534726,9.733028,0.7068881
350,1436464508003,0.093373865,9.77792,0.6847417
351,1436464508023,0.08020575,9.797672,0.7032967
352,1436464508043,0.023343466,9.757569,0.6847417
353,1436464508063,0.05207389,9.635465,0.7026982
354,1436464508081,0.12210429,9.463082,0.60693014
355,1436464508103,0.130484,9.242816,0.6751649
356,1436464508120,-0.01316811,9.39365,0.76434886
357,1436464508140,-0.13587095,9.861717,0.92895025
358,1436464508160,-0.2124854,10.038289,0.8846575
359,1436464508184,-0.22505496,9.685743,0.7044938
360,1436464508204,-0.05925649,9.391854,0.5482722
361,1436464508225,-0.060453594,9.595961,0.6751649
362,1436464508243,-0.059855044,9.802461,0.58119243
363,1436464508260,-0.15442601,9.813833,0.5093664
364,1436464508281,-0.20051439,9.777321,0.4201824
365,1436464508301,-0.11731588,9.754577,0.41359833
366,1436464508322,-0.038905777,9.728839,0.4417302
367,1436464508340,-0.011372458,9.622296,0.44113165
368,1436464508393,0.06584055,9.537302,0.58777654
369,1436464508394,0.1921347,9.61691,0.5093664
370,1436464508411,0.29448682,9.661202,0.5189432
371,1436464508420,0.26515785,9.711481,0.44651863
372,1436464508442,0.2645593,10.055049,0.5363012
373,1436464508460,0.12868834,9.995792,0.50397944
374,1436464508481,0.16400282,9.872491,0.4417302
375,1436464508500,0.219668,9.764751,0.45010993
376,1436464508520,0.24241292,9.730635,0.44113165
377,1436464508540,0.33279404,9.740809,0.45669398
378,1436464508560,0.2789245,9.700109,0.21547815
379,1436464508580,0.3357868,9.464279,0.2873042
380,1436464508602,0.10654198,9.496601,0.34596214
381,1436464508624,0.25498247,9.615114,0.18435353
382,1436464508643,0.18315643,9.6845455,0.33399114
383,1436464508663,0.06703765,9.618706,0.048482586
384,1436464508683,-0.02633622,9.536704,0.31124622
385,1436464508703,0.13347675,9.602545,0.427365
386,1436464508723,0.26874915,9.692925,0.47524905
387,1436464508743,0.26515785,9.640253,0.42676646
388,1436464508763,0.18255788,9.619304,0.36750996
389,1436464508784,0.046088383,9.716867,0.3645172
390,1436464508801,-0.060453594,9.81503,0.45130703
391,1436464508823,-0.12629414,9.79827,0.47405192
392,1436464508840,-0.11312603,9.753978,0.48602295
393,1436464508860,-0.12030864,9.741408,0.5033809
394,1436464508880,-0.25079262,9.696517,0.6332663
395,1436464508906,-0.29508537,9.669582,0.66858083
396,1436464508926,-0.260968,9.622895,0.6721721
397,1436464508946,-0.26396075,9.677363,0.6871359
398,1436464508963,-0.28670564,9.660604,0.6853402
399,1436464508980,-0.3441665,9.54209,0.6811504
400,1436464509000,-0.3705027,9.52593,0.6619968
401,1436464509020,-0.32022446,9.544485,0.5919664
402,1436464509042,-0.28550854,9.574412,0.58418524
403,1436464509065,-0.25558102,9.630676,0.52373165
404,1436464509121,-0.29209262,9.750386,0.47165772
405,1436464509122,-0.3842694,9.743802,0.34835634
406,1436464509123,-0.35793316,9.765948,0.45609543
407,1436464509145,-0.34955344,9.7479925,0.4405331
408,1436464509161,-0.37349546,9.667188,0.43394905
