id,attr_time,attr_x,attr_y,attr_z
1,1436464501002,-0.43514615,9.548077,-0.75477207
2,1436464501003,-0.57879823,9.672575,-0.7278373
3,1436464501004,-0.6811504,9.682152,-0.7870938
4,1436464501011,-0.6254852,9.603742,-0.81761986
5,1436464501040,-0.5363012,9.507375,-0.7350199
6,1436464501050,-0.48961425,9.528923,-0.64823014
7,1436464501067,-0.45609543,9.61691,-0.57879823
8,1436464501090,-0.3645172,9.648633,-0.64583594
9,1436464501108,-0.2825158,9.589376,-0.6967127
10,1436464501130,-0.26994625,9.569624,-0.8158242
11,1436464501149,-0.25438392,9.498397,-0.81283146
12,1436464501170,-0.29029694,9.515156,-0.8762778
13,1436464501192,-0.3274071,9.590573,-0.9044097
14,1436464501211,-0.25019407,9.543886,-0.90740246
15,1436464501231,-0.091578215,9.461287,-0.8714894
16,1436464501248,0.0023942017,9.428367,-0.8595184
17,1436464501271,-0.060453594,9.552865,-0.7978677
18,1436464501292,-0.24540567,9.607333,-0.7182605
19,1436464501311,-0.23642741,9.59177,-0.75956047
20,1436464501331,-0.08140286,9.510966,-0.770933
21,1436464501351,0.0676362,9.509769,-0.81283146
22,1436464501372,0.025139118,9.546879,-0.86011696
23,1436464501390,-0.10175357,9.543288,-0.83737206
24,1436464501411,-0.14963761,9.562442,-0.7529764
25,1436464501430,-0.14185645,9.566033,-0.6895301
26,1436464501451,-0.22565351,9.662998,-0.7254431
27,1436464501470,-0.3274071,9.65821,-0.7679402
28,1436464501492,-0.35434186,9.610924,-0.83737206
29,1436464501511,-0.31064767,9.5971575,-0.90620536
30,1436464501532,-0.2172738,9.619304,-0.87089086
31,1436464501552,-0.10594343,9.583989,-0.86729956
32,1436464501569,-0.0047884034,9.572019,-0.81163436
33,1436464501591,0.06344634,9.561843,-0.83976626
34,1436464501613,0.05865794,9.5809965,-0.8738836
35,1436464501737,0.074818805,9.546281,-0.88765025
36,1436464501738,0.12928689,9.60853,-0.82121116
37,1436464501739,0.08738836,9.624092,-0.7990648
38,1436464501740,0.0712275,9.610924,-0.8098387
39,1436464501741,0.12689269,9.560646,-0.7846996
40,1436464501742,0.12150574,9.524135,-0.82719666
41,1436464501751,0.14305355,9.6049385,-0.81642276
42,1436464501771,0.10354923,9.783307,-0.61890113
43,1436464501789,0.23942018,9.759365,-0.57520694
44,1436464501812,0.4141969,9.674371,-0.8026561
45,1436464501829,0.36990416,9.778519,-0.7086837
46,1436464501853,0.18734628,9.944916,-0.8206126
47,1436464501870,0.130484,9.935937,-0.57520694
48,1436464501893,0.26635495,9.288305,-0.59017074
49,1436464501912,0.31124622,9.1272955,-0.5069722
50,1436464501932,0.729633,9.112331,-0.6218939
51,1436464501951,0.45250413,9.13388,-0.8110358
52,1436464501969,0.06344634,9.235633,-0.95708215
53,1436464501993,-0.095169514,9.282919,-1.1204864
54,1436464502012,-0.17717093,9.533113,-1.0642227
55,1436464502032,-0.107739076,9.646837,-0.7691373
56,1436464502052,-0.14844051,9.733028,-0.5907693
57,1436464502069,-0.2765303,9.8515415,-0.56922144
58,1436464502095,-0.3477578,9.91439,-0.6051345
59,1436464502109,-0.2908955,9.78989,-0.7685388
60,1436464502132,-0.25617957,9.677363,-1.0205284
61,1436464502151,-0.40761283,9.572019,-1.0546459
62,1436464502173,-0.6404489,9.594165,-0.9487024
63,1436464502192,-0.76434886,9.579201,-0.95827925
64,1436464502212,-0.7386112,9.511565,-1.0324994
65,1436464502232,-0.56084174,9.431359,-1.0726024
66,1436464502252,-0.21188685,9.2865095,-1.0121487
67,1436464502272,0.088585466,9.202114,-1.1246762
68,1436464502293,0.17118542,9.329007,-1.1563994
69,1436464502312,0.045489833,9.51755,-1.0737995
70,1436464502368,-0.12689269,9.583391,-0.9672575
71,1436464502369,-0.20111294,9.629479,-0.92057055
72,1436464502372,-0.23702596,9.660006,-1.0384849
73,1436464502439,-0.3764882,9.695918,-1.0971429
74,1436464502440,-0.50757074,9.640852,-1.2072762
75,1436464502441,-0.61890113,9.664794,-1.2485762
76,1436464502457,-0.52073884,9.596559,-1.2336124
77,1436464502472,-0.38067806,9.526528,-1.2156559
78,1436464502491,-0.3477578,9.552865,-1.168969
79,1436464502510,-0.23044191,9.5492735,-1.2066777
80,1436464502540,-0.049679685,9.499594,-1.2743138
81,1436464502569,0.11671733,9.338584,-1.2611457
82,1436464502570,0.19752164,9.276335,-1.3132197
83,1436464502601,0.20949265,9.330803,-1.3138182
84,1436464502610,0.18016368,9.450513,-1.2785037
85,1436464502631,0.10115502,9.558251,-1.2545617
86,1436464502652,0.12270284,9.598354,-1.2539631
87,1436464502671,0.22146365,9.5798,-1.2521675
88,1436464502697,0.2789245,9.531317,-1.3126211
89,1436464502712,0.12270284,9.540296,-1.5089456
90,1436464502743,-0.12569559,9.493608,-1.4921862
91,1436464502757,-0.17657238,9.413403,-1.5664065
92,1436464502857,-0.094570965,9.379285,-1.7328035
93,1436464502858,-0.12509704,9.357738,-1.8339585
94,1436464502859,-0.22685061,9.566033,-1.8459295
95,1436464502860,-0.09696517,9.643845,-1.8100165
96,1436464502861,0.34596214,9.541492,-1.6944963
97,1436464502869,0.65900403,9.546281,-1.532289
98,1436464502889,0.54408234,9.634268,-1.5795746
99,1436464502909,0.2741361,9.646837,-1.5759833
100,1436464502931,0.13587095,9.654618,-1.5610195
101,1436464502951,0.08559271,9.610326,-1.5155296
102,1436464502971,0.06284779,9.570223,-1.5688007
103,1436464502989,0.046686932,9.55047,-1.5346833
104,1436464503017,-0.038307227,9.537302,-1.5759833
105,1436464503037,-0.08738836,9.521142,-1.5801731
106,1436464503057,-0.05267244,9.402629,-1.5999253
107,1436464503070,0.002992752,9.395446,-1.614889
108,1436464503183,-0.0688333,9.5253315,-1.638831
109,1436464503184,-0.20111294,9.5253315,-1.6256629
110,1436464503185,-0.23942018,9.2865095,-1.6651673
111,1436464503186,-0.24660277,9.257181,-1.8082209
112,1436464503187,-0.11432313,9.346964,-1.6687586
113,1436464503201,0.14844051,9.5492735,-1.553837
114,1436464503213,0.46746787,9.66659,-1.477821
115,1436464503229,0.59495914,9.578004,-1.7753005
116,1436464503249,0.24480712,9.613917,-1.4670471
117,1436464503269,-0.16220717,9.606734,-1.6645688
118,1436464503289,-0.37588966,9.617508,-1.5592239
119,1436464503309,-0.26994625,9.405023,-1.5646108
120,1436464503333,-0.05805939,9.292496,-1.6232687
121,1436464503353,0.061650693,9.438541,-1.4460979
122,1436464503369,0.16460137,9.510966,-1.4347254
123,1436464503393,0.23822308,9.473856,-1.4215573
124,1436464503410,0.16819267,9.506777,-1.3413515
125,1436464503433,-0.040102877,9.485827,-1.3192052
126,1436464503453,-0.1316811,9.590573,-1.3443443
127,1436464503471,-0.12210429,9.677961,-1.4443022
128,1436464503492,0.036511578,9.555858,-1.3784616
129,1436464503509,0.14604631,9.537302,-1.407192
130,1436464503529,0.12330139,9.440337,-1.42455
131,1436464503553,0.05865794,9.439739,-1.4173675
132,1436464503571,-0.09816227,9.594165,-1.3904326
133,1436464503593,-0.12210429,9.464279,-1.4939818
134,1436464503610,-0.006584055,9.491813,-1.4945804
135,1436464503630,0.044891283,9.542689,-1.4514848
136,1436464503650,0.027533319,9.562442,-1.4167689
137,1436464503670,-0.13347675,9.566033,-1.4628572
138,1436464503696,-0.28191724,9.560047,-1.7298107
139,1436464503711,-0.2813187,9.497798,-1.5023615
140,1436464503736,-0.16460137,9.424775,-1.6298528
141,1436464503751,-0.11791443,9.575011,-1.7657237
142,1436464503777,-0.1328782,9.723452,-1.7190368
143,1436464503846,0.18794483,9.665991,-1.6519991
144,1436464503847,0.55725044,9.427169,-1.6765398
145,1436464503852,0.6871359,9.423578,-1.4987702
146,1436464503853,0.5793968,9.508572,-1.5113398
147,1436464503870,0.5105635,9.524135,-1.6376339
148,1436464503894,0.5231331,9.543886,-1.5993267
149,1436464503910,0.40222588,9.442732,-1.6759412
150,1436464503930,0.32800564,9.370307,-1.471237
151,1436464503951,0.0005985504,9.533113,-1.6938977
152,1436464503970,-0.19273324,9.643246,-1.4269443
153,1436464503992,-0.20829555,9.683349,-1.3826514
154,1436464504020,-0.038905777,9.616311,-1.3982137
155,1436464504032,-0.048482586,9.625289,-1.5867572
156,1436464504053,-0.16938977,9.594764,-1.496376
157,1436464504074,-0.25139117,9.588778,-1.4526819
158,1436464504094,-0.1945289,9.558251,-1.429937
159,1436464504114,0.09756372,9.610326,-1.3796587
160,1436464504133,0.39444473,9.730036,-1.2922704
161,1436464504154,0.6691794,9.710882,-1.2228385
162,1436464504174,0.7990648,9.648034,-1.0899603
163,1436464504194,0.92176765,9.524733,-1.0193313
164,1436464504214,0.9475053,9.471462,-1.2066777
165,1436464504233,0.7565677,9.472659,-1.0588357
166,1436464504251,0.5895722,9.448717,-0.7224504
167,1436464504274,0.3681085,9.600749,-0.58418524
168,1436464504294,0.16160862,9.69113,-0.7062895
169,1436464504314,0.0724246,9.551667,-0.7338228
170,1436464504332,0.04249708,9.421184,-0.66379243
171,1436464504353,0.079008654,9.287108,-0.599149
172,1436464504373,0.23104046,9.531916,-0.45429978
173,1436464504394,0.39624038,9.874885,-0.3878607
174,1436464504414,0.74639237,9.783307,-0.3764882
175,1436464504431,1.1162965,9.4972,-0.2885013
176,1436464504453,1.2228385,9.304466,-0.110731825
177,1436464504472,0.9564836,9.07582,-0.011372458
178,1436464504493,0.61650693,9.19134,0.11971009
179,1436464504511,0.19991584,9.502586,0.2184709
180,1436464504535,-0.19931729,9.543886,0.24181437
181,1436464504601,-0.3890578,9.435549,0.20290859
182,1436464504602,-0.31543607,9.3421755,0.21547815
183,1436464504603,-0.34356794,9.344569,0.3609259
184,1436464504611,-0.1933318,9.364322,0.51595044
185,1436464504632,-0.2088941,9.609129,0.81163436
186,1436464504653,-0.32441434,9.930551,1.0055647
187,1436464504671,-0.61112,10.079589,1.1773487
188,1436464504691,-0.943914,10.044274,1.271321
189,1436464504713,-1.0696096,9.801862,1.2617443
190,1436464504735,-0.997185,9.614515,1.2659341
191,1436464504754,-0.7469909,9.4295635,1.0827777
192,1436464504772,-0.53211135,9.307459,1.0007763
193,1436464504793,-0.094570965,9.314642,1.5107412
194,1436464504813,-0.20590134,9.273342,0.717662
195,1436464504836,-0.11492168,9.10455,0.8583213
196,1436464504853,0.095169514,9.115324,1.0013748
197,1436464504874,0.15622166,9.18715,0.94451255
198,1436464504894,0.1604115,9.455301,0.9744401
199,1436464504915,0.21547815,9.922171,1.0097545
200,1436464504935,0.29867667,10.175956,1.1354501
201,1436464504953,-0.006584055,10.027515,1.1563994
202,1436464504975,-0.1376666,9.837176,1.3551182
203,1436464504994,-0.45489833,9.631275,1.3174095
204,1436464505012,-0.40940848,9.408614,1.4975731
205,1436464505035,-0.2908955,9.345168,1.4155718
206,1436464505051,-0.1933318,9.307459,1.3156139
207,1436464505072,-0.16579847,9.454702,1.0582372
208,1436464505092,-0.18734628,9.612122,0.9283517
209,1436464505115,-0.094570965,9.692925,1.0534488
210,1436464505135,-0.095169514,9.58818,0.7769185
211,1436464505155,-0.054468088,9.395446,0.587178
212,1436464505173,-0.1933318,9.287108,0.5602432
213,1436464505194,-0.22325931,9.1272955,0.6913257
214,1436464505212,-0.0035913025,8.872313,0.81043726
215,1436464505234,0.28191724,8.780735,0.87807345
216,1436464505262,0.54647654,8.958505,1.0582372
217,1436464505318,0.7769185,9.123704,1.2898762
218,1436464505319,0.6667852,9.183559,1.2330139
219,1436464505320,0.272939,9.357738,1.0265139
220,1436464505341,0.11372458,9.792884,0.9816227
221,1436464505352,0.089184016,9.88506,0.90740246
222,1436464505375,0.12150574,9.858724,0.9792285
223,1436464505393,0.11851298,9.877877,1.0995371
224,1436464505412,0.078410104,9.906608,1.2126632
225,1436464505433,0.15382746,9.759963,1.1845313
226,1436464505452,0.19512744,9.531916,1.1085154
227,1436464505474,0.16280572,9.442732,1.0510546
228,1436464505493,0.05267244,9.32781,1.0055647
229,1436464505515,-0.0700304,9.261371,0.97264445
230,1436464505533,-0.10534488,9.290101,0.86610246
231,1436464505553,0.02633622,9.40203,0.7200562
232,1436464505573,0.14963761,9.514558,0.6655881
233,1436464505595,0.16519992,9.618107,0.8331822
234,1436464505615,-0.02813187,9.691729,1.0462662
235,1436464505635,-0.31244332,9.80665,1.0857705
236,1436464505653,-0.4902128,9.713875,0.93254155
237,1436464505673,-0.56682724,9.5570545,0.81522566
238,1436464505695,-0.54527944,9.583989,0.78410107
239,1436464505714,-0.5554548,9.572617,0.78888947
240,1436464505733,-0.5177461,9.498995,0.80445176
241,1436464505755,-0.50637364,9.46009,0.8182184
242,1436464505773,-0.4914099,9.473258,0.82779527
243,1436464505795,-0.46148238,9.464279,0.9044097
244,1436464505812,-0.521936,9.455301,0.9247604
245,1436464505833,-0.5943606,9.464878,0.91697925
246,1436464505856,-0.7284359,9.483433,0.908001
247,1436464505874,-0.83497787,9.521142,0.90381116
248,1436464505896,-0.9463082,9.518148,0.8948329
249,1436464505915,-0.9648633,9.496002,0.78529817
250,1436464505933,-0.92057055,9.535507,0.79487497
251,1436464505954,-0.7870938,9.523536,0.7332243
252,1436464505972,-0.7517793,9.482236,0.7344214
253,1436464506037,-0.8846575,9.474455,0.7350199
254,1436464506038,-1.0606314,9.505579,0.7038953
255,1436464506039,-1.1875241,9.449316,0.676362
256,1436464506063,-1.3060371,9.375095,0.66498953
257,1436464506072,-1.2677298,9.349358,0.7254431
258,1436464506096,-1.2599486,9.341577,0.7721301
259,1436464506113,-1.0899603,9.448717,0.8690952
260,1436464506132,-1.1031284,9.434352,0.8038532
261,1436464506155,-1.1079168,9.405023,0.6799533
262,1436464506172,-1.0965444,9.361329,0.60693014
263,1436464506196,-1.0672154,9.413403,0.5494693
264,1436464506221,-1.0049661,9.464878,0.6895301
265,1436464506234,-0.9223662,9.440337,0.7745243
266,1436464506253,-0.93732995,9.442732,0.8122329
267,1436464506274,-0.97623575,9.448118,0.7104794
268,1436464506294,-1.0151415,9.479841,0.66738373
269,1436464506316,-1.0354922,9.4774475,0.7044938
270,1436464506336,-1.0055647,9.524733,0.7080852
271,1436464506356,-0.9708488,9.497798,0.7032967
272,1436464506375,-0.9223662,9.461287,0.7236475
273,1436464506394,-0.8499416,9.408614,0.7404069
274,1436464506416,-0.7906851,9.363124,0.79367787
275,1436464506434,-0.7308301,9.369708,0.78410107
276,1436464506454,-0.6368576,9.355942,0.7140707
277,1436464506473,-0.6464345,9.297284,0.6703765
278,1436464506494,-0.7846996,9.254189,0.6817489
279,1436464506519,-0.9528923,9.39365,0.7374141
280,1436464506534,-1.0773908,9.621698,0.6955156
281,1436464506556,-1.103727,9.912594,0.62967503
282,1436464506574,-0.8984242,9.955689,0.5919664
283,1436464506593,-0.7194576,9.762956,0.75836337
284,1436464506614,-0.6931214,9.618706,0.96546185
285,1436464506640,-0.8242039,9.570223,1.0576386
286,1436464506654,-0.9091981,9.545084,0.94810385
287,1436464506675,-0.9451111,9.572019,0.75596917
288,1436464506694,-0.8583213,9.536105,0.6853402
289,1436464506722,-0.7200562,9.46009,0.7565677
290,1436464506770,-0.6087258,9.419388,0.84814596
291,1436464506771,-0.635062,9.404425,0.90381116
292,1436464506774,-0.7553706,9.408015,0.88046765
293,1436464506793,-0.94211835,9.484032,0.7697359
294,1436464506816,-0.86011696,9.483433,0.7697359
295,1436464506835,-0.74998367,9.48044,0.80445176
296,1436464506853,-0.6841431,9.476849,0.90141696
297,1436464506873,-0.7020996,9.504382,0.9427169
298,1436464506894,-0.7637503,9.515755,0.90620536
299,1436464506917,-0.81043726,9.47206,0.842759
300,1436464506934,-0.9127894,9.4774475,0.83378077
301,1436464506955,-0.98700964,9.495404,0.90021986
302,1436464506975,-0.93493575,9.520543,0.9187749
303,1436464506996,-0.9103952,9.575011,0.9624691
304,1436464507017,-0.86729956,9.531317,0.9840169
305,1436464507034,-0.90261406,9.469068,0.9756372
306,1436464507057,-0.9427169,9.481039,0.9139865
307,1436464507077,-0.90141696,9.454702,0.88286185
308,1436464507096,-0.9008184,9.449914,0.9888053
309,1436464507117,-0.93014735,9.482835,1.0666169
310,1436464507137,-0.96546185,9.470863,1.0779893
311,1436464507155,-0.9463082,9.425972,1.0702082
312,1436464507177,-0.91697925,9.408614,1.0510546
313,1436464507197,-0.9283517,9.389461,1.0139444
314,1436464507216,-1.0187328,9.368511,0.9660604
315,1436464507239,-1.1162965,9.414001,0.9900024
316,1436464507257,-1.1599907,9.434352,1.0175357
317,1436464507278,-1.1569979,9.470264,1.0714053
318,1436464507295,-1.1575965,9.475652,1.1264719
319,1436464507314,-1.1354501,9.405023,1.1240777
320,1436464507334,-1.1240777,9.369708,1.1552023
321,1436464507354,-1.1845313,9.391256,1.0779893
322,1436464507378,-1.1647792,9.475652,1.0456676
323,1436464507400,-1.1204864,9.461287,1.0857705
324,1436464507418,-1.0720038,9.399037,1.22224
325,1436464507437,-1.1384429,9.38168,1.2300211
326,1436464507463,-1.2372037,9.36073,1.2922704
327,1436464507518,-1.3144168,9.389461,1.2372037
328,1436464507528,-1.2114661,9.397242,1.2090719
329,1436464507529,-1.0097545,9.492412,1.2551602
330,1436464507537,-0.89902276,9.459491,1.3096284
331,1436464507555,-0.9427169,9.43076,1.3311762
332,1436464507577,-1.0959458,9.379285,1.3000516
333,1436464507594,-1.3066356,9.3421755,1.2695254
334,1436464507614,-1.2330139,9.312846,1.2252327
335,1436464507636,-1.1444284,9.372103,1.2743138
336,1436464507656,-1.1306617,9.4217825,1.2910733
337,1436464507676,-1.1115081,9.420585,1.3311762
338,1436464507696,-1.0151415,9.368511,1.3670892
339,1436464507716,-0.96306765,9.34397,1.3790601
340,1436464507738,-0.96546185,9.393052,1.3054385
341,1436464507758,-0.9600749,9.42238,1.2467805
342,1436464507777,-0.93014735,9.411607,1.2533646
343,1436464507797,-0.8750807,9.324219,1.2192472
344,1436464507817,-0.82360536,9.281721,1.2012907
345,1436464507837,-0.79008657,9.365519,1.2575544
346,1436464507858,-0.7649474,9.41041,1.3227965
347,1436464507875,-0.89423436,9.461287,1.3754689
348,1436464507898,-1.0702082,9.484032,1.3916297
349,1436464507914,-1.0869676,9.419388,1.3772645
350,1436464507939,-0.9900024,9.41041,1.3611037
351,1436464507958,-0.8900445,9.392453,1.3156139
352,1436464507979,-0.8439561,9.387066,1.2563573
353,1436464507998,-0.85173726,9.428367,1.240795
354,1436464508018,-0.86969376,9.411008,1.3275849
355,1436464508037,-0.919972,9.420585,1.3371617
356,1436464508055,-0.9756372,9.441534,1.3329718
357,1436464508075,-0.9995792,9.450513,1.3365631
358,1436464508097,-0.9163807,9.409213,1.3269863
359,1436464508120,-0.88286185,9.4062195,1.3174095
360,1436464508140,-0.8559271,9.42238,1.2886791
361,1436464508160,-0.866701,9.42238,1.3072342
362,1436464508179,-0.90859956,9.431957,1.3293805
363,1436464508198,-0.8924387,9.379285,1.3587095
364,1436464508276,-0.8984242,9.354146,1.3437457
365,1436464508277,-0.89782566,9.367912,1.4059949
366,1436464508278,-0.9068039,9.371504,1.377863
367,1436464508282,-0.9103952,9.333197,1.3449428
368,1436464508297,-0.86011696,9.336189,1.3503298
369,1436464508319,-0.85652566,9.386468,1.3425486
370,1436464508335,-0.87448215,9.431359,1.3365631
371,1436464508355,-0.9151836,9.431359,1.3221979
372,1436464508377,-0.9379285,9.419987,1.3371617
373,1436464508397,-0.94690675,9.430161,1.3365631
374,1436464508417,-0.9451111,9.448717,1.3503298
375,1436464508436,-0.94690675,9.450513,1.3401544
376,1436464508460,-0.9792285,9.479841,1.3144168
377,1436464508479,-0.97384155,9.546879,1.2826935
378,1436464508498,-0.91697925,9.510367,1.2916719
379,1436464508518,-0.83378077,9.478644,1.2976574
380,1436464508544,-0.79726917,9.435549,1.2779051
381,1436464508555,-0.8182184,9.401431,1.2611457
382,1436464508575,-0.76554596,9.454104,1.2150574
383,1436464508595,-0.664391,9.461287,1.1671734
384,1436464508615,-0.60693014,9.433155,1.2126632
385,1436464508636,-0.7074866,9.434352,1.2348095
386,1436464508657,-0.76075757,9.389461,1.1127052
387,1436464508678,-0.6907272,9.330803,0.9744401
388,1436464508698,-0.59376204,9.330803,1.0642227
389,1436464508715,-0.37948096,9.451111,1.1552023
390,1436464508735,-0.4429273,9.478046,1.2395979
391,1436464508756,-0.5626374,9.493608,1.1282675
392,1436464508780,-0.6805518,9.540894,1.0324994
393,1436464508801,-0.6967127,9.537901,1.0474633
394,1436464508820,-0.6739678,9.53012,1.0755951
395,1436464508835,-0.6099229,9.448717,1.0779893
396,1436464508855,-0.58657944,9.415796,1.0761937
397,1436464508875,-0.61411273,9.419388,1.0534488
398,1436464508897,-0.7152678,9.4535055,1.0247183
399,1436464508915,-0.7272388,9.438541,1.0851719
400,1436464508957,-0.74639237,9.446322,1.0893618
401,1436464508958,-0.7170634,9.506777,1.1061212
402,1436464508981,-0.7110779,9.490017,1.1025299
403,1436464508999,-0.741604,9.455899,1.0767922
404,1436464509015,-0.7679402,9.441534,1.055843
405,1436464509036,-0.7386112,9.457695,1.0827777
406,1436464509056,-0.6769605,9.464279,1.0390835
407,1436464509077,-0.66738373,9.516952,1.0929531
408,1436464509099,-0.682946,9.488221,1.0019734
409,1436464509115,-0.7110779,9.489418,1.0301052
410,1436464509138,-0.7368156,9.478644,1.0977415
