id,attr_time,attr_x,attr_y,attr_z
1,1436464501018,10.081385,-0.842759,2.870648
2,1436464501039,10.238804,-0.50996494,3.019687
3,1436464501059,10.147824,-0.48602295,2.9484594
4,1436464501079,9.8916445,-0.6512229,2.8149827
5,1436464501096,9.662399,-0.9840169,2.6791117
6,1436464501118,9.593566,-1.3174095,2.6515784
7,1436464501136,9.508572,-1.417966,2.7856536
8,1436464501159,9.356541,-1.3748703,2.920926
9,1436464501176,9.200318,-1.3754689,2.9460652
10,1436464501196,9.197925,-1.4089876,2.8089972
11,1436464501216,9.4217825,-1.5005659,2.6396074
12,1436464501242,9.674371,-1.4311341,2.6964695
13,1436464501260,9.8198185,-1.3503298,2.6420016
14,1436464501282,9.993997,-1.1899183,2.7048495
15,1436464501300,9.888053,-1.1312603,2.8287494
16,1436464501316,9.463082,-1.1935096,2.8514943
17,1436464501336,8.978256,-1.4550761,2.8329391
18,1436464501357,8.710106,-1.5520413,2.8868086
19,1436464501378,8.886678,-1.2539631,3.0232782
20,1436464501402,9.299079,-1.0348936,3.0609868
21,1436464501469,9.633071,-0.93134445,3.0184898
22,1436464501470,9.533711,-1.103727,2.8898015
23,1436464501471,9.506777,-1.3826514,2.8419175
24,1436464501478,9.411008,-1.4826094,2.8951883
25,1436464501497,9.257779,-1.435324,2.9586349
26,1436464501522,9.094974,-1.4383167,2.8419175
27,1436464501536,8.942942,-1.5532384,2.9526494
28,1436464501557,8.893861,-1.7046716,3.0125043
29,1436464501578,9.06744,-2.0416555,3.122039
30,1436464501598,9.423578,-2.2822728,3.2968156
31,1436464501618,9.601946,-2.1936872,3.3746274
32,1436464501638,9.349358,-1.7304093,3.29502
33,1436464501657,8.959702,-1.210269,3.2249897
34,1436464501680,9.083601,-1.0606314,3.3213563
35,1436464501700,9.481039,-1.3730747,3.3225534
36,1436464501717,9.719262,-1.7166426,3.2609026
37,1436464501737,9.554661,-1.7064673,3.1896753
38,1436464501760,9.287707,-1.4107834,3.1322143
39,1436464501780,9.184756,-1.2066777,3.122039
40,1436464501800,9.211093,-1.2844892,3.0148985
41,1436464501816,9.202114,-1.4496891,3.0053217
42,1436464501838,9.156625,-1.6041151,3.0496144
43,1436464501859,9.148843,-1.6250644,3.1555579
44,1436464501881,9.191938,-1.555034,3.151368
45,1436464501897,9.314642,-1.4000094,3.1010897
46,1436464501919,9.548077,-1.2635399,2.9616275
47,1436464501939,9.745,-1.2587515,2.908955
48,1436464501957,9.76954,-1.1731589,2.984971
49,1436464501980,9.463082,-1.1971009,3.1998506
50,1436464502000,9.157223,-1.352724,3.311181
51,1436464502020,9.086594,-1.3329718,3.2704794
52,1436464502038,9.177573,-1.2515689,3.2369606
53,1436464502058,9.370906,-1.1845313,3.1962593
54,1436464502090,9.457097,-1.1330559,3.2052376
55,1436464502097,9.422979,-1.0791864,3.2573113
56,1436464502117,9.423578,-1.1372458,3.2758665
57,1436464502137,9.401431,-1.2138603,3.3183637
58,1436464502171,9.312846,-1.2384008,3.426701
59,1436464502183,9.257779,-1.228824,3.442862
60,1436464502198,9.199121,-1.146224,3.406949
61,1436464502217,9.210494,-1.0163386,3.393781
62,1436464502237,9.190742,-1.0366893,3.5021186
63,1436464502258,9.215282,-0.9516952,3.6332011
64,1436464502291,9.366715,-0.93972415,3.532046
65,1436464502310,9.55047,-0.8858546,3.3925838
66,1436464502329,9.510966,-0.94211835,3.2543187
67,1436464502337,9.330204,-1.0001777,3.306991
68,1436464502358,9.19972,-1.0414777,3.4075475
69,1436464502379,9.257779,-1.0588357,3.4410665
70,1436464502397,9.399037,-1.0672154,3.4165258
71,1436464502421,9.405622,-1.103727,3.3321302
72,1436464502440,9.35235,-1.0767922,3.2124202
73,1436464502458,9.264962,-1.0109516,3.2555158
74,1436464502481,9.193136,-0.95468795,3.3614593
75,1436464502498,9.168595,-0.9163807,3.4560301
76,1436464502521,9.163807,-0.8439561,3.4518404
77,1436464502538,9.123106,-0.842759,3.4063504
78,1436464502559,9.239823,-0.88405895,3.3901896
79,1436464502581,9.374496,-0.8738836,3.3758245
80,1436464502603,9.313444,-0.8331822,3.4410665
81,1436464502619,9.203311,-0.9032126,3.3961751
82,1436464502637,9.203311,-0.9379285,3.457826
83,1436464502658,9.317036,-0.9576807,3.496133
84,1436464502681,9.330204,-0.95827925,3.5290532
85,1436464502698,9.236232,-0.89543146,3.550601
86,1436464502718,9.061455,-0.91578215,3.5458126
87,1436464502740,9.029732,-1.0139444,3.4614172
88,1436464502757,9.146449,-1.0773908,3.453636
89,1436464502781,9.190742,-1.0899603,3.4494462
90,1436464502805,9.235633,-1.0169371,3.4111388
91,1436464502820,9.167398,-0.9900024,3.442862
92,1436464502924,9.066243,-0.94092125,3.454833
93,1436464502925,9.108741,-0.9983821,3.515885
94,1436464502926,9.379285,-0.94810385,3.5236664
95,1436464502927,9.680356,-0.81402856,3.4847605
96,1436464502928,9.750386,-0.56084174,3.448249
97,1436464502949,9.512762,-0.4794389,3.4524388
98,1436464502958,9.229648,-0.65301853,3.5751417
99,1436464502980,9.075222,-0.87089086,3.5871127
100,1436464502999,9.165603,-0.95588505,3.5643678
101,1436464503018,9.276933,-0.93613285,3.6110547
102,1436464503041,9.311649,-0.88405895,3.6361938
103,1436464503058,9.172785,-0.90261406,3.6290112
104,1436464503082,9.078215,-0.96546185,3.6523547
105,1436464503102,8.971672,-1.1043255,3.679888
106,1436464503119,9.008782,-1.1456255,3.6912606
107,1436464503138,9.066842,-1.0636241,3.7044287
108,1436464503159,9.173983,-0.908001,3.679888
109,1436464503180,9.297882,-0.7703344,3.6403837
110,1436464503202,9.252991,-0.7272388,3.669114
111,1436464503220,9.130887,-0.8403648,3.6463692
112,1436464503241,9.082404,-0.9504981,3.6733038
113,1436464503260,9.1751795,-0.92296475,3.8283286
114,1436464503280,9.27394,-0.8774749,3.8337154
115,1436464503302,9.250597,-0.84934306,3.7672763
116,1436464503320,9.160814,-0.80564886,3.7696705
117,1436464503344,9.160814,-0.84694886,3.7732618
118,1436464503360,9.172785,-0.94690675,3.8067808
119,1436464503379,9.17099,-0.97623575,3.8313212
120,1436464503400,9.101558,-0.997185,3.846285
121,1436464503421,9.077616,-0.9768343,3.8181531
122,1436464503442,9.095572,-0.88645315,3.7493198
123,1436464503460,9.121908,-0.830788,3.7774518
124,1436464503478,9.115923,-0.83497787,3.845088
125,1436464503499,9.12131,-0.91458505,3.8642416
126,1436464503525,9.0476885,-1.0085574,3.8253357
127,1436464503541,9.037513,-0.95468795,3.833117
128,1436464503566,9.053075,-0.8690952,3.83192
129,1436464503578,9.041702,-0.8110358,3.7966053
130,1436464503627,9.096769,-0.81163436,3.816956
131,1436464503628,9.084799,-0.79846627,3.8504748
132,1436464503808,9.122507,-0.84216046,3.8432922
133,1436464503809,9.109938,-0.8996213,3.751714
134,1436464503810,9.084799,-0.92775315,3.70802
135,1436464503811,9.03871,-0.89603,3.7906199
136,1436464503839,9.172785,-0.8391677,3.8001966
137,1436464503840,9.345168,-0.86011696,3.6715083
138,1436464503841,9.324219,-0.8846575,3.7193923
139,1436464503842,9.103952,-0.9163807,3.804985
140,1436464503843,9.029133,-0.91099375,3.870227
141,1436464503844,9.1512375,-0.8403648,3.876811
142,1436464503845,9.212888,-0.7781156,3.9366663
143,1436464503859,9.196129,-0.7649474,3.9223008
144,1436464503892,9.123704,-0.9163807,3.7134068
145,1436464503910,9.040505,-1.0480618,3.8385038
146,1436464503919,9.115923,-1.1192893,3.9606082
147,1436464503939,9.101558,-1.1013328,3.809175
148,1436464503959,9.1350765,-1.0618285,3.5889084
149,1436464503979,9.14585,-0.97982705,3.6499605
150,1436464503999,9.169194,-0.90620536,3.8361096
151,1436464504019,9.129091,-0.9223662,3.8905778
152,1436464504039,9.023148,-1.0049661,3.8151605
153,1436464504059,8.9998045,-1.0408791,3.840898
154,1436464504079,9.0476885,-1.0283096,3.8989575
155,1436464504099,9.154829,-0.9564836,3.9468415
156,1436464504118,9.059659,-0.919972,3.9402575
157,1436464504138,8.874108,-1.0049661,3.9426517
158,1436464504158,8.841787,-1.09834,3.9881415
159,1436464504180,8.962694,-1.1653777,4.000711
160,1436464504200,9.172187,-1.163582,3.9324763
161,1436464504218,9.273342,-1.1121067,3.875614
162,1436464504239,9.20391,-1.0133458,3.840898
163,1436464504259,9.0716305,-0.93972415,3.8426938
164,1436464504278,9.0429,-0.9427169,3.8175547
165,1436464504300,9.028535,-0.9552865,3.8313212
166,1436464504322,9.095572,-1.0133458,3.8672342
167,1436464504340,9.167996,-1.0205284,3.8540661
168,1436464504359,9.192537,-0.96187055,3.7906199
169,1436464504378,9.19553,-0.9911995,3.7654808
170,1436464504400,9.18715,-1.0324994,3.7762547
171,1436464504423,9.167996,-1.0007763,3.8271315
172,1436464504450,9.081207,-0.99538934,3.852869
173,1436464504460,9.048286,-1.0366893,3.894169
174,1436464504479,9.100959,-1.0420763,3.8869865
175,1436464504501,9.095572,-1.0307038,3.9402575
176,1436464504520,9.060258,-1.0755951,3.9588125
177,1436464504539,8.93935,-1.1031284,3.863643
178,1436464504559,8.995016,-1.1079168,3.9163153
179,1436464504583,9.044696,-1.1180922,3.8989575
180,1436464504604,9.063849,-1.1492168,3.9270895
181,1436464504619,9.017162,-1.0977415,3.940856
182,1436464504642,8.988432,-1.009156,3.8845923
183,1436464504659,9.032724,-0.97264445,3.9653966
184,1436464504683,9.118916,-1.0235212,4.0186677
185,1436464504703,9.146449,-1.027711,4.0318356
186,1436464504723,9.123106,-0.99538934,3.9983168
187,1436464504743,9.073426,-1.0061632,3.9432502
188,1436464504763,9.03452,-0.9636662,3.8959646
189,1436464504781,9.0237465,-0.973243,3.9151182
190,1436464504802,9.100361,-1.0546459,3.9683893
191,1436464504823,9.165004,-1.0887632,3.8594532
192,1436464504843,9.192537,-1.0576386,3.8145618
193,1436464504863,9.060856,-1.079785,3.7960067
194,1436464504884,9.01776,-1.0941502,3.8391025
195,1436464504900,8.982447,-1.0941502,3.90614
196,1436464504923,9.059659,-1.0911574,3.8845923
197,1436464504942,9.150639,-1.1192893,3.8325183
198,1436464504964,9.179968,-1.1534066,3.8031895
199,1436464504983,9.103952,-1.174356,3.8139634
200,1436464505001,8.996213,-1.1558008,3.8133647
201,1436464505022,8.991425,-1.1402385,3.8139634
202,1436464505045,9.017162,-1.0935516,3.7989995
203,1436464505083,9.082404,-1.1097125,3.8019924
204,1436464505084,9.060258,-1.1857284,3.810372
205,1436464505103,9.105747,-1.1432313,3.762488
206,1436464505120,9.144653,-1.0552444,3.7738605
207,1436464505143,9.122507,-1.0965444,3.7750576
208,1436464505160,9.096769,-1.1414356,3.7271736
209,1436464505180,9.078813,-1.1348516,3.74094
210,1436464505211,9.098565,-1.1109096,3.845088
211,1436464505220,9.137471,-1.163582,3.9097314
212,1436464505252,9.117719,-1.1599907,3.7972038
213,1436464505267,9.090784,-1.1210849,3.727772
214,1436464505280,9.149442,-1.0684125,3.6936548
215,1436464505300,9.1829605,-1.0384849,3.6948519
216,1436464505320,9.163208,-1.1007342,3.727772
217,1436464505340,9.10455,-1.1659763,3.7104142
218,1436464505360,9.106945,-1.1599907,3.639785
219,1436464505380,9.162011,-1.0576386,3.6703112
220,1436464505400,9.231443,-1.0127473,3.6870706
221,1436464505420,9.203311,-1.0223241,3.7020345
222,1436464505440,9.214086,-1.039682,3.6703112
223,1436464505464,9.216479,-1.091756,3.642778
224,1436464505489,9.213487,-1.0941502,3.6463692
225,1436464505500,9.278131,-1.1097125,3.6984432
226,1436464505520,9.333197,-1.0672154,3.7032316
227,1436464505540,9.424176,-1.0031705,3.663727
228,1436464505560,9.513959,-0.919972,3.678691
229,1436464505581,9.561244,-0.8726865,3.7271736
230,1436464505600,9.394249,-0.90859956,3.751714
231,1436464505619,9.024344,-0.9684546,3.6224272
232,1436464505643,8.776545,-1.0324994,3.3991678
233,1436464505664,9.006987,-1.002572,3.365649
234,1436464505684,9.032724,-1.0205284,3.620033
235,1436464505704,9.111135,-0.9672575,3.6014779
236,1436464505724,9.182362,-0.87089086,3.513491
237,1436464505740,9.196129,-0.89782566,3.4530375
238,1436464505765,9.229049,-1.0402806,3.4225113
239,1436464505785,9.256582,-1.1216835,3.4075475
240,1436464505799,9.384672,-1.1468226,3.4075475
241,1436464505821,9.321824,-1.0827777,3.3931823
242,1436464505843,9.060258,-1.1988965,3.3446999
243,1436464505860,8.874108,-1.2677298,3.4171243
244,1436464505881,8.914211,-1.2473791,3.4763808
245,1436464505901,9.11712,-1.1677719,3.5051112
246,1436464505921,9.3733,-1.1552023,3.417723
247,1436464505941,9.507974,-1.2479776,3.2255883
248,1436464505963,9.515156,-1.3006501,3.1944637
249,1436464505983,9.276335,-1.2755109,3.3033998
250,1436464505999,9.063849,-1.2515689,3.333926
251,1436464506021,8.960898,-1.2862848,3.2483332
252,1436464506045,9.132084,-1.3347675,2.9867666
253,1436464506064,9.540296,-1.5071499,2.8401217
254,1436464506084,9.742605,-1.508347,2.8580782
255,1436464506104,9.850345,-1.3198037,2.9945478
256,1436464506121,9.494206,-1.1659763,2.971803
257,1436464506143,9.105747,-1.0049661,2.9137435
258,1436464506164,9.016563,-1.0097545,3.3147724
259,1436464506182,9.275736,-1.1803415,3.6565444
260,1436464506202,9.561843,-1.2988545,3.5410242
261,1436464506221,9.725846,-1.1899183,3.4213142
262,1436464506244,9.541492,-1.050456,3.304597
263,1436464506264,9.263765,-1.0390835,3.0771477
264,1436464506284,9.214684,-1.0307038,2.956839
265,1436464506304,9.300875,-0.9900024,3.0053217
266,1436464506324,9.412206,-0.9576807,3.0071173
267,1436464506343,9.56723,-0.8870517,2.8880057
268,1436464506364,9.530719,-0.74399817,2.8772318
269,1436464506383,9.476251,-0.7170634,2.9083564
270,1436464506409,9.244013,-0.78290397,2.9670146
271,1436464506484,9.078813,-0.84335756,2.9789855
272,1436464506485,9.077616,-0.81881696,2.980781
273,1436464506486,9.20391,-0.7320272,2.9227216
274,1436464506487,9.425373,-0.62967503,2.771887
275,1436464506502,9.592968,-0.61650693,2.6844985
276,1436464506526,9.636064,-0.6147113,2.6264393
277,1436464506541,9.649231,-0.6410475,2.5450363
278,1436464506567,9.677961,-0.62967503,2.4762032
279,1436464506583,9.761759,-0.5033809,2.508525
280,1436464506602,9.733028,-0.39564183,2.5498247
281,1436464506623,9.760562,-0.44532153,2.5671828
282,1436464506643,9.791686,-0.56443304,2.7114334
283,1436464506666,9.713276,-0.6218939,2.765303
284,1436464506685,9.707291,-0.6314707,2.7042508
285,1436464506704,9.724648,-0.6254852,2.544438
286,1436464506724,9.673772,-0.5883751,2.5498247
287,1436464506743,9.60015,-0.6171055,2.6102784
288,1436464506764,9.533113,-0.6607997,2.558803
289,1436464506785,9.44333,-0.688333,2.433706
290,1436464506805,9.488221,-0.62129533,2.457648
291,1436464506825,9.568427,-0.57640404,2.4905684
292,1436464506843,9.661202,-0.5566519,2.4552538
293,1436464506864,9.755774,-0.4985925,2.4001873
294,1436464506883,9.767744,-0.45908818,2.4145525
295,1436464506905,9.676167,-0.4830302,2.3894134
296,1436464506924,9.603742,-0.45609543,2.4875755
297,1436464506943,9.727043,-0.47405192,2.689287
298,1436464506968,9.822811,-0.58418524,2.765303
299,1436464506983,9.794081,-0.62488663,2.782661
300,1436464507007,9.596559,-0.65900403,2.7778726
301,1436464507027,9.428965,-0.6560113,2.6731262
302,1436464507045,9.420585,-0.61052144,2.6270378
303,1436464507062,9.603143,-0.61530983,2.645593
304,1436464507081,9.681553,-0.6206968,2.6473885
305,1436464507103,9.611523,-0.61052144,2.6252422
306,1436464507124,9.48882,-0.6428431,2.6084828
307,1436464507207,9.336189,-0.6242881,2.6372132
308,1436464507208,9.388264,-0.55006784,2.597709
309,1436464507209,9.52174,-0.47764325,2.6479871
310,1436464507210,9.625289,-0.45370123,2.7132292
311,1436464507222,9.651626,-0.46447513,2.682703
312,1436464507276,9.593566,-0.5141548,2.6485856
313,1436464507277,9.601946,-0.516549,2.6940753
314,1436464507282,9.610326,-0.4914099,2.700061
315,1436464507303,9.606734,-0.44232875,2.7323828
316,1436464507323,9.572617,-0.43754035,2.6964695
317,1436464507343,9.589376,-0.43035775,2.7497406
318,1436464507362,9.5492735,-0.5069722,2.870648
319,1436464507385,9.469068,-0.6368576,2.7928362
320,1436464507403,9.428965,-0.6727707,2.7910407
321,1436464507426,9.4696665,-0.53689975,2.8927941
322,1436464507445,9.503783,-0.45789108,2.8485014
323,1436464507465,9.52174,-0.45968673,2.7216089
324,1436464507485,9.549872,-0.39025488,2.8616695
325,1436464507505,9.582792,-0.41180268,2.9741971
326,1436464507526,9.56304,-0.439336,2.8909986
327,1436464507545,9.418191,-0.4309563,2.8263552
328,1436464507563,9.323022,-0.46267948,2.871845
329,1436464507585,9.300277,-0.50038815,2.9406781
330,1436464507605,9.387665,-0.61770403,2.9281087
331,1436464507624,9.494206,-0.6913257,2.9418752
332,1436464507645,9.574412,-0.6596026,2.956839
333,1436464507662,9.689334,-0.5883751,2.954445
334,1436464507685,9.636662,-0.46686932,2.9233203
335,1436464507705,9.513959,-0.37469256,2.9574378
336,1436464507726,9.387066,-0.374094,2.9951463
337,1436464507745,9.346964,-0.43873745,3.0639796
338,1436464507764,9.396045,-0.41718966,3.1531637
339,1436464507785,9.434352,-0.44113165,3.1555579
340,1436464507803,9.475053,-0.47465047,3.1064768
341,1436464507832,9.454104,-0.57879823,3.1549592
342,1436464507843,9.391854,-0.6500258,3.1711202
343,1436464507888,9.343372,-0.7164649,3.1615434
344,1436464507889,9.345168,-0.7170634,3.1932666
345,1436464507936,9.332599,-0.7278373,3.2190042
346,1436464507937,9.280524,-0.8074445,3.2573113
347,1436464507976,9.322423,-0.85293436,3.2519245
348,1436464507977,9.400234,-0.79607207,3.1920695
349,1436464507990,9.476251,-0.7565677,3.1956608
350,1436464508007,9.449316,-0.7553706,3.1729157
351,1436464508037,9.338584,-0.7164649,3.2291796
352,1436464508083,9.358934,-0.7032967,3.228581
353,1436464508084,9.425373,-0.75477207,3.2345665
354,1436464508085,9.475652,-0.7188591,3.193865
355,1436464508108,9.431359,-0.6853402,3.2321723
356,1436464508128,9.387665,-0.66618663,3.2680852
357,1436464508143,9.34038,-0.6805518,3.229778
358,1436464508163,9.282919,-0.7104794,3.1477766
359,1436464508183,9.3026705,-0.694917,3.2052376
360,1436464508208,9.337985,-0.682946,3.2716765
361,1436464508225,9.320028,-0.7188591,3.277662
362,1436464508243,9.31524,-0.7445967,3.269881
363,1436464508309,9.304466,-0.82001406,3.2854433
364,1436464508310,9.300875,-0.8331822,3.342904
365,1436464508311,9.242816,-0.80086046,3.3327289
366,1436464508324,9.208698,-0.7685388,3.364452
367,1436464508343,9.271546,-0.7278373,3.3931823
368,1436464508365,9.346365,-0.748188,3.3542767
369,1436464508385,9.369708,-0.748188,3.341707
370,1436464508408,9.36911,-0.74399817,3.3877954
371,1436464508429,9.359533,-0.7146692,3.3859997
372,1436464508449,9.32781,-0.635062,3.3686419
373,1436464508467,9.235035,-0.6775591,3.4464533
374,1436464508486,9.239224,-0.688333,3.4584243
375,1436464508504,9.287707,-0.6392518,3.41473
376,1436464508523,9.396045,-0.62728083,3.4153287
377,1436464508543,9.36492,-0.6398504,3.454833
378,1436464508620,9.329007,-0.6847417,3.41892
379,1436464508621,9.272743,-0.694917,3.4883518
380,1436464508623,9.272144,-0.6991069,3.517681
381,1436464508624,9.314642,-0.7787141,3.4332852
382,1436464508666,9.293094,-0.7715315,3.3740287
383,1436464508667,9.316438,-0.7445967,3.3967736
384,1436464508748,9.259575,-0.6877344,3.3824084
385,1436464508749,9.22067,-0.724246,3.3686419
386,1436464508750,9.269751,-0.6979098,3.4380736
387,1436464508751,9.313444,-0.6877344,3.3877954
388,1436464508763,9.3343935,-0.6428431,3.330933
389,1436464508790,9.343372,-0.6374562,3.3848026
390,1436464508803,9.292496,-0.6242881,3.4284968
391,1436464508825,9.261371,-0.65421563,3.4542346
392,1436464508845,9.312247,-0.66618663,3.4476504
393,1436464508865,9.337985,-0.6787562,3.3387144
394,1436464508885,9.376891,-0.6925228,3.2435448
395,1436464508905,9.419987,-0.7009025,3.3201592
396,1436464508925,9.376292,-0.6961141,3.3560722
397,1436464508944,9.299079,-0.7517793,3.3201592
398,1436464508967,9.205706,-0.7679402,3.256713
399,1436464508987,9.20391,-0.7230489,3.2273839
400,1436464509007,9.372701,-0.676362,3.2626984
401,1436464509027,9.427169,-0.7350199,3.3542767
402,1436464509047,9.367314,-0.8026561,3.3865983
403,1436464509067,9.333197,-0.7356185,3.3279405
404,1436464509087,9.342773,-0.7140707,3.328539
405,1436464509108,9.32362,-0.7074866,3.3171666
406,1436464509129,9.412804,-0.6703765,3.3369186
407,1436464509143,9.394249,-0.66259533,3.3225534
408,1436464509167,9.351752,-0.635062,3.3650506
409,1436464509187,9.287707,-0.6967127,3.3752258
410,1436464509207,9.259575,-0.7032967,3.3464954
411,1436464509227,9.251195,-0.6913257,3.3039982
412,1436464509247,9.372103,-0.6805518,3.3381157
413,1436464509266,9.397242,-0.7344214,3.3979707
414,1436464509286,9.276933,-0.74998367,3.517681
415,1436464509307,9.069835,-0.6452374,3.6367924
416,1436464509327,8.998607,-0.6242881,3.7600937
417,1436464509347,9.170391,-0.7332243,3.693056
418,1436464509369,9.55047,-0.81642276,3.3135753
419,1436464509385,9.688736,-0.8331822,3.151368
