id,attr_time,attr_x,attr_y,attr_z
1,1436899622608,-2.980781,8.4664955,3.271078
2,1436899622630,-3.0083144,8.454525,3.2920272
3,1436899622650,-3.052607,8.541913,3.401562
4,1436899622669,-3.0831332,8.612542,3.3638535
5,1436899622689,-3.0011318,8.587403,3.3985693
6,1436899622707,-3.0125043,8.514978,3.3446999
7,1436899622727,-3.0873232,8.432977,3.3488896
8,1436899622747,-3.0573955,8.403049,3.1986535
9,1436899622767,-2.938284,8.519767,3.1495724
10,1436899622788,-3.008913,8.635885,3.3728316
11,1436899622808,-3.1004913,8.541913,3.4033577
12,1436899622830,-3.086126,8.438962,3.2908301
13,1436899622848,-3.0376434,8.36175,3.2620997
14,1436899622868,-3.0178912,8.351574,3.208829
15,1436899622890,-3.0190883,8.429385,3.3327289
16,1436899622911,-3.020884,8.506598,3.38181
17,1436899622931,-3.027468,8.595184,3.3237505
18,1436899622948,-3.0011318,8.6017685,3.3722332
19,1436899622969,-3.0142999,8.5299425,3.3369186
20,1436899623037,-3.0304608,8.429984,3.2680852
21,1436899623038,-3.0095115,8.44016,3.2513258
22,1436899623039,-2.9861681,8.4647,3.25791
23,1436899623049,-3.015497,8.459911,3.2291796
24,1436899623068,-3.056797,8.475474,3.3129766
25,1436899623091,-3.0897174,8.484452,3.2094274
26,1436899623108,-2.9783869,8.337209,3.3446999
27,1436899623134,-2.9233203,8.2995,3.3411086
28,1436899623148,-3.0268695,8.41502,3.2992098
29,1436899623169,-3.1310172,8.589199,3.353678
30,1436899623189,-3.0873232,8.589199,3.2848446
31,1436899623212,-2.9921536,8.528745,3.0998926
32,1436899623232,-2.9891608,8.5886,3.2237926
33,1436899623255,-3.107674,8.579023,3.389591
34,1436899623268,-3.1172507,8.533533,3.3363202
35,1436899623290,-3.0460231,8.474875,3.2746694
36,1436899623308,-3.0466216,8.474875,3.1675289
37,1436899623328,-3.0358477,8.500613,3.2782607
38,1436899623350,-3.0065188,8.462905,3.4249055
39,1436899623370,-2.9789855,8.467094,3.293823
40,1436899623390,-2.9939492,8.519168,3.3303347
41,1436899623409,-3.05141,8.508394,3.3087866
42,1436899623429,-3.0789435,8.555081,3.2543187
43,1436899623452,-3.0292637,8.520366,3.264494
44,1436899623470,-3.019687,8.449138,3.265691
45,1436899623488,-3.0292637,8.445546,3.293823
46,1436899623508,-3.072958,8.476671,3.3632548
47,1436899623532,-3.0298622,8.454525,3.2914288
48,1436899623550,-3.028665,8.516774,3.3369186
49,1436899623571,-3.0508115,8.584411,3.4105403
50,1436899623591,-3.0963013,8.467693,3.2992098
51,1436899623612,-2.9712043,8.400057,3.0454245
52,1436899623630,-2.9233203,8.507197,3.2674868
53,1436899623649,-3.027468,8.680179,3.3806129
54,1436899623669,-3.1052797,8.673594,3.4039562
55,1436899623690,-3.0430303,8.428787,3.3237505
56,1436899623709,-3.0190883,8.335413,3.2692823
57,1436899623784,-3.0142999,8.376115,3.1824925
58,1436899623785,-2.9801826,8.4425535,3.2866404
59,1436899623786,-2.9700072,8.522759,3.4153287
60,1436899623790,-2.9951463,8.533533,3.3722332
61,1436899623809,-3.052607,8.579023,3.405752
62,1436899623834,-3.0986955,8.570643,3.359065
63,1436899623849,-3.079542,8.588001,3.329736
64,1436899623871,-3.0083144,8.559271,3.269881
65,1436899623890,-2.9269116,8.491635,3.2561142
66,1436899623909,-2.9370868,8.422203,3.2243912
67,1436899623930,-3.0041246,8.524555,3.2848446
68,1436899623950,-3.0244753,8.5538845,3.2746694
69,1436899623969,-2.9652188,8.502409,3.3632548
70,1436899623991,-2.9520507,8.5383215,3.2872388
71,1436899624010,-2.9909565,8.598776,3.3249476
72,1436899624031,-2.991555,8.516774,3.2609026
73,1436899624051,-2.9269116,8.500014,3.105878
74,1436899624070,-2.9119477,8.567052,3.2465374
75,1436899624089,-3.0322564,8.544906,3.3518825
76,1436899624109,-3.0843303,8.543709,3.3375173
77,1436899624131,-3.0609868,8.544906,3.3225534
78,1436899624152,-2.9825768,8.4826565,3.2357635
79,1436899624169,-2.9771898,8.472482,3.288436
80,1436899624191,-2.973,8.498817,3.3375173
81,1436899624216,-2.967613,8.5299425,3.2423477
82,1436899624234,-2.9682117,8.532336,3.2956185
83,1436899624255,-3.0538042,8.556877,3.2872388
84,1436899624273,-3.1130607,8.594585,3.2956185
85,1436899624290,-3.0747535,8.546701,3.3129766
86,1436899624311,-3.0131028,8.407838,3.3279405
87,1436899624330,-3.0011318,8.291719,3.3273418
88,1436899624351,-3.0101101,8.324639,3.3195608
89,1436899624373,-3.0657754,8.4234,3.29502
90,1436899624392,-3.0065188,8.534132,3.3542767
91,1436899624412,-3.0573955,8.561067,3.4051533
92,1436899624432,-3.091513,8.53054,3.394978
93,1436899624496,-3.0292637,8.543709,3.145981
94,1436899624497,-2.966416,8.592192,3.233968
95,1436899624498,-3.019687,8.587403,3.330933
96,1436899624509,-3.0747535,8.546701,3.2411506
97,1436899624534,-3.0801406,8.496424,3.3267434
98,1436899624550,-3.0597897,8.352173,3.3022027
99,1436899624570,-3.1064768,8.369531,3.3512838
100,1436899624591,-3.1010897,8.48146,3.3249476
101,1436899624610,-3.0137014,8.5299425,3.3357215
102,1436899624631,-2.9137435,8.459911,3.3267434
103,1436899624651,-2.954445,8.375516,3.3393128
104,1436899624672,-3.0412347,8.461109,3.4398694
105,1436899624692,-3.1262288,8.535928,3.4231098
106,1436899624715,-3.1064768,8.624513,3.3560722
107,1436899624733,-3.0131028,8.516774,3.3375173
108,1436899624751,-2.980781,8.389881,3.305794
109,1436899624770,-2.9909565,8.360553,3.3943794
110,1436899624791,-3.0472202,8.486847,3.2800562
111,1436899624812,-3.0238767,8.584411,3.376423
112,1436899624831,-3.0148985,8.565855,3.4243069
113,1436899624850,-3.0424318,8.510789,3.402759
114,1436899624870,-3.056797,8.458116,3.2944214
115,1436899624893,-3.0029275,8.48984,3.104681
116,1436899624915,-2.9364884,8.595782,3.1783028
117,1436899624933,-2.961029,8.542512,3.371036
118,1436899624952,-2.991555,8.437765,3.4500446
119,1436899624971,-3.0172927,8.41502,3.342904
120,1436899624991,-3.0160956,8.437167,3.3123782
121,1436899625013,-3.044826,8.42759,3.413533
122,1436899625033,-3.0226796,8.41502,3.417723
123,1436899625052,-2.9819782,8.489241,3.3159695
124,1436899625071,-2.9873652,8.5299425,3.2980127
125,1436899625091,-2.9903579,8.403049,3.4075475
126,1436899625110,-3.0346506,8.374319,3.4560301
127,1436899625138,-3.1082723,8.546103,3.4632127
128,1436899625195,-3.1399956,8.643068,3.4751837
129,1436899625196,-3.1160536,8.525752,3.4123359
130,1436899625197,-3.0148985,8.383297,3.3842041
131,1436899625228,-3.0226796,8.32404,3.2279825
132,1436899625234,-2.9466639,8.355764,3.2746694
133,1436899625251,-2.9813797,8.516774,3.2650926
134,1436899625272,-3.0879216,8.631696,3.4081461
135,1436899625290,-3.028665,8.544906,3.3093853
136,1436899625311,-2.9640217,8.422203,3.3153708
137,1436899625340,-2.979584,8.399458,3.4087446
138,1436899625365,-3.0532057,8.400057,3.3889925
139,1436899625370,-3.0789435,8.492832,3.4314895
140,1436899625391,-3.0364463,8.519767,3.417723
141,1436899625411,-3.0609868,8.505402,3.3387144
142,1436899625434,-3.0843303,8.467094,3.345897
143,1436899625453,-3.0334535,8.443152,3.3608606
144,1436899625472,-2.9825768,8.488642,3.321955
145,1436899625490,-2.9724014,8.511986,3.4272997
146,1436899625512,-3.0095115,8.418612,3.4680011
147,1436899625533,-3.0502129,8.457518,3.3093853
148,1436899625553,-3.044826,8.497621,3.3824084
149,1436899625573,-2.992752,8.422203,3.4512417
150,1436899625593,-2.9945478,8.388085,3.426701
151,1436899625617,-3.0125043,8.475474,3.4207156
152,1436899625632,-3.0214825,8.527548,3.2489316
153,1436899625652,-2.9311013,8.496424,3.447052
154,1436899625671,-2.9514523,8.47727,3.4117374
155,1436899625690,-2.9987376,8.505402,3.3913867
156,1436899625710,-3.0400376,8.492832,3.390788
157,1436899625733,-2.9724014,8.41502,3.259107
158,1436899625754,-2.9095535,8.489241,3.342904
159,1436899625773,-2.9682117,8.4664955,3.4811692
160,1436899625793,-3.040636,8.449138,3.4781766
161,1436899625811,-3.0352492,8.497022,3.4009635
162,1436899625831,-3.0172927,8.472482,3.354875
163,1436899625852,-3.0244753,8.469488,3.46022
164,1436899625872,-3.0083144,8.485051,3.5164838
165,1436899625891,-3.0023289,8.494029,3.4985273
166,1436899625964,-2.959832,8.464102,3.503914
167,1436899625965,-2.9412768,8.415619,3.5075054
168,1436899625966,-3.0005333,8.406641,3.359065
169,1436899625974,-3.0059202,8.531139,3.3608606
170,1436899625994,-2.996942,8.537125,3.4225113
171,1436899626016,-2.9783869,8.469488,3.4099417
172,1436899626031,-2.9813797,8.430583,3.477578
173,1436899626051,-3.007716,8.388684,3.306991
174,1436899626072,-2.9520507,8.443152,3.3865983
175,1436899626092,-3.003526,8.485051,3.4422636
176,1436899626112,-3.0520086,8.51857,3.506907
177,1436899626131,-3.0591912,8.473679,3.4219127
178,1436899626151,-2.9682117,8.454525,3.2363622
179,1436899626173,-2.908955,8.464102,3.425504
180,1436899626192,-3.0125043,8.445546,3.4620156
181,1436899626214,-3.0478187,8.5299425,3.4560301
182,1436899626233,-3.0220811,8.507197,3.4745853
183,1436899626252,-3.0148985,8.443152,3.4249055
184,1436899626271,-2.9867666,8.373122,3.4973302
185,1436899626292,-2.9346926,8.376115,3.470994
186,1436899626315,-2.9418752,8.437765,3.4237084
187,1436899626335,-2.9634233,8.506598,3.484162
188,1436899626354,-2.973,8.496424,3.4811692
189,1436899626373,-2.9580362,8.407838,3.4207156
190,1436899626392,-2.9526494,8.349778,3.4099417
191,1436899626412,-2.9604304,8.341997,3.4811692
192,1436899626432,-3.0310593,8.428188,3.502717
193,1436899626452,-3.0412347,8.506598,3.5984852
194,1436899626474,-3.0382419,8.529344,3.41892
195,1436899626494,-2.9125464,8.470087,3.5104983
196,1436899626516,-2.930503,8.356362,3.4991257
197,1436899626534,-2.9586349,8.367735,3.4638114
198,1436899626553,-3.0142999,8.422203,3.4991257
199,1436899626571,-3.0125043,8.4425535,3.435081
200,1436899626592,-2.9059622,8.494029,3.3919852
201,1436899626612,-2.9221232,8.516175,3.5350387
202,1436899626634,-3.004723,8.4587145,3.5871127
203,1436899626684,-3.0591912,8.405443,3.5122938
204,1436899626685,-3.0561984,8.392276,3.4560301
205,1436899626704,-3.0472202,8.401853,3.532046
206,1436899626712,-2.9951463,8.392874,3.5122938
207,1436899626732,-2.967613,8.418014,3.4805708
208,1436899626752,-2.939481,8.447342,3.4853592
209,1436899626771,-2.903568,8.445546,3.5051112
210,1436899626797,-2.938284,8.433576,3.4727895
211,1436899626814,-2.96881,8.486248,3.4614172
212,1436899626833,-2.961029,8.5299425,3.4847605
213,1436899626855,-2.9813797,8.523358,3.4967315
214,1436899626874,-3.0322564,8.432977,3.57993
215,1436899626892,-3.0125043,8.388085,3.3752258
216,1436899626911,-2.9514523,8.385093,3.4302924
217,1436899626935,-2.956839,8.41502,3.445855
218,1436899626955,-3.0190883,8.471883,3.496133
219,1436899626975,-3.0669725,8.5143795,3.4865563
220,1436899626995,-3.0131028,8.535928,3.3375173
221,1436899627016,-2.944868,8.525154,3.4901476
222,1436899627035,-2.9825768,8.456321,3.5170822
223,1436899627053,-3.0298622,8.432379,3.5410242
224,1436899627073,-3.0340521,8.413823,3.5194764
225,1436899627092,-3.031658,8.429984,3.4799721
226,1436899627115,-3.0585926,8.441956,3.5865142
227,1436899627135,-3.0256724,8.4664955,3.5637693
228,1436899627152,-2.9634233,8.446744,3.4997244
229,1436899627173,-2.9460652,8.397064,3.477578
230,1436899627193,-2.944868,8.413225,3.4733882
231,1436899627217,-3.0202854,8.456321,3.490746
232,1436899627236,-3.0460231,8.549694,3.496133
233,1436899627257,-3.0424318,8.53892,3.515885
234,1436899627274,-2.9753942,8.3408,3.4272997
235,1436899627296,-2.9454668,8.267179,3.4111388
236,1436899627315,-3.0119057,8.420407,3.2866404
237,1436899627334,-2.9813797,8.468291,3.6314054
238,1436899627373,-2.9825768,8.37013,3.496133
239,1436899627488,-2.9771898,8.365341,3.472191
240,1436899627491,-3.0262709,8.391078,3.3824084
241,1436899627505,-3.0148985,8.448539,3.2782607
242,1436899627506,-2.961029,8.471284,3.445855
243,1436899627507,-2.959832,8.467693,3.596091
244,1436899627508,-2.9873652,8.445546,3.539827
245,1436899627509,-2.9939492,8.421006,3.4967315
246,1436899627522,-2.9939492,8.388684,3.4985273
247,1436899627549,-2.9712043,8.380304,3.5098996
248,1436899627554,-2.9789855,8.400655,3.4991257
249,1436899627572,-2.9706059,8.4664955,3.4919431
250,1436899627598,-3.003526,8.5060005,3.4476504
251,1436899627625,-2.9831753,8.489241,3.4913447
252,1436899627632,-3.0334535,8.459911,3.5230677
253,1436899627658,-3.0657754,8.438364,3.530849
254,1436899627673,-3.0538042,8.453327,3.5553896
255,1436899627694,-3.0370448,8.391677,3.5242648
256,1436899627715,-3.0041246,8.247426,3.6511576
257,1436899627732,-3.0651767,8.259995,3.5302503
258,1436899627754,-3.019687,8.392874,3.4680011
259,1436899627774,-3.0322564,8.452729,3.6296098
260,1436899627796,-3.0005333,8.346188,3.5529952
261,1436899627816,-2.973,8.287529,3.359065
262,1436899627835,-2.9215245,8.418612,3.2824504
263,1436899627855,-2.9496565,8.5383215,3.4374752
264,1436899627875,-3.0107086,8.604761,3.50571
265,1436899627894,-3.043629,8.616732,3.525462
266,1436899627915,-3.032855,8.536526,3.447052
267,1436899627933,-3.0148985,8.425196,3.4021606
268,1436899627953,-2.9987376,8.384495,3.3632548
269,1436899627975,-2.973,8.393473,3.4141316
270,1436899628014,-2.9526494,8.471883,3.454833
271,1436899628015,-2.943671,8.495825,3.3973722
272,1436899628033,-2.9634233,8.414422,3.442862
273,1436899628053,-3.0107086,8.387487,3.46022
274,1436899628073,-3.0681696,8.462905,3.472191
275,1436899628093,-3.072958,8.512584,3.4871547
276,1436899628114,-3.0735564,8.521563,3.4272997
277,1436899628135,-3.0382419,8.455123,3.5093012
278,1436899628167,-3.039439,8.393473,3.357868
279,1436899628220,-2.9747956,8.385692,3.4117374
280,1436899628221,-2.9550436,8.396465,3.4638114
281,1436899628222,-3.0095115,8.459911,3.5404258
282,1436899628235,-3.0137014,8.43178,3.4859576
283,1436899628276,-2.980781,8.401853,3.329736
284,1436899628277,-2.9322984,8.436568,3.429694
285,1436899628295,-2.991555,8.470087,3.50571
286,1436899628323,-3.032855,8.495226,3.502717
287,1436899628334,-2.9939492,8.503606,3.4835634
288,1436899628356,-2.942474,8.480861,3.5093012
289,1436899628375,-2.926313,8.399458,3.4278982
290,1436899628394,-2.9430726,8.387487,3.4901476
291,1436899628416,-2.9299042,8.422802,3.5326445
292,1436899628434,-2.9101522,8.519767,3.4811692
293,1436899628453,-2.908955,8.57184,3.5075054
294,1436899628475,-2.9161377,8.501212,3.4087446
295,1436899628496,-2.907758,8.478467,3.3871968
296,1436899628516,-2.8844144,8.511986,3.3650506
297,1436899628536,-2.842516,8.516774,3.3752258
298,1436899628557,-2.8520927,8.520964,3.4518404
299,1436899628576,-2.902371,8.532935,3.4075475
300,1436899628594,-2.8790276,8.488044,3.4129345
301,1436899628615,-2.834735,8.462306,3.4374752
302,1436899628633,-2.8562827,8.421006,3.453636
303,1436899628654,-2.9047651,8.44016,3.4847605
304,1436899628676,-2.9215245,8.519767,3.3315318
305,1436899628697,-2.8461072,8.635287,3.4662056
306,1436899628717,-2.9137435,8.608951,3.4871547
307,1436899628737,-2.9628246,8.526949,3.4614172
308,1436899628757,-2.9700072,8.476072,3.4674027
309,1436899628836,-2.9813797,8.446744,3.4620156
310,1436899628837,-2.939481,8.468291,3.425504
311,1436899628838,-2.9442697,8.4904375,3.441665
312,1436899628839,-2.8682537,8.456919,3.445855
313,1436899628859,-2.8496985,8.453926,3.3476925
314,1436899628874,-2.8377275,8.45213,3.3752258
315,1436899628894,-2.902371,8.458116,3.3991678
316,1436899628968,-3.004723,8.541314,3.3889925
317,1436899628969,-2.9706059,8.598776,3.4356794
318,1436899628970,-2.9514523,8.5060005,3.429694
319,1436899629000,-2.96881,8.421604,3.4225113
320,1436899629001,-3.0023289,8.45213,3.413533
321,1436899629075,-2.9789855,8.476671,3.3279405
322,1436899629076,-2.885013,8.441357,3.435081
323,1436899629077,-2.9287071,8.422802,3.5104983
324,1436899629078,-2.9819782,8.475474,3.3734303
325,1436899629103,-3.0148985,8.523358,3.3261447
326,1436899629119,-3.016694,8.60117,3.2638955
327,1436899629133,-3.0131028,8.618527,3.4344823
328,1436899629153,-2.9317,8.348581,3.4392707
329,1436899629174,-2.89459,8.324639,3.3435028
330,1436899629193,-2.8933928,8.438364,3.371036
331,1436899629217,-2.9293058,8.555081,3.3722332
332,1436899629234,-2.9442697,8.568848,3.426701
333,1436899629254,-2.9095535,8.510789,3.3716345
334,1436899629279,-2.9131448,8.454525,3.3889925
335,1436899629308,-2.944868,8.447342,3.4733882
336,1436899629314,-2.9508536,8.413225,3.4799721
337,1436899629334,-2.984971,8.396465,3.4422636
338,1436899629353,-2.973,8.501212,3.4332852
339,1436899629373,-2.9735985,8.578424,3.4805708
340,1436899629393,-2.9496565,8.579621,3.4638114
341,1436899629413,-2.9299042,8.49343,3.526659
342,1436899629433,-2.915539,8.433576,3.329736
343,1436899629453,-2.8616695,8.491036,3.29502
344,1436899629473,-2.866458,8.568848,3.3961751
345,1436899629493,-2.9125464,8.585009,3.4524388
346,1436899629513,-2.9239187,8.5060005,3.484162
347,1436899629533,-2.8868086,8.420407,3.3584664
348,1436899629553,-2.7910407,8.4347725,3.3758245
349,1436899629573,-2.8389246,8.476072,3.3871968
350,1436899629593,-2.930503,8.569447,3.4733882
351,1436899629613,-2.906561,8.565855,3.417723
352,1436899629633,-2.8748376,8.54311,3.3997664
353,1436899629653,-2.882619,8.498219,3.4153287
354,1436899629676,-2.8520927,8.484452,3.447052
355,1436899629695,-2.8724434,8.498219,3.4422636
356,1436899629714,-2.8335378,8.500613,3.3638535
357,1436899629736,-2.7988217,8.556877,3.3746274
358,1436899629755,-2.7952304,8.540716,3.3746274
359,1436899629777,-2.831742,8.527548,3.4051533
360,1436899629794,-2.8407204,8.51019,3.425504
361,1436899629815,-2.8413188,8.507795,3.4662056
362,1436899629835,-2.8341362,8.535928,3.470994
363,1436899629854,-2.834735,8.576031,3.3728316
364,1436899629874,-2.8018146,8.581417,3.3213563
365,1436899629894,-2.710835,8.500014,3.401562
366,1436899629916,-2.689287,8.437167,3.2836475
367,1436899629935,-2.7623103,8.418612,3.318962
368,1436899629958,-2.8311436,8.370728,3.2878375
369,1436899629978,-2.837129,8.435371,3.2010477
370,1436899629996,-2.7928362,8.556278,3.271078
371,1436899630015,-2.8078,8.700529,3.2477345
372,1436899630036,-2.8329391,8.756793,3.2650926
373,1436899630054,-2.767697,8.607155,3.2255883
374,1436899630078,-2.6701334,8.5473,3.1453824
375,1436899630097,-2.6551697,8.573636,3.1489737
376,1436899630116,-2.6677392,8.667608,3.2680852
377,1436899630137,-2.690484,8.6813755,3.289633
378,1436899630155,-2.7814639,8.720282,3.1759086
379,1436899630175,-2.8257565,8.767567,3.0478187
380,1436899630195,-2.8263552,8.822035,2.9442697
381,1436899630218,-2.7868507,8.785523,2.9466639
382,1436899630236,-2.7311857,8.67539,2.930503
383,1436899630276,-2.6749218,8.574833,2.8987796
384,1436899630277,-2.700061,8.552687,2.8030117
385,1436899630296,-2.7299886,8.635287,2.9029696
386,1436899630315,-2.6862943,8.648455,2.9149406
387,1436899630335,-2.597709,8.752603,2.926313
388,1436899630466,-2.6372132,8.862736,2.896984
389,1436899630490,-2.690484,8.904634,2.9101522
390,1436899630491,-2.7365725,8.945934,2.8927941
391,1436899630492,-2.7072437,8.983045,2.7922378
392,1436899630499,-2.712032,8.932767,2.6659436
393,1436899630500,-2.7844565,8.945934,2.5689783
394,1436899630501,-2.8933928,8.858546,2.6443958
395,1436899630502,-2.9245174,8.764574,2.5594015
396,1436899630525,-2.9119477,8.765771,2.2523453
397,1436899630539,-2.9562407,8.839992,2.099715
398,1436899630555,-2.9873652,8.907627,2.0757728
399,1436899630579,-3.0508115,9.001001,2.190096
400,1436899630602,-3.1441853,9.142858,2.332551
401,1436899630619,-3.268684,9.345766,2.1284454
402,1436899630634,-3.3476925,9.255385,2.0572178
403,1436899630656,-3.4410665,8.858546,2.0608091
404,1436899630675,-3.5272577,8.501212,1.9219455
405,1436899630695,-3.5565867,8.572439,1.7902644
406,1436899630715,-3.570952,8.904634,1.894412
407,1436899630735,-3.517681,9.157223,2.2427685
408,1436899630755,-3.4859576,9.011177,2.144606
409,1436899630783,-3.4272997,8.932767,2.3175871
410,1436899630794,-3.3632548,8.863335,2.28347
411,1436899630814,-3.3752258,8.768166,2.2080526
412,1436899630834,-3.4033577,8.779537,2.19249
413,1436899630854,-3.478775,8.7125,2.2852654
414,1436899630874,-3.537433,8.686762,2.32058
415,1436899630894,-3.6314054,8.696938,2.4211364
416,1436899630915,-3.651756,8.722675,2.379238
417,1436899630934,-3.5595794,8.699332,2.44448
418,1436899630954,-3.4344823,8.540117,2.593519
419,1436899630974,-3.3393128,8.308478,2.5791538
420,1436899630994,-3.3435028,8.406641,2.6880898
421,1436899631014,-3.3560722,8.658031,2.6042929
422,1436899631035,-3.3243492,8.867524,2.6755204
423,1436899631055,-3.235165,8.860342,2.742558
