id,attr_time,attr_x,attr_y,attr_z
1,1436899622616,0.25019407,10.13286,0.90979666
2,1436899622623,0.21787235,10.144831,0.8690952
3,1436899622643,0.19692309,10.161591,0.75118077
4,1436899622663,0.30047232,10.175956,0.8122329
5,1436899622683,0.38726214,10.20289,0.9151836
6,1436899622704,0.31364042,10.184934,0.89782566
7,1436899622723,0.110133275,10.17835,0.81881696
8,1436899622745,0.034715924,10.170568,0.82899237
9,1436899622763,0.1352724,10.102334,0.88525605
10,1436899622786,0.24899697,10.211869,0.80684596
11,1436899622807,0.260968,10.229227,0.7290344
12,1436899622828,0.2160767,10.144233,0.7966706
13,1436899622845,0.142455,10.095152,0.89603
14,1436899622865,0.093972415,10.111312,0.8726865
15,1436899622883,0.12150574,10.160992,0.7739257
16,1436899622903,0.15861586,10.216658,0.76315176
17,1436899622923,0.27952304,10.314819,0.81402856
18,1436899622948,0.338181,10.178948,0.91937345
19,1436899622967,0.3369839,10.160394,0.88166475
20,1436899622989,0.2765303,10.128072,0.777517
21,1436899623006,0.23463176,10.109517,0.7649474
22,1436899623027,0.24720132,10.109517,0.80205756
23,1436899623045,0.24061728,10.15381,0.7954735
24,1436899623076,0.23044191,10.13705,0.7422025
25,1436899623164,0.19632454,10.107122,0.7625532
26,1436899623165,0.20709845,10.04607,0.8487445
27,1436899623166,0.17896658,10.157999,0.83258367
28,1436899623167,0.15741876,10.147824,0.76195467
29,1436899623168,0.17477672,10.1939125,0.79128367
30,1436899623185,0.26156655,10.199898,0.8774749
31,1436899623206,0.30526072,10.134057,0.99419224
32,1436899623223,0.3226187,10.211869,0.88525605
33,1436899623244,0.30406362,10.242394,0.7134721
34,1436899623265,0.29807812,10.166978,0.7493851
35,1436899623286,0.24301147,10.120291,0.87927055
36,1436899623310,0.17417817,10.077793,0.866701
37,1436899623328,0.14544775,10.132261,0.80086046
38,1436899623352,0.21547815,10.189722,0.88286185
39,1436899623366,0.26036942,10.164583,0.93852705
40,1436899623384,0.22625206,10.170568,0.8714894
41,1436899623407,0.15442601,10.159196,0.7763199
42,1436899623427,0.14903906,10.125677,0.79008657
43,1436899623447,0.24301147,10.111911,0.87927055
44,1436899623467,0.32202014,10.152613,0.908001
45,1436899623487,0.30166942,10.1544075,0.84934306
46,1436899623507,0.2148796,10.214263,0.830788
47,1436899623527,0.12988544,10.150218,0.825401
48,1436899623549,0.12509704,10.158598,0.84096336
49,1436899623564,0.14784196,10.100538,0.78649527
50,1436899623587,0.19093758,10.189722,0.80205756
51,1436899623609,0.2837129,10.170568,0.93134445
52,1436899623627,0.37349546,10.166978,1.0402806
53,1436899623647,0.34955344,10.235212,0.8726865
54,1436899623667,0.31184477,10.216059,0.7290344
55,1436899623688,0.24241292,10.143036,0.8062474
56,1436899623707,0.11851298,10.096947,0.88944596
57,1436899623728,0.045489833,10.134656,0.9068039
58,1436899623748,0.07062895,10.160992,0.87089086
59,1436899623769,0.20231004,10.198102,0.8619126
60,1436899623789,0.25737667,10.175357,0.84216046
61,1436899623807,0.28909984,10.202292,0.88765025
62,1436899623826,0.33877954,10.260351,0.83617496
63,1436899623905,0.36511576,10.185533,0.83258367
64,1436899623906,0.39264908,10.107122,0.8996213
65,1436899623907,0.36990416,10.092158,0.88166475
66,1436899623908,0.3184288,10.126276,0.8002619
67,1436899623927,0.2813187,10.20289,0.7679402
68,1436899623947,0.3393781,10.163386,0.9032126
69,1436899623966,0.36032736,10.152014,0.973243
70,1436899623990,0.3633201,10.1226845,0.84335756
71,1436899624017,0.35314476,10.170568,0.8265981
72,1436899624025,0.3441665,10.261548,0.8762778
73,1436899624046,0.36870706,10.077793,0.9923966
74,1436899624067,0.39324763,10.183737,0.97982705
75,1436899624089,0.2885013,10.188525,0.75716627
76,1436899624108,0.23403321,10.172364,0.6721721
77,1436899624128,0.23463176,10.126875,0.8098387
78,1436899624148,0.26515785,10.113108,0.9498995
79,1436899624168,0.28670564,10.159196,0.92895025
80,1436899624188,0.27832595,10.207679,0.82360536
81,1436899624208,0.2789245,10.191518,0.7793127
82,1436899624228,0.31364042,10.216658,0.8463503
83,1436899624248,0.32441434,10.229825,0.8367735
84,1436899624268,0.29149407,10.222643,0.8170213
85,1436899624286,0.27353755,10.105327,0.8750807
86,1436899624305,0.24181437,10.012551,0.9020155
87,1436899624328,0.18614918,10.089166,0.82360536
88,1436899624349,0.08200141,10.113707,0.7015011
89,1436899624368,0.10654198,10.179547,0.80564886
90,1436899624387,0.18914193,10.163386,0.94092125
91,1436899624408,0.24660277,10.211869,0.9259575
92,1436899624428,0.23343466,10.206482,0.79487497
93,1436899624447,0.26874915,10.294469,0.7721301
94,1436899624468,0.3441665,10.114903,0.97623575
95,1436899624487,0.3537433,10.104729,0.96665895
96,1436899624509,0.30047232,10.143036,0.7769185
97,1436899624528,0.22445641,10.128671,0.6967127
98,1436899624548,0.17417817,10.17416,0.81163436
99,1436899624570,0.12629414,10.216658,0.85054016
100,1436899624640,0.12868834,10.168773,0.9283517
101,1436899624641,0.16101007,10.09156,0.8822633
102,1436899624642,0.23942018,10.164583,0.8499416
103,1436899624646,0.2645593,10.17416,0.85413146
104,1436899624675,0.24480712,10.257957,0.91099375
105,1436899624688,0.2136825,10.23222,0.908001
106,1436899624707,0.19273324,10.143634,0.85891986
107,1436899624726,0.17776948,10.073604,0.81163436
108,1436899624745,0.20171149,10.122087,0.80804306
109,1436899624770,0.19931729,10.183737,0.82360536
110,1436899624788,0.25079262,10.25676,0.88765025
111,1436899624806,0.3274071,10.250774,0.93732995
112,1436899624829,0.3369839,10.135254,0.8936358
113,1436899624846,0.25857377,10.136452,0.7930793
114,1436899624865,0.20829555,10.257957,0.80924016
115,1436899624885,0.23104046,10.131663,0.8996213
116,1436899624906,0.34955344,10.111911,0.943914
117,1436899624927,0.38307226,10.11251,0.86251116
118,1436899624946,0.3609259,10.1065235,0.83138657
119,1436899624967,0.2813187,10.093356,0.79846627
120,1436899624989,0.2633622,10.144233,0.8511387
121,1436899625010,0.22804771,10.184336,0.9588778
122,1436899625026,0.20350714,10.140042,0.9504981
123,1436899625049,0.16579847,10.2406,0.8678981
124,1436899625069,0.18076223,10.148422,0.81043726
125,1436899625088,0.20410569,10.193314,0.8810662
126,1436899625108,0.16519992,10.255563,0.9091981
127,1436899625129,0.15622166,10.21965,0.9091981
128,1436899625149,0.18674773,10.156203,0.9068039
129,1436899625169,0.20649989,10.094553,0.84335756
130,1436899625189,0.15801731,10.065224,0.7338228
131,1436899625209,0.1328782,10.059837,0.7661445
132,1436899625229,0.18914193,10.167576,0.94211835
133,1436899625249,0.23882163,10.248381,0.94092125
134,1436899625269,0.29867667,10.229825,0.8607155
135,1436899625296,0.37110126,10.251971,0.8858546
136,1436899625400,0.3824737,10.0029745,1.0360907
137,1436899625401,0.28790274,10.110115,0.9504981
138,1436899625402,0.12330139,10.1939125,0.717662
139,1436899625403,0.07062895,10.208876,0.7278373
140,1436899625404,0.092775315,10.192117,0.87687635
141,1436899625421,0.078410104,10.181343,0.90859956
142,1436899625426,0.059855044,10.149021,0.86370826
143,1436899625446,0.12629414,10.21965,0.81283146
144,1436899625467,0.25318682,10.186729,0.89782566
145,1436899625487,0.3345897,10.155006,0.973243
146,1436899625509,0.2896984,10.195708,0.92535895
147,1436899625526,0.19572599,10.188525,0.82599956
148,1436899625547,0.19512744,10.075399,0.8523358
149,1436899625567,0.21068975,10.116699,0.9487024
150,1436899625587,0.19812019,10.156203,0.866701
151,1436899625610,0.20530279,10.192716,0.8475474
152,1436899625629,0.20530279,10.208876,0.8822633
153,1436899625649,0.2633622,10.1460285,1.0079589
154,1436899625669,0.25917232,10.181941,0.9451111
155,1436899625689,0.20231004,10.086772,0.81343
156,1436899625709,0.17537527,10.208278,0.86370826
157,1436899625730,0.18974048,10.137649,0.94092125
158,1436899625749,0.24600422,10.059238,1.0085574
159,1436899625769,0.25019407,10.156802,0.94930094
160,1436899625792,0.20410569,10.192117,0.7811083
161,1436899625808,0.14065935,10.176555,0.79008657
162,1436899625829,0.10175357,10.1861315,0.93373865
163,1436899625848,0.12928689,10.155605,0.98700964
164,1436899625868,0.14425065,10.192117,0.90500826
165,1436899625888,0.19093758,10.142437,0.86610246
166,1436899625910,0.22565351,10.110115,0.919972
167,1436899625930,0.19991584,10.1544075,0.9307459
168,1436899625950,0.1388637,10.204686,0.8948329
169,1436899625967,0.16879122,10.166379,0.9115923
170,1436899625988,0.26755205,10.139444,1.0175357
171,1436899626009,0.29927522,10.119692,0.93014735
172,1436899626028,0.21068975,10.119692,0.81043726
173,1436899626047,0.18315643,10.093954,0.8110358
174,1436899626112,0.23523031,10.210073,0.94211835
175,1436899626113,0.22266077,10.216059,0.91338795
176,1436899626114,0.15143326,10.1621895,0.9032126
177,1436899626135,0.1388637,10.164583,0.9056068
178,1436899626146,0.17657238,10.019734,0.97623575
179,1436899626167,0.2160767,10.143634,0.908001
180,1436899626187,0.23044191,10.231621,0.82480246
181,1436899626206,0.23882163,10.239402,0.85532856
182,1436899626230,0.18555063,10.14124,0.973243
183,1436899626248,0.089184016,10.10413,0.95109665
184,1436899626269,0.038307227,10.125079,0.8810662
185,1436899626287,0.051475335,10.1460285,0.8810662
186,1436899626309,0.14305355,10.234613,0.931943
187,1436899626327,0.21906945,10.15381,1.0073603
188,1436899626349,0.24301147,10.110115,1.0001777
189,1436899626372,0.16938977,10.093356,0.8774749
190,1436899626392,0.14724341,10.135254,0.8367735
191,1436899626410,0.16460137,10.1699705,0.89543146
192,1436899626430,0.17717093,10.217256,0.9415198
193,1436899626448,0.15442601,10.178948,0.9271546
194,1436899626470,0.12210429,10.129868,0.92057055
195,1436899626490,0.093373865,10.107122,0.9032126
196,1436899626512,0.09636662,10.138845,0.8403648
197,1436899626527,0.09636662,10.115502,0.878672
198,1436899626550,0.12150574,10.277111,0.9720459
199,1436899626567,0.12030864,10.156203,0.99060094
200,1436899626587,0.20649989,10.044274,1.0456676
201,1436899626608,0.23163901,10.164583,0.8858546
202,1436899626632,0.18255788,10.184934,0.748188
203,1436899626653,0.12749124,10.189722,0.80205756
204,1436899626673,0.095768064,10.171766,0.94570965
205,1436899626690,0.074818805,10.13286,1.0450691
206,1436899626707,0.044292733,10.17416,0.95349085
207,1436899626727,0.02932897,10.213664,0.8924387
208,1436899626747,0.089782566,10.133459,0.98461545
209,1436899626768,0.15981296,10.117298,1.0049661
210,1436899626787,0.1604115,10.159795,0.9355343
211,1436899626858,0.22685061,10.175956,0.8655039
212,1436899626859,0.30226797,10.19092,0.9139865
213,1436899626860,0.31304187,10.160394,0.9187749
214,1436899626867,0.20171149,10.107122,0.931943
215,1436899626888,0.08080431,10.050261,0.8798691
216,1436899626908,0.051475335,10.159795,0.89662856
217,1436899626927,0.08319851,10.198102,0.85413146
218,1436899626949,0.076015905,10.240001,0.9103952
219,1436899626967,0.094570965,10.301651,0.9792285
220,1436899626988,0.1340753,10.140042,0.9816227
221,1436899627007,0.23163901,10.108319,1.0265139
222,1436899627028,0.18914193,10.19092,0.8535329
223,1436899627051,0.142455,10.186729,0.7769185
224,1436899627069,0.12749124,10.192716,0.91697925
225,1436899627091,0.09935937,10.237008,0.9947908
226,1436899627111,0.059855044,10.201095,0.9768343
227,1436899627131,0.037708677,10.15381,0.8948329
228,1436899627151,0.05327099,10.157999,0.84934306
229,1436899627170,0.08738836,10.123882,0.87567925
230,1436899627191,0.15682021,10.214862,0.8924387
231,1436899627211,0.23702596,10.218452,0.92655605
232,1436899627231,0.2825158,10.152014,0.9091981
233,1436899627248,0.25378537,10.111312,0.919972
234,1436899627271,0.15741876,10.147824,0.9044097
235,1436899627291,0.045489833,10.144831,0.86729956
236,1436899627310,0.021547815,10.175956,0.93254155
237,1436899627327,0.025139118,10.149619,0.94451255
238,1436899627353,0.061650693,10.107721,0.8655039
239,1436899627372,0.011372458,10.113108,0.8571242
240,1436899627395,-0.02633622,10.1861315,0.83617496
241,1436899627412,0.020949265,10.087969,0.8487445
242,1436899627431,0.16639702,10.08318,0.8882488
243,1436899627451,0.28790274,10.127473,0.9391256
244,1436899627469,0.33997664,10.157401,0.9103952
245,1436899627490,0.24241292,10.149619,0.92176765
246,1436899627509,0.17956513,10.133459,0.9828198
247,1436899627573,0.110133275,10.1065235,0.97982705
248,1436899627574,0.04129998,10.163984,0.9151836
249,1436899627575,-0.007182605,10.1939125,0.93254155
250,1436899627595,0.035314474,10.166379,0.9720459
251,1436899627608,0.10055647,10.266935,0.9744401
252,1436899627628,0.11851298,10.267534,0.9139865
253,1436899627648,0.10654198,10.235212,0.94092125
254,1436899627668,0.061650693,10.135254,0.92655605
255,1436899627691,0.01316811,10.095152,0.89184016
256,1436899627710,-0.05566519,10.160394,0.8726865
257,1436899627729,-0.05805939,10.222044,0.83617496
258,1436899627748,0.011971008,10.21546,0.9211691
259,1436899627771,0.130484,10.186729,0.9756372
260,1436899627789,0.10354923,10.089765,0.90740246
261,1436899627811,0.12030864,10.15381,0.8535329
262,1436899627831,0.17118542,10.119094,0.9187749
263,1436899627848,0.31783026,10.1460285,0.9804256
264,1436899627871,0.40222588,10.229825,0.94810385
265,1436899627891,0.41240123,10.222044,0.8487445
266,1436899627911,0.320823,10.10413,0.8798691
267,1436899627931,0.21428105,10.084377,0.9068039
268,1436899627951,0.15442601,10.095152,0.9175778
269,1436899627970,0.20051439,10.120291,0.9008184
270,1436899627990,0.21547815,10.195109,0.9355343
271,1436899628011,0.219668,10.14124,0.93493575
272,1436899628028,0.22385786,10.14124,0.94331545
273,1436899628049,0.19033903,10.1939125,0.9115923
274,1436899628068,0.17657238,10.207679,0.89603
275,1436899628093,0.16460137,10.221446,0.93134445
276,1436899628114,0.095169514,10.148422,0.95349085
277,1436899628146,0.032920275,10.131064,0.92296475
278,1436899628148,-0.026934769,10.156203,0.8463503
279,1436899628168,-0.0023942017,10.21127,0.9271546
280,1436899628188,0.0700304,10.134057,0.9163807
281,1436899628209,0.090381116,10.109517,0.931943
282,1436899628228,0.088585466,10.258555,0.92895025
283,1436899628248,0.09995792,10.120291,0.95109665
284,1436899628282,0.19153613,10.089166,1.033098
285,1436899628292,0.23104046,10.175357,0.9259575
286,1436899628310,0.23403321,10.177752,0.87089086
287,1436899628329,0.2184709,10.161591,0.86251116
288,1436899628350,0.22146365,10.134656,1.0115502
289,1436899628369,0.13227965,10.150817,1.067814
290,1436899628392,0.048482586,10.169372,0.997185
291,1436899628410,0.023942016,10.220847,0.94331545
292,1436899628429,0.107739076,10.166978,0.9636662
293,1436899628458,0.25198972,10.138845,1.0019734
294,1436899628469,0.30885202,10.1544075,1.0145429
295,1436899628490,0.30825347,10.141838,0.9600749
296,1436899628515,0.3298013,10.0987425,0.9600749
297,1436899628529,0.3369839,10.097546,1.021127
298,1436899628552,0.3226187,10.123283,0.9840169
299,1436899628572,0.2741361,10.131064,0.9564836
300,1436899628592,0.27593175,10.1065235,1.009156
301,1436899628611,0.29508537,10.149619,1.0372878
302,1436899628631,0.25677812,10.128671,0.97264445
303,1436899628652,0.22744916,10.2417965,0.9911995
304,1436899628672,0.24420857,10.136452,1.049259
305,1436899628692,0.2657564,10.122087,1.0606314
306,1436899628711,0.24839842,10.196306,0.9259575
307,1436899628731,0.22804771,10.180744,0.8475474
308,1436899628750,0.19692309,10.172364,0.8900445
309,1436899628771,0.19393034,10.155006,0.9959879
310,1436899628790,0.18794483,10.156203,0.9911995
311,1436899628810,0.1921347,10.126875,0.96546185
312,1436899628831,0.21667525,10.141838,0.97144735
313,1436899628850,0.25378537,10.104729,0.9624691
314,1436899628869,0.27593175,10.143634,0.9888053
315,1436899628892,0.27712885,10.198701,0.9624691
316,1436899628912,0.26635495,10.173561,0.92176765
317,1436899628931,0.2645593,10.132261,0.96187055
318,1436899628952,0.25677812,10.169372,0.9415198
319,1436899628969,0.18794483,10.147824,0.9068039
320,1436899628990,0.11851298,10.147225,0.89064306
321,1436899629010,0.07182605,10.135853,0.90021986
322,1436899629074,0.08319851,10.177153,0.93493575
323,1436899629075,0.14903906,10.148422,0.89902276
324,1436899629076,0.23283611,10.220248,0.95947635
325,1436899629096,0.3184288,10.250774,0.878672
326,1436899629110,0.40342298,10.086772,0.82719666
327,1436899629130,0.34955344,10.0987425,0.96785605
328,1436899629149,0.14065935,10.096349,0.94690675
329,1436899629169,-0.024540568,10.169372,0.90021986
330,1436899629191,0.040102877,10.206482,0.92775315
331,1436899629211,0.24121583,10.238804,1.0139444
332,1436899629231,0.38845924,10.188525,1.0372878
333,1436899629251,0.39923313,10.126276,0.9696517
334,1436899629271,0.36750996,10.123283,0.89543146
335,1436899629294,0.3184288,10.0748005,0.9427169
336,1436899629310,0.23642741,10.129868,0.97982705
337,1436899629332,0.11372458,10.217256,0.95468795
338,1436899629356,0.13946225,10.247183,0.9504981
339,1436899629373,0.22445641,10.207679,0.9780314
340,1436899629391,0.30466217,10.134656,1.0372878
341,1436899629409,0.24301147,10.119094,0.9684546
342,1436899629431,0.18914193,10.155605,0.98222125
343,1436899629453,0.22445641,10.208876,1.0354922
344,1436899629472,0.29927522,10.198102,1.0259154
345,1436899629491,0.29328972,10.160992,1.0336965
346,1436899629511,0.22625206,10.166978,1.0247183
347,1436899629532,0.18255788,10.061633,1.0313023
348,1436899629552,0.22924481,10.156802,1.0737995
349,1436899629570,0.25857377,10.196306,1.0708067
350,1436899629592,0.2896984,10.150817,1.0881647
351,1436899629613,0.32621,10.128671,1.0420763
352,1436899629634,0.29807812,10.117896,0.9235633
353,1436899629653,0.27712885,10.097546,0.8924387
354,1436899629672,0.25857377,10.14543,0.99778354
355,1436899629691,0.219668,10.186729,1.0869676
356,1436899629712,0.19393034,10.143036,1.1522095
357,1436899629731,0.22804771,10.125079,1.1180922
358,1436899629796,0.27114335,10.119094,1.0342951
359,1436899629797,0.31304187,10.117298,1.0121487
360,1436899629798,0.3573346,10.146626,1.0390835
361,1436899629852,0.40821138,10.125677,1.0737995
362,1436899629853,0.39923313,10.103531,1.0779893
363,1436899629854,0.37469256,10.10413,0.94331545
364,1436899629891,0.40641573,10.086173,0.93373865
365,1436899629892,0.49559975,10.051457,0.96546185
366,1436899629910,0.58897364,10.019734,0.9684546
367,1436899629932,0.6290765,10.04607,0.9911995
368,1436899629977,0.58119243,10.184934,0.89603
369,1436899629978,0.5758055,10.132261,0.87448215
370,1436899630001,0.7068881,10.158598,0.91817635
371,1436899630011,0.8062474,10.09156,0.94810385
372,1436899630033,0.91338795,10.092757,0.90979666
373,1436899630052,1.0121487,10.115502,0.85532856
374,1436899630071,1.1312603,10.129269,0.7457938
375,1436899630093,1.2569559,10.107721,0.7254431
376,1436899630113,1.323395,10.210671,0.7625532
377,1436899630133,1.2545617,10.271125,0.7918822
378,1436899630154,1.1779473,10.149021,0.7104794
379,1436899630173,1.2192472,10.1382475,0.7326257
380,1436899630191,1.1713632,10.119094,0.61171854
381,1436899630214,1.2012907,9.974244,0.5895722
382,1436899630234,1.2246342,9.92636,0.5590461
383,1436899630253,1.2497733,9.972448,0.41120413
384,1436899630275,1.240795,9.991602,0.37469256
385,1436899630294,1.2413936,10.059837,0.42197806
386,1436899630311,1.2114661,10.11251,0.5530606
387,1436899630336,1.1994951,10.168175,0.61890113
388,1436899630359,1.2258313,10.184934,0.61411273
389,1436899630373,1.2258313,10.19092,0.44651863
390,1436899630391,1.3245921,10.388441,0.4297592
391,1436899630413,1.3293805,10.404602,0.40162733
392,1436899630431,1.2437878,10.354323,0.30705637
393,1436899630451,1.1234791,10.371083,0.20949265
394,1436899630472,0.95229375,10.383653,0.14185645
395,1436899630491,0.74998367,10.398018,0.05805939
396,1436899630511,0.5291186,10.465654,0.06464344
397,1436899630540,0.2896984,10.394426,0.12389994
398,1436899630602,0.16819267,10.319608,0.22505496
399,1436899630603,0.15083471,10.33936,0.1400608
400,1436899630604,0.13826515,10.372879,-0.050278235
401,1436899630612,0.091578215,10.482413,0.061052144
402,1436899630641,-0.14903906,10.506355,0.19273324
403,1436899630652,-0.4405331,10.4171715,0.39444473
404,1436899630673,-0.6817489,10.386047,0.6183026
405,1436899630694,-0.9020155,10.219051,0.78888947
406,1436899630711,-0.94451255,10.125079,0.79846627
407,1436899630733,-0.8475474,10.245388,0.78170687
408,1436899630751,-0.80924016,10.207081,0.79367787
