id,attr_time,attr_x,attr_y,attr_z
1,1436983160048,0.10779114,0.084565,0.03597465
2,1436983160068,0.1102346,0.083648704,0.029865999
3,1436983160087,0.106874846,0.08792476,0.030782297
4,1436983160107,0.10198792,0.090673655,0.03383662
5,1436983160131,0.10046076,0.09036822,0.032309458
6,1436983160148,0.10198792,0.092506245,0.037196383
7,1436983160170,0.0989336,0.0976986,0.03597465
8,1436983160191,0.09862816,0.09708774,0.03475292
9,1436983160209,0.097101,0.09189539,0.037196383
10,1436983160229,0.099544466,0.092200816,0.031698596
11,1436983160247,0.09679557,0.096782304,0.033225756
12,1436983160270,0.09649014,0.10441812,0.03689095
13,1436983160289,0.09679557,0.09892033,0.03566922
14,1436983160309,0.08549456,0.096476875,0.036585517
15,1436983160328,0.07419355,0.0986149,0.034142055
16,1436983160353,0.08427283,0.09556057,0.030171432
17,1436983160369,0.092519514,0.09830947,0.025895374
18,1436983160388,0.097101,0.096476875,0.029255133
19,1436983160410,0.09129778,0.08823019,0.032920323
20,1436983160428,0.09679557,0.09556057,0.03597465
21,1436983160454,0.10870744,0.08089981,0.028644267
22,1436983160467,0.0848837,0.09189539,0.022230184
23,1436983160488,0.059532788,0.10319639,0.010623744
24,1436983160507,0.06289255,0.09036822,0.004209658
25,1436983160529,0.09068692,0.09494971,0.0014607646
26,1436983160547,0.0812185,0.102585524,0.0029879278
27,1436983160569,0.06747404,0.08975735,0.004209658
28,1436983160588,0.06686317,0.09403341,0.0032933606
29,1436983160609,0.07724788,0.103807256,0.0032933606
30,1436983160629,0.07938591,0.10716702,0.0011553322
31,1436983160651,0.08335653,0.108388744,0.00084989937
32,1436983160669,0.09313038,0.0995312,0.0014607646
33,1436983160688,0.09099235,0.10350183,0.0023770626
34,1436983160708,0.077858746,0.09464428,-0.00373159
35,1436983160728,0.082440235,0.08120524,-0.005258753
36,1436983160751,0.09160321,0.09403341,-0.0049533206
37,1436983160771,0.08915976,0.08975735,-0.006175051
38,1436983160791,0.08610543,0.09036822,-0.00953481
39,1436983160810,0.08579999,0.08425957,-0.015643463
40,1436983160829,0.08915976,0.08242697,-0.012283703
41,1436983160848,0.089465186,0.083648704,-0.015032597
42,1436983160870,0.08579999,0.08425957,-0.014727164
43,1436983160932,0.08549456,0.08181611,-0.01533803
44,1436983160933,0.080913074,0.08670303,-0.019308653
45,1436983160934,0.08610543,0.083648704,-0.013200001
46,1436983160949,0.08641086,0.08120524,-0.013505434
47,1436983160969,0.09313038,0.08761933,-0.007091349
48,1436983160988,0.09160321,0.08731389,-0.0064804833
49,1436983161008,0.09068692,0.09006279,-0.01075654
50,1436983161041,0.088548884,0.092506245,-0.0058696186
51,1436983161049,0.0821348,0.08792476,-0.0073967814
52,1436983161075,0.07999677,0.084870435,-0.0022044268
53,1436983161091,0.09190865,0.09342255,-0.000371831
54,1436983161115,0.08885432,0.092506245,0.002682495
55,1436983161132,0.07999677,0.096782304,0.0011553322
56,1436983161151,0.08030221,0.09158995,0.010012878
57,1436983161169,0.08915976,0.090673655,0.023757346
58,1436983161189,0.101071626,0.0695988,0.024673644
59,1436983161213,0.09465754,0.06471188,0.018870424
60,1436983161233,0.066252306,0.07662375,0.016732397
61,1436983161254,0.066557735,0.06471188,0.009402012
62,1436983161272,0.088243455,0.06868251,0.009707445
63,1436983161291,0.088243455,0.08151068,0.008180282
64,1436983161310,0.06686317,0.07387486,0.010623744
65,1436983161329,0.06075452,0.06868251,0.010012878
66,1436983161349,0.07480442,0.07082053,0.010012878
67,1436983161372,0.07266639,0.07112597,0.015510665
68,1436983161441,0.06594688,0.0705151,0.013983503
69,1436983161442,0.06961206,0.06349015,0.009707445
70,1436983161443,0.07236096,0.07265313,0.008791148
71,1436983161449,0.06380884,0.07631832,0.007874849
72,1436983161469,0.06075452,0.06593361,0.0039042253
73,1436983161489,0.06747404,0.07448573,0.004820524
74,1436983161509,0.07449899,0.08089981,0.0023770626
75,1436983161529,0.07236096,0.080594376,0.0032933606
76,1436983161554,0.07449899,0.082121536,0.0032933606
77,1436983161585,0.08182937,0.08425957,0.010318311
78,1436983161590,0.08274567,0.08761933,0.010318311
79,1436983161610,0.0839674,0.080594376,0.0069585517
80,1436983161629,0.08030221,0.09006279,0.010929176
81,1436983161649,0.0821348,0.08761933,0.006347687
82,1436983161671,0.08152394,0.08395413,0.0054313885
83,1436983161699,0.080913074,0.08395413,-0.0040370226
84,1436983161709,0.07969134,0.08181611,-0.0009826964
85,1436983161729,0.07755332,0.085175864,0.0029879278
86,1436983161751,0.07022293,0.08975735,0.0032933606
87,1436983161776,0.066252306,0.092200816,0.004515091
88,1436983161803,0.0699175,0.082121536,0.00054446654
89,1436983161810,0.06869577,0.082121536,-0.0018989942
90,1436983161829,0.07144466,0.08731389,-0.0018989942
91,1436983161849,0.07480442,0.08975735,-0.0040370226
92,1436983161869,0.07755332,0.09556057,-0.0009826964
93,1436983161892,0.07297182,0.089451924,0.006347687
94,1436983161915,0.07755332,0.09158995,0.010012878
95,1436983161991,0.09038148,0.084565,0.01367807
96,1436983161997,0.08702172,0.07387486,0.012456339
97,1436983161998,0.06258711,0.08120524,0.0054313885
98,1436983161999,0.058005624,0.07265313,-0.005564186
99,1436983162014,0.078164175,0.07631832,-0.008007647
100,1436983162030,0.089770615,0.08884106,-0.0022044268
101,1436983162051,0.07602615,0.07570746,-0.001288129
102,1436983162080,0.06380884,0.07601289,-0.0022044268
103,1436983162093,0.075109854,0.07754005,0.0057368213
104,1436983162115,0.0839674,0.08089981,0.006653119
105,1436983162144,0.07999677,0.07082053,0.010929176
106,1436983162150,0.08457826,0.07509659,0.0112346085
107,1436983162170,0.08457826,0.07509659,0.0011553322
108,1436983162190,0.08427283,0.079067215,0.0017661974
109,1436983162214,0.07724788,0.07082053,-0.0034261574
110,1436983162230,0.076331586,0.07601289,-0.007702214
111,1436983162251,0.07908048,0.08181611,-0.0058696186
112,1436983162271,0.076637015,0.08089981,-0.0064804833
113,1436983162290,0.076331586,0.08089981,-0.0058696186
114,1436983162310,0.076331586,0.08303784,-0.0025098594
115,1436983162330,0.076942444,0.08670303,-0.0034261574
116,1436983162350,0.07266639,0.084870435,0.0014607646
117,1436983162370,0.07388812,0.079372644,-0.00373159
118,1436983162394,0.07755332,0.08425957,-0.00373159
119,1436983162410,0.0812185,0.085175864,-0.0034261574
120,1436983162430,0.07999677,0.08242697,-0.0034261574
121,1436983162450,0.07908048,0.07967808,0.00054446654
122,1436983162472,0.07969134,0.079372644,-0.0034261574
123,1436983162492,0.06961206,0.08425957,-0.009229377
124,1436983162512,0.06777947,0.08120524,-0.008618511
125,1436983162531,0.07236096,0.08242697,-0.008618511
126,1436983162601,0.06686317,0.08823019,-0.011061973
127,1436983162602,0.06105995,0.0854813,-0.008313079
128,1436983162603,0.06380884,0.08823019,-0.011672838
129,1436983162611,0.06441971,0.09158995,-0.011061973
130,1436983162630,0.056783896,0.096782304,-0.009229377
131,1436983162649,0.04212313,0.09403341,-0.00067726383
132,1436983162669,0.04548289,0.103807256,0.0032933606
133,1436983162692,0.039374232,0.08242697,-0.0015935616
134,1436983162711,0.00455492,0.096782304,-0.008007647
135,1436983162730,-0.03912195,0.1248821,-0.023279278
136,1436983162750,-0.04461973,0.13648856,-0.03977264
137,1436983162771,-0.020795994,0.16092315,-0.049546484
138,1436983162793,0.0036386177,0.15359277,-0.051073648
139,1436983162813,0.021353714,0.10319639,-0.04679759
140,1436983162832,0.036014475,0.072042264,-0.032442257
141,1436983162863,0.052202404,0.04272073,-0.012589136
142,1436983162872,0.049758945,0.03691751,-0.006785916
143,1436983162893,0.030516692,0.06715534,-0.0049533206
144,1436983162913,0.014328763,0.084565,-0.0058696186
145,1436983162931,0.019826546,0.09403341,-0.0018989942
146,1436983162952,0.018910252,0.07295856,-0.011061973
147,1436983162970,0.0021114573,0.043026164,-0.018392356
148,1436983162995,0.022880875,0.017064393,-0.020224951
149,1436983163039,0.07175009,0.0036253557,-0.01533803
150,1436983163040,0.09160321,0.00301449,-0.016865194
151,1436983163050,0.11359436,0.008512277,-0.010451108
152,1436983163070,0.1261171,0.012177471,-0.000371831
153,1436983163091,0.11787042,0.03203059,0.004515091
154,1436983163110,0.11420523,0.05524347,-0.001288129
155,1436983163132,0.101377055,0.07967808,-0.01075654
156,1436983163152,0.07449899,0.10289095,-0.023890143
157,1436983163171,0.058921922,0.10594529,-0.026028171
158,1436983163191,0.043344863,0.096782304,-0.02694447
159,1436983163212,0.04914808,0.08700846,-0.026333604
160,1436983163231,0.046093754,0.08334327,-0.026333604
161,1436983163252,0.06930663,0.085175864,-0.020835817
162,1436983163272,0.086716294,0.08975735,-0.020530384
163,1436983163295,0.10229336,0.08975735,-0.021752115
164,1436983163316,0.11328893,0.086397596,-0.015643463
165,1436983163335,0.1392507,0.08792476,-0.014116299
166,1436983163354,0.15146801,0.08028895,-0.0018989942
167,1436983163370,0.12733883,0.083648704,0.009096581
168,1436983163390,0.10076619,0.10350183,0.015816098
169,1436983163410,0.08915976,0.10502899,0.01948129
170,1436983163432,0.0830511,0.09739317,0.0130672045
171,1436983163464,0.06594688,0.12213321,0.006347687
172,1436983163473,0.04914808,0.11785716,-0.009229377
173,1436983163491,0.06594688,0.08395413,-0.009229377
174,1436983163511,0.092519514,0.07998351,0.004820524
175,1436983163530,0.100155324,0.08731389,0.0112346085
176,1436983163552,0.09129778,0.085175864,0.015510665
177,1436983163572,0.08457826,0.07387486,0.014288934
178,1436983163592,0.08885432,0.06593361,0.0148998
179,1436983163612,0.09038148,0.06440645,0.020397587
180,1436983163631,0.06564144,0.055548903,0.01612153
181,1436983163651,0.05281327,0.051883712,0.0112346085
182,1436983163676,0.033571012,0.0705151,0.008791148
183,1436983163696,-0.010105848,0.06349015,-0.0022044268
184,1436983163716,-0.025072046,0.059214093,-0.019308653
185,1436983163735,-0.033624165,0.07754005,-0.024806442
186,1436983163753,-0.04034368,0.080594376,-0.017476058
187,1436983163772,-0.026599206,0.072042264,-0.008618511
188,1436983163791,0.014634192,0.06440645,0.0020716297
189,1436983163813,0.089770615,0.06104669,0.011845473
190,1436983163836,0.13619637,0.03203059,0.019786721
191,1436983163857,0.13130945,0.021951314,0.024062779
192,1436983163873,0.1374181,0.027449101,0.018564992
193,1436983163894,0.11909215,0.03477948,0.010623744
194,1436983163941,0.06869577,0.053716306,-0.008313079
195,1436983163942,0.024408035,0.06837707,-0.024501009
196,1436983163952,0.0015005916,0.052800007,-0.027860766
197,1436983163972,-0.002775468,0.031419724,-0.027555335
198,1436983163993,0.0039440542,0.017064393,-0.012283703
199,1436983164011,0.012190729,0.018591553,-0.0009826964
200,1436983164033,0.007914677,0.017675258,0.00054446654
201,1436983164051,0.018910252,0.011566605,-0.0064804833
202,1436983164072,0.04365029,0.008206844,-0.015948895
203,1436983164092,0.09465754,0.016453527,-0.022973845
204,1436983164113,0.13130945,0.008206844,-0.018086923
205,1436983164132,0.11237263,-0.006759353,-0.015032597
206,1436983164151,0.08182937,0.027754534,-0.026639037
207,1436983164175,0.03815251,0.040277272,-0.032442257
208,1436983164194,0.029905826,0.032641456,-0.025111873
209,1436983164214,0.020742849,0.05218914,-0.026028171
210,1436983164234,-0.0055243596,0.057076067,-0.030915093
211,1436983164254,-0.025377475,0.030503426,-0.032136824
212,1436983164274,-0.01285474,0.021645881,-0.026333604
213,1436983164294,0.017077655,0.015231796,-0.01778149
214,1436983164314,0.05525673,0.025616504,-0.008923944
215,1436983164335,0.077858746,0.03294689,-0.010145675
216,1436983164355,0.09496297,0.0424153,-0.009229377
217,1436983164372,0.0989336,0.06013039,-0.0040370226
218,1436983164461,0.09740643,0.059519526,-0.0034261574
219,1436983164462,0.09129778,0.06440645,-0.001288129
220,1436983164463,0.087938026,0.06990424,0.0057368213
221,1436983164464,0.07572071,0.06990424,0.01367807
222,1436983164475,0.0848837,0.073263995,0.01612153
223,1436983164494,0.09038148,0.08395413,0.023451913
224,1436983164514,0.089770615,0.09708774,0.028338835
225,1436983164533,0.105653115,0.10472356,0.024979077
226,1436983164552,0.1102346,0.10899961,0.0289497
227,1436983164572,0.09343581,0.10594529,0.029560566
228,1436983164593,0.10351509,0.093727976,0.03353119
229,1436983164614,0.11481609,0.08181611,0.03933441
230,1436983164636,0.11603782,0.08731389,0.03200403
231,1436983164654,0.12184104,0.095255144,0.030476864
232,1436983164679,0.13558552,0.095255144,0.03261489
233,1436983164695,0.14810824,0.10625072,0.035363786
234,1436983164714,0.16460161,0.118468024,0.03841811
235,1436983164733,0.20125353,0.112359375,0.05674407
236,1436983164752,0.20064266,0.118468024,0.07232113
237,1436983164773,0.18903622,0.13343422,0.08270584
238,1436983164793,0.18995252,0.11022134,0.083316706
239,1436983164813,0.14444306,0.113886535,0.072932
240,1436983164835,0.09343581,0.14931673,0.04422133
241,1436983164855,0.061365385,0.15359277,0.015510665
242,1436983164875,0.05739476,0.14626239,-6.639864e-05
243,1436983164895,0.025935203,0.1566471,-0.016865194
244,1436983164913,-0.03148613,0.17039156,-0.021752115
245,1436983164940,-0.060807668,0.16855897,-0.023890143
246,1436983165013,-0.051033817,0.16245031,-0.022057548
247,1436983165014,-0.031180702,0.15359277,-0.017476058
248,1436983165015,0.00027886033,0.15511993,-0.006785916
249,1436983165016,0.012801595,0.15786883,-0.007702214
250,1436983165032,0.026851498,0.16916984,-0.006175051
251,1436983165053,0.06105995,0.16214488,-0.006175051
252,1436983165073,0.11787042,0.1529819,0.004515091
253,1436983165092,0.16063099,0.15603623,0.018564992
254,1436983165114,0.17956781,0.16092315,0.032920323
255,1436983165133,0.17559719,0.15725797,0.043610465
256,1436983165154,0.17009939,0.16183946,0.048802823
257,1436983165190,0.1551332,0.15145475,0.046053927
258,1436983165194,0.11909215,0.13954288,0.034447487
259,1436983165247,0.07969134,0.12182778,0.016732397
260,1436983165248,0.053729568,0.100752935,0.0057368213
261,1436983165253,0.048537213,0.08731389,0.00023903418
262,1436983165275,0.039985098,0.06471188,0.002682495
263,1436983165293,0.044872023,0.058603227,0.0072639845
264,1436983165312,0.066252306,0.05066198,0.015205232
265,1436983165333,0.07755332,0.03905554,0.019175857
266,1436983165355,0.08182937,0.031419724,0.015510665
267,1436983165375,0.100155324,0.028976265,0.022230184
268,1436983165400,0.12550624,0.02256218,0.019786721
269,1436983165417,0.11451066,0.002709061,0.018564992
270,1436983165433,0.08549456,0.014926363,0.014594367
271,1436983165454,0.05617303,0.027449101,-0.0034261574
272,1436983165475,0.053424135,0.013093766,-0.011061973
273,1436983165495,0.05983822,0.045775056,-0.013200001
274,1436983165563,0.0409014,0.066239044,-0.015032597
275,1436983165564,0.016466789,0.06196299,-0.019614086
276,1436983165565,0.011274435,0.06807164,-0.020224951
277,1436983165591,0.018910252,0.07876178,-0.024195576
278,1436983165606,0.02349174,0.089451924,-0.021446683
279,1436983165614,0.01768852,0.09556057,-0.02938793
280,1436983165633,0.020131983,0.09892033,-0.023890143
281,1436983165653,0.024102606,0.10930504,-0.029998796
282,1436983165673,0.028684095,0.114191964,-0.030304229
283,1436983165693,0.04701005,0.11480283,-0.034580283
284,1436983165722,0.0699175,0.124271244,-0.039161775
285,1436983165735,0.06747404,0.13251793,-0.042826965
286,1436983165755,0.073582694,0.13954288,-0.04710302
287,1436983165778,0.08030221,0.15084389,-0.042521533
288,1436983165795,0.063503414,0.15603623,-0.036718313
289,1436983165815,0.0409014,0.15756339,-0.0412998
290,1436983165836,0.019826546,0.15481451,-0.037023745
291,1436983165854,0.0118853,0.14778955,-0.03977264
292,1436983165877,0.016466789,0.1398483,-0.038856342
293,1436983165896,0.03540361,0.14229177,-0.033053122
294,1436983165916,0.070833795,0.14809498,-0.025417306
295,1436983165935,0.0830511,0.13954288,-0.01533803
296,1436983165954,0.08518913,0.14137547,-0.008007647
297,1436983165976,0.09771187,0.14748412,0.0039042253
298,1436983165998,0.11909215,0.12885273,0.0075694174
299,1436983166018,0.11634326,0.118468024,0.004515091
300,1436983166035,0.08915976,0.12640926,-0.0015935616
301,1436983166059,0.088548884,0.10136379,-0.005258753
302,1436983166123,0.10962374,0.093727976,-0.0058696186
303,1436983166124,0.11420523,0.10350183,-0.004647888
304,1436983166125,0.09465754,0.105334416,0.0011553322
305,1436983166146,0.08641086,0.10563985,0.010012878
306,1436983166154,0.078164175,0.10716702,0.009096581
307,1436983166174,0.07388812,0.105334416,0.0130672045
308,1436983166194,0.07327726,0.101058364,0.0148998
309,1436983166214,0.0830511,0.100752935,0.015510665
310,1436983166263,0.09099235,0.105334416,0.016732397
311,1436983166264,0.08457826,0.10472356,0.01367807
312,1436983166274,0.08427283,0.09281168,0.012761772
313,1436983166294,0.086716294,0.085175864,0.0112346085
314,1436983166319,0.088243455,0.08670303,0.010623744
315,1436983166335,0.07541528,0.08792476,0.009096581
316,1436983166354,0.075109854,0.08884106,0.014594367
317,1436983166374,0.07297182,0.092506245,0.012761772
318,1436983166394,0.066252306,0.08761933,0.015205232
319,1436983166414,0.0699175,0.08273241,0.016732397
320,1436983166436,0.078164175,0.08089981,0.01367807
321,1436983166454,0.07908048,0.07998351,0.01948129
322,1436983166500,0.088548884,0.07509659,0.02070302
323,1436983166501,0.0989336,0.07173683,0.017037828
324,1436983166514,0.101071626,0.07173683,0.022535615
325,1436983166534,0.09587927,0.058603227,0.030782297
326,1436983166554,0.095268406,0.061657555,0.04055614
327,1436983166578,0.11481609,0.03416862,0.04849739
328,1436983166593,0.12489537,0.011261173,0.051857147
329,1436983166615,0.0980173,0.027449101,0.038723543
330,1436983166633,0.087938026,0.022867613,0.024979077
331,1436983166653,0.11756498,0.017980691,0.01948129
332,1436983166674,0.12856056,0.034474052,0.018259559
333,1436983166693,0.11970302,0.032336023,0.015816098
334,1436983166713,0.099544466,0.030197993,0.021313885
335,1436983166733,0.09740643,0.040888138,0.020397587
336,1436983166753,0.09679557,0.03691751,0.024062779
337,1436983166774,0.104125954,0.03294689,0.03108773
338,1436983166793,0.10779114,0.03294689,0.025589941
339,1436983166813,0.112983495,0.042109866,0.02528451
340,1436983166833,0.101377055,0.052494574,0.019786721
341,1436983166853,0.09496297,0.049745683,0.018564992
342,1436983166873,0.10168249,0.054632604,0.015205232
343,1436983166893,0.10504225,0.06379558,0.017648693
344,1436983166913,0.10595854,0.073569424,0.021313885
345,1436983166935,0.105653115,0.07815091,0.020397587
346,1436983166953,0.10046076,0.079067215,0.022841047
347,1436983166973,0.09465754,0.07998351,0.02650624
348,1436983167011,0.0989336,0.07754005,0.021008452
349,1436983167013,0.10840201,0.0854813,0.021008452
350,1436983167033,0.10443138,0.089146495,0.024368212
351,1436983167056,0.09679557,0.08884106,0.024062779
352,1436983167074,0.10168249,0.09189539,0.026811672
353,1436983167095,0.10198792,0.092506245,0.027422536
354,1436983167115,0.09862816,0.08425957,0.035058353
355,1436983167134,0.09313038,0.079372644,0.040861573
356,1436983167155,0.09923903,0.08151068,0.04635936
357,1436983167174,0.11603782,0.061657555,0.048191957
358,1436983167194,0.09343581,0.06257385,0.04055614
359,1436983167214,0.07602615,0.07112597,0.037196383
360,1436983167236,0.08152394,0.06410102,0.028033402
361,1436983167256,0.10382052,0.07020967,0.027422536
362,1436983167275,0.094046675,0.08028895,0.027117105
363,1436983167294,0.08152394,0.07601289,0.024368212
364,1436983167315,0.07113923,0.07570746,0.026200807
365,1436983167334,0.078164175,0.07662375,0.024368212
366,1436983167354,0.0830511,0.08028895,0.01948129
367,1436983167375,0.08549456,0.086397596,0.024979077
368,1436983167394,0.0839674,0.08578673,0.023451913
369,1436983167418,0.07449899,0.092506245,0.020397587
370,1436983167434,0.065336004,0.08242697,0.022841047
371,1436983167454,0.08182937,0.08028895,0.021008452
372,1436983167474,0.08518913,0.08731389,0.022230184
373,1436983167495,0.07755332,0.08395413,0.024673644
374,1436983167514,0.077858746,0.07692918,0.026811672
375,1436983167536,0.0848837,0.07601289,0.024368212
376,1436983167554,0.09068692,0.0714314,0.024062779
377,1436983167575,0.08732715,0.07082053,0.026811672
378,1436983167595,0.08274567,0.07570746,0.020397587
