id,attr_time,attr_x,attr_y,attr_z
1,1437227272044,-0.023717504,-0.014806835,-0.0041299807
2,1437227272045,-0.024633802,-0.008698182,0.0013678065
3,1437227272046,-0.027382694,-0.005338423,0.007781891
4,1437227272047,-0.02432837,-0.0016732328,0.0032004025
5,1437227272048,-0.021579474,-0.008087318,0.0035058344
6,1437227272049,-0.016081689,-0.012668807,0.0016732393
7,1437227272060,-0.0093621705,-0.008698182,-0.0029082503
8,1437227272077,-0.0050861137,-0.017555729,-0.0077951723
9,1437227272098,-0.0017263554,-0.022137217,-0.0019919523
10,1437227272119,-0.0060024117,-0.023664381,-0.0010756543
11,1437227272142,-0.0035589505,-0.022748083,-0.00015935674
12,1437227272157,-0.0020317873,-0.017555729,0.0004515089
13,1437227272179,-0.0035589505,-0.02122092,0.0074764583
14,1437227272198,0.0022442685,-0.019693758,0.012057949
15,1437227272217,0.0043822983,-0.018166594,0.012057949
16,1437227272241,0.007436623,-0.012057941,0.010836218
17,1437227272260,0.00010624062,-0.014806835,0.009614488
18,1437227272277,-0.008751305,-0.014501402,0.011447083
19,1437227272299,-0.0060024117,-0.019388326,0.010530785
20,1437227272321,0.0025497014,-0.026107842,0.010836218
21,1437227272341,0.006825759,-0.02580241,0.009919919
22,1437227272360,0.0098800855,-0.026718708,0.0035058344
23,1437227272377,0.012018113,-0.026718708,0.0071710264
24,1437227272404,0.0046877293,-0.032216493,0.014195977
25,1437227272417,-0.0032535177,-0.027940437,0.013279678
26,1437227272437,-0.0060024117,-0.020304622,0.006254729
27,1437227272457,-0.010583901,-0.016028566,0.005949296
28,1437227272477,-0.012416497,-0.008087318,0.006560161
29,1437227272497,-0.010889334,-0.0022840984,0.007781891
30,1437227272518,-0.010889334,-0.002894964,0.011447083
31,1437227272537,-0.016081689,-0.0059492886,0.0041167
32,1437227272557,-0.008751305,-0.010836212,0.0038112672
33,1437227272578,-0.0029480858,-0.016028566,-0.00046478957
34,1437227272600,-0.0001991922,-0.019082893,0.0035058344
35,1437227272620,-0.0001991922,-0.019082893,0.00869819
36,1437227272644,-0.0011154898,-0.020610055,0.011752516
37,1437227272658,-0.007224142,-0.019693758,0.015112275
38,1437227272688,-0.0093621705,-0.01999919,0.01114165
39,1437227272745,-0.010278469,-0.023053516,0.008087324
40,1437227272746,-0.0050861137,-0.022137217,0.0071710264
41,1437227272747,0.0022442685,-0.020915488,0.010530785
42,1437227272765,0.00926922,-0.023053516,0.0074764583
43,1437227272777,0.016905036,-0.025496978,0.0025895368
44,1437227272806,0.007436623,-0.02702414,0.0032004025
45,1437227272819,-0.0023372201,-0.020304622,0.004422133
46,1437227272838,-0.004780681,-0.016028566,-0.00015935674
47,1437227272862,-0.0038643833,-0.009309048,0.002284104
48,1437227272878,-0.0038643833,-0.009003615,0.006254729
49,1437227272900,0.00010624062,-0.008087318,0.005949296
50,1437227272919,-0.0008100569,-0.015112268,0.0074764583
51,1437227272942,-0.0023372201,-0.0138905365,0.006560161
52,1437227272959,-0.0050861137,-0.011141643,0.0129742455
53,1437227272981,-0.004475249,-0.0138905365,0.013279678
54,1437227273000,-0.008445872,-0.018166594,0.016334005
55,1437227273020,-0.007224142,-0.019388326,0.016639438
56,1437227273041,-0.0035589505,-0.02458068,0.011752516
57,1437227273060,-0.0053915465,-0.026718708,0.011447083
58,1437227273080,-0.004780681,-0.026413275,0.011447083
59,1437227273098,0.00010624062,-0.025496978,0.0007569408
60,1437227273120,-0.004169816,-0.021526352,-0.0035191155
61,1437227273142,-0.01852515,-0.01663943,-0.0019919523
62,1437227273158,-0.020663178,-0.023664381,0.004422133
63,1437227273180,-0.011500198,-0.03191106,0.006254729
64,1437227273202,-0.004780681,-0.027329572,0.0068655936
65,1437227273220,0.00041167345,-0.025191545,0.006254729
66,1437227273241,0.0037714327,-0.024275247,0.0041167
67,1437227273261,-0.0069187097,-0.024886113,0.0041167
68,1437227273278,-0.014249093,-0.025191545,0.0041167
69,1437227273302,-0.028298993,-0.016028566,-0.009627768
70,1437227273321,-0.02799356,-0.014806835,-0.0102386335
71,1437227273342,-0.025855532,-0.012057941,-0.014209257
72,1437227273362,-0.015470823,-0.018472027,-0.017263584
73,1437227273382,-0.014554525,-0.014806835,-0.024593966
74,1437227273401,-0.015776256,-0.015112268,-0.025815697
75,1437227273422,-0.014859958,-0.016334,-0.027953725
76,1437227273482,-0.017608851,-0.023664381,-0.030702619
77,1437227273483,-0.013638227,-0.028856736,-0.029480888
78,1437227273484,-0.011500198,-0.02824587,-0.035894975
79,1437227273498,-0.009667603,-0.026107842,-0.023983102
80,1437227273521,-0.014554525,-0.026107842,-0.012682094
81,1437227273540,-0.017914284,-0.019693758,-0.008406037
82,1437227273558,-0.017608851,-0.02244265,-0.0077951723
83,1437227273580,-0.017914284,-0.008698182,-0.00168652
84,1437227273598,-0.01272193,-0.01663943,-0.00077022193
85,1437227273623,-0.01638712,-0.015417701,0.0053384304
86,1437227273638,-0.008445872,-0.014195969,0.0041167
87,1437227273662,-0.00814044,-0.015112268,0.0013678065
88,1437227273684,-0.009973036,-0.01663943,0.0071710264
89,1437227273701,-0.01272193,-0.015112268,0.0050329976
90,1437227273721,-0.01852515,-0.014195969,0.005643863
91,1437227273742,-0.018830582,-0.012363374,0.011447083
92,1437227273762,-0.013638227,-0.0138905365,0.01694487
93,1437227273782,-0.010278469,-0.015112268,0.01694487
94,1437227273802,-0.011500198,-0.01663943,0.014195977
95,1437227273821,-0.009973036,-0.012668807,0.007781891
96,1437227273842,-0.007224142,-0.013279673,0.005643863
97,1437227273863,-0.011805631,-0.016028566,0.001978672
98,1437227273880,-0.010583901,-0.013585106,0.0004515089
99,1437227273901,-0.0111947665,-0.015417701,0.0028949697
100,1437227273922,-0.018830582,-0.012668807,0.016028572
101,1437227273944,-0.017608851,-0.01297424,0.016028572
102,1437227273966,-0.017914284,-0.017555729,0.017861169
103,1437227273982,-0.013638227,-0.02458068,0.022137225
104,1437227274000,-0.013027362,-0.016334,0.024580685
105,1437227274021,-0.00814044,-0.016334,0.03435453
106,1437227274041,-0.015470823,-0.016028566,0.036492556
107,1437227274062,-0.017914284,-0.021831784,0.03282737
108,1437227274083,-0.014249093,-0.0313002,0.025496984
109,1437227274102,-0.0038643833,-0.034659956,0.021220926
110,1437227274120,0.0037714327,-0.03282736,0.013279678
111,1437227274143,0.005604028,-0.03282736,0.005949296
112,1437227274212,0.0022442685,-0.038019713,0.0028949697
113,1437227274213,-0.0011154898,-0.02458068,0.0041167
114,1437227274214,-0.015470823,-0.016944863,0.008087324
115,1437227274222,-0.027077261,-0.015112268,0.0074764583
116,1437227274248,-0.023412071,-0.015417701,0.009309055
117,1437227274262,-0.014554525,-0.016334,0.0050329976
118,1437227274279,-0.0093621705,-0.015417701,-0.00046478957
119,1437227274299,-0.009056738,-0.019082893,0.0028949697
120,1437227274323,0.0022442685,-0.029773034,0.0025895368
121,1437227274342,0.005298595,-0.035881687,0.00014607608
122,1437227274384,0.00926922,-0.03527082,-0.0041299807
123,1437227274385,0.0046877293,-0.036492553,-0.009933201
124,1437227274399,-0.0020317873,-0.032521926,-0.00168652
125,1437227274424,-0.0056969794,-0.021831784,0.0068655936
126,1437227274442,-0.011500198,-0.020915488,0.012057949
127,1437227274462,-0.011500198,-0.021831784,0.01114165
128,1437227274482,-0.013332794,-0.019693758,0.014806842
129,1437227274502,-0.0093621705,-0.022748083,0.008392757
130,1437227274522,0.0059094606,-0.02580241,0.008392757
131,1437227274542,0.011712681,-0.028856736,0.001978672
132,1437227274562,0.0098800855,-0.032216493,0.0041167
133,1437227274584,0.00041167345,-0.026413275,-0.00015935674
134,1437227274601,-0.0053915465,-0.023664381,0.0007569408
135,1437227274622,-0.016692553,-0.018472027,0.0035058344
136,1437227274641,-0.019441448,-0.020915488,0.0047275657
137,1437227274661,-0.015776256,-0.02244265,0.0038112672
138,1437227274681,-0.0035589505,-0.016028566,-0.0050462787
139,1437227274702,-0.0032535177,-0.02122092,-0.008406037
140,1437227274723,-0.004780681,-0.024275247,-0.0102386335
141,1437227274743,-0.0111947665,-0.025191545,-0.0102386335
142,1437227274763,-0.016692553,-0.024886113,-0.013292959
143,1437227274782,-0.017303418,-0.02458068,-0.010849498
144,1437227274802,-0.013332794,-0.024275247,-0.0120712295
145,1437227274820,-0.010583901,-0.02580241,-0.0120712295
146,1437227274842,-0.010583901,-0.029162169,-0.0026028175
147,1437227274860,-0.0038643833,-0.02824587,0.0004515089
148,1437227274944,-0.008751305,-0.033438224,0.0010623736
149,1437227274945,-0.010583901,-0.026718708,-0.00077022193
150,1437227274946,-0.01272193,-0.016944863,0.002284104
151,1437227274947,-0.021579474,-0.008087318,0.004422133
152,1437227274960,-0.025244668,-0.013279673,0.007781891
153,1437227275007,-0.014554525,-0.0303839,0.00869819
154,1437227275008,-0.006613277,-0.029162169,0.008392757
155,1437227275020,0.00041167345,-0.026718708,0.0050329976
156,1437227275054,0.005298595,-0.027329572,0.006560161
157,1437227275071,-0.0005046241,-0.034659956,0.005949296
158,1437227275081,-0.006307844,-0.030994764,0.0016732393
159,1437227275105,-0.012111064,-0.018166594,0.0016732393
160,1437227275120,-0.013332794,-0.010225346,0.009614488
161,1437227275140,-0.011805631,-0.015112268,0.014806842
162,1437227275163,-0.009667603,-0.009614481,0.017861169
163,1437227275183,-0.008445872,-0.009003615,0.017250303
164,1437227275203,-0.0029480858,-0.0025895312,0.0181666
165,1437227275223,-0.011805631,-0.010530779,0.017861169
166,1437227275242,-0.009973036,-0.01663943,0.013890544
167,1437227275263,-0.0056969794,-0.017555729,0.014195977
168,1437227275283,-0.004169816,-0.0138905365,0.01450141
169,1437227275303,-0.004475249,-0.012668807,0.017861169
170,1437227275324,-0.0032535177,-0.013585106,0.019388331
171,1437227275342,-0.010889334,-0.02244265,0.019082898
172,1437227275363,-0.016997986,-0.026107842,0.021526359
173,1437227275383,-0.02432837,-0.015723133,0.014806842
174,1437227275403,-0.03257505,-0.008698182,0.012057949
175,1437227275423,-0.048457548,0.0077951774,0.00869819
176,1437227275444,-0.08205514,0.026426569,-0.017263584
177,1437227275463,-0.10312998,0.044752527,-0.04108733
178,1437227275483,-0.14100364,0.06613281,-0.046279684
179,1437227275503,-0.16360565,0.071936026,-0.012987526
180,1437227275523,-0.1519992,0.071936026,0.012363382
181,1437227275546,-0.1089332,0.061245885,0.019693764
182,1437227275564,-0.060674854,0.027953733,0.03588169
183,1437227275583,-0.06464548,0.029480893,0.0181666
184,1437227275602,-0.14375253,0.07101974,0.012363382
185,1437227275661,-0.20697708,0.1305791,0.051458754
186,1437227275662,-0.27020162,0.19960687,0.097273655
187,1437227275664,-0.27875376,0.20754811,0.14003421
188,1437227275680,-0.24912678,0.19288735,0.1913469
189,1437227275702,-0.18223703,0.1482942,0.24388131
190,1437227275724,-0.10618431,0.09148373,0.2597638
191,1437227275741,-0.057315093,0.0398656,0.21883583
192,1437227275767,-0.026466398,-0.021526352,0.21455978
193,1437227275783,-0.002642653,-0.04809899,0.2185304
194,1437227275802,0.004993162,-0.05390221,0.2026479
195,1437227275822,-0.017608851,-0.019693758,0.18462737
196,1437227275846,-0.014859958,0.0019919574,0.13392556
197,1437227275861,0.0043822983,-0.005032992,0.10399317
198,1437227275880,0.035536423,-0.009003615,0.09849538
199,1437227275921,0.052946083,0.016652726,0.08352918
200,1437227275922,0.05202979,0.07987727,0.041074045
201,1437227275993,0.034620125,0.11103141,0.061232604
202,1437227275994,0.032176666,0.08506963,0.09238673
203,1437227275995,0.034314692,0.0557481,0.120486535
204,1437227276029,0.019043062,0.027342867,0.07680967
205,1437227276030,-0.004475249,0.0032136887,-0.031008052
206,1437227276041,-0.008751305,-0.02702414,-0.12080524
207,1437227276064,-0.0060024117,-0.0752825,-0.15073764
208,1437227276082,-0.006613277,-0.10307686,-0.19197105
209,1437227276103,0.003160567,-0.13178752,-0.23900767
210,1437227276122,0.014156141,-0.16141449,-0.20052317
211,1437227276143,0.03400926,-0.19226319,-0.09240001
212,1437227276161,0.029122338,-0.16171992,-0.01787445
213,1437227276185,0.026373446,-0.118348494,-0.011765797
214,1437227276204,0.01293441,-0.09208129,-0.09148371
215,1437227276224,-0.027688127,-0.094830185,-0.24358916
216,1437227276244,-0.07105956,-0.13575815,-0.4024141
217,1437227276262,-0.08846922,-0.18981972,-0.47571796
218,1437227276283,-0.0976322,-0.19379035,-0.5044286
219,1437227276303,-0.10771148,-0.18096218,-0.5856737
220,1437227276324,-0.10618431,-0.18523824,-0.7026544
221,1437227276344,-0.1089332,-0.20784025,-0.8254383
222,1437227276422,-0.1125984,-0.2307477,-0.9072943
223,1437227276423,-0.10740604,-0.2673996,-1.0383248
224,1437227276424,-0.11504186,-0.34070343,-1.0691736
225,1437227276425,-0.1425308,-0.36025113,-1.1348416
226,1437227276447,-0.16116218,-0.30313522,-1.0868887
227,1437227276469,-0.17521209,-0.15102978,-0.92898
228,1437227276482,-0.15596983,0.022761378,-0.84651315
229,1437227276512,-0.13917103,0.13393885,-0.6586721
230,1437227276535,-0.18590222,0.11988896,-0.37859038
231,1437227276543,-0.22957909,0.18128091,-0.3749252
232,1437227276562,-0.27172878,0.2524467,-0.40546846
233,1437227276583,-0.31693283,0.28024107,-0.436928
234,1437227276605,-0.35816622,0.28054652,-0.34560364
235,1437227276625,-0.41650385,0.32666683,-0.15195937
236,1437227276645,-0.43299723,0.42471072,-0.07040886
237,1437227276664,-0.44979602,0.46014088,-0.029480888
238,1437227276684,-0.43727326,0.42593244,-0.045668818
239,1437227276704,-0.42933202,0.40638477,0.02396982
240,1437227276724,-0.4412439,0.4134097,0.13026036
241,1437227276744,-0.44551995,0.4292922,0.16355252
242,1437227276765,-0.4357461,0.42348897,0.17088291
243,1437227276785,-0.40428656,0.39325115,0.1632471
244,1437227276802,-0.3633586,0.3431602,0.12506801
245,1437227276825,-0.3215143,0.2991779,0.08200202
246,1437227276844,-0.27967003,0.26008254,0.027024148
247,1437227276864,-0.25554085,0.21915457,0.010530785
248,1437227276883,-0.20178473,0.18158634,-0.0026028175
249,1437227276903,-0.14375253,0.12813564,-0.025510265
250,1437227276928,-0.075335614,0.058496993,-0.09973039
251,1437227276952,-0.043876056,0.021234214,-0.14798875
252,1437227277023,-0.028604425,0.028564598,-0.08476419
253,1437227277024,-0.0038643833,0.03864387,-0.06155131
254,1437227277025,0.024846282,0.039254736,-0.112863995
255,1437227277026,0.07799156,0.03864387,-0.16570385
256,1437227277044,0.11097828,0.03436782,-0.11194769
257,1437227277062,0.12227929,-0.032216493,-0.15990062
258,1437227277131,0.107923955,-0.18523824,-0.28543344
259,1437227277132,0.08990343,-0.33184588,-0.28848776
260,1437227277133,0.12563905,-0.40484428,-0.11042053
261,1437227277154,0.15251713,-0.38376945,0.1418668
262,1437227277162,0.16931592,-0.36971954,0.23899437
263,1437227277182,0.1598475,-0.43538755,0.24357587
264,1437227277203,0.18092236,-0.4891437,0.09818995
265,1437227277222,0.26247287,-0.5236576,0.060316302
266,1437227277245,0.30676058,-0.4424125,0.35841852
267,1437227277262,0.36357105,-0.33581653,0.58993644
268,1437227277283,0.39503062,-0.28083864,0.7286029
269,1437227277306,0.4051099,-0.31199276,0.82695216
270,1437227277323,0.41488373,-0.4085095,0.7542592
271,1437227277346,0.39167085,-0.415229,0.66843265
272,1437227277365,0.3620439,-0.30618957,0.5520628
273,1437227277385,0.3217268,-0.16416338,0.4967795
274,1437227277406,0.23620565,-0.10368773,0.41950506
275,1437227277425,0.17450827,-0.13850705,0.34009257
276,1437227277446,0.15557145,-0.22311188,0.29947004
277,1437227277465,0.15679318,-0.2664833,0.23196943
278,1437227277485,0.14732477,-0.25823665,0.20509136
279,1437227277505,0.119224966,-0.24998996,0.15469497
280,1437227277525,0.0914306,-0.24540846,0.06917385
281,1437227277543,0.06210906,-0.2148652,0.08841611
282,1437227277565,0.041645076,-0.20478593,0.08475091
283,1437227277585,0.012323546,-0.1858491,0.04137948
284,1437227277605,-0.018830582,-0.14736459,0.047793567
285,1437227277624,-0.04540322,-0.071617305,0.10552033
286,1437227277645,-0.09610504,0.013598397,0.033743665
287,1437227277665,-0.1416145,0.05025031,-0.10309015
288,1437227277685,-0.19231631,0.0557481,-0.07468492
289,1437227277705,-0.20361732,0.10583906,-0.016958151
290,1437227277733,-0.23232798,0.19502538,0.21028371
291,1437227277742,-0.24851592,0.26527488,0.48670024
292,1437227277762,-0.24271269,0.28115737,0.59726685
293,1437227277783,-0.17979358,0.25305757,0.5178544
294,1437227277802,-0.10740604,0.20235576,0.6064298
295,1437227277822,-0.029215291,0.22373605,0.7896894
296,1437227277857,-0.0032535177,0.31903103,0.9030049
297,1437227277867,-0.036240242,0.44242582,0.92072
298,1437227277882,-0.052733604,0.48701897,0.9100298
299,1437227277903,-0.049068414,0.46624956,0.8718508
300,1437227277926,-0.01516539,0.4170749,0.8486379
301,1437227277943,0.012628979,0.36148617,0.85871714
302,1437227277964,0.046226565,0.2945964,0.838864
303,1437227277983,0.0746318,0.24481091,0.7658657
304,1437227278004,0.11036742,0.2167111,0.66843265
305,1437227278025,0.1299151,0.18983303,0.5884093
306,1437227278043,0.13938351,0.14890505,0.54289985
307,1437227278063,0.09876098,0.13760404,0.49158716
308,1437227278085,0.055389546,0.1754777,0.35047728
309,1437227278104,0.030954935,0.17242336,0.24601933
310,1437227278127,0.005298595,0.15195937,0.27961692
311,1437227278146,0.064247094,0.16478755,0.2402161
312,1437227278166,0.12502818,0.105228186,0.36147287
313,1437227278186,0.21268734,-0.019388326,0.4451614
314,1437227278206,0.29607046,-0.14125594,0.45035374
315,1437227278227,0.36631995,-0.3562805,0.3122982
316,1437227278246,0.43198797,-0.63452965,0.3486447
317,1437227278266,0.5162874,-0.8800975,0.4369147
318,1437227278286,0.5575208,-0.9787522,0.5380129
319,1437227278306,0.552023,-0.9610371,0.52884996
320,1437227278323,0.5153711,-0.9253015,0.3196286
321,1437227278346,0.46100408,-0.8956745,0.1333147
322,1437227278366,0.3806753,-0.8455836,0.1895143
323,1437227278384,0.31470186,-0.7524266,0.22219558
324,1437227278404,0.2038298,-0.6892021,0.21089458
325,1437227278424,0.09570665,-0.6152874,0.034049094
326,1437227278447,0.009574653,-0.56214213,-0.17211793
327,1437227278468,-0.0405163,-0.52579564,-0.30528656
328,1437227278488,-0.073808454,-0.47570467,-0.39538917
329,1437227278506,-0.17124146,-0.42347568,-0.50595576
330,1437227278523,-0.28913847,-0.34559035,-0.5856737
331,1437227278543,-0.39298555,-0.27686802,-0.61438435
332,1437227278564,-0.44826886,-0.22799881,-0.57681614
333,1437227278584,-0.4635405,-0.21517064,-0.5536033
334,1437227278608,-0.4357461,-0.2157815,-0.54199684
335,1437227278674,-0.39634532,-0.21608692,-0.56215537
336,1437227278675,-0.41406038,-0.17699155,-0.63942987
337,1437227278676,-0.41650385,-0.16202536,-0.7286162
338,1437227278683,-0.41375497,-0.21181087,-0.76038116
339,1437227278703,-0.28058633,-0.2661779,-0.8003928
340,1437227278723,-0.11840162,-0.17668612,-0.91951156
341,1437227278745,-0.075335614,-0.113767,-0.8300198
342,1437227278767,-0.12725917,-0.012363374,-0.8318524
343,1437227278783,-0.2540137,0.07743381,-0.96624273
344,1437227278804,-0.38932034,0.06827083,-1.0245804
345,1437227278824,-0.44643626,0.045363393,-1.0768094
346,1437227278846,-0.4198636,0.07315776,-1.1058254
347,1437227278866,-0.39848334,0.1718125,-1.0682572
348,1437227278887,-0.4901131,0.2887932,-1.1281221
349,1437227278907,-0.57380164,0.34163305,-1.1687446
350,1437227278930,-0.6055666,0.3150604,-0.98884475
351,1437227278944,-0.5511996,0.28237912,-0.63026685
352,1437227278966,-0.42505598,0.296429,-0.42226726
353,1437227278991,-0.3486978,0.37370345,-0.4714419
354,1437227279008,-0.3438109,0.45769742,-0.54566205
355,1437227279024,-0.35266843,0.4738854,-0.5771216
356,1437227279045,-0.33800766,0.44761816,-0.5649043
357,1437227279070,-0.28730586,0.38561535,-0.52886325
358,1437227279087,-0.23690948,0.33582982,-0.4986254
359,1437227279110,-0.20361732,0.30956262,-0.50687206
360,1437227279126,-0.19414891,0.3236125,-0.5276415
361,1437227279150,-0.1996467,0.3226962,-0.4873244
362,1437227279165,-0.19109458,0.28970948,-0.4094391
363,1437227279185,-0.15994045,0.28085196,-0.41738033
364,1437227279205,-0.12909175,0.27627045,-0.42684874
365,1437227279225,-0.07472475,0.22953928,-0.4714419
366,1437227279251,-0.033185914,0.14096381,-0.50778836
367,1437227279265,0.020264793,0.10492276,-0.41951835
368,1437227279286,0.038896184,0.14921048,-0.31750387
369,1437227279305,0.023013685,0.18067005,-0.3685111
