id,attr_time,attr_x,attr_y,attr_z
1,1437227272052,-0.015577064,0.02321288,0.00580322
2,1437227272071,-0.020463986,0.034513887,0.009468411
3,1437227272092,-0.026572637,0.04062254,0.009468411
4,1437227272114,-0.028405234,0.043066,0.0106901415
5,1437227272134,-0.0290161,0.040927973,0.011301007
6,1437227272153,-0.027183503,0.026572637,0.015577064
7,1437227272174,-0.023518313,0.014049901,0.01985312
8,1437227272194,-0.025350908,0.010079277,0.024740042
9,1437227272212,-0.028710667,-0.005192355,0.020463986
10,1437227272234,-0.023823744,-0.02443461,0.014660766
11,1437227272254,-0.025961773,-0.034208454,0.015271631
12,1437227272273,-0.024740042,-0.03176499,0.003970624
13,1437227272292,-0.025961773,-0.027488936,0.0033597588
14,1437227272312,-0.022602014,-0.018325957,-0.0018325958
15,1437227272331,-0.02565634,-0.014660766,0.007941248
16,1437227272352,-0.025350908,0.0009162979,0.008552114
17,1437227272371,-0.024129177,0.018936822,0.0009162979
18,1437227272391,-0.0290161,0.035124753,-0.00030543262
19,1437227272411,-0.034208454,0.04153884,0.002443461
20,1437227272520,-0.03848451,0.032986723,0.0030543262
21,1437227272521,-0.03573562,0.02321288,0.01160644
22,1437227272522,-0.038179077,0.011301007,0.0027488936
23,1437227272523,-0.04337143,-0.008857546,0.004581489
24,1437227272524,-0.03756821,-0.019547688,0.00580322
25,1437227272537,-0.035430185,-0.028710667,0.0061086523
26,1437227272557,-0.03023783,-0.038789943,0.004886922
27,1437227272571,-0.030543262,-0.03604105,0.0018325958
28,1437227272592,-0.040927973,-0.019242255,0.00580322
29,1437227272612,-0.04153884,0.0018325958,0.004886922
30,1437227272632,-0.041233405,0.01863139,0.0070249503
31,1437227272654,-0.036651913,0.03390302,0.0030543262
32,1437227272672,-0.041233405,0.051618114,0.0030543262
33,1437227272694,-0.0421497,0.062002823,0.0076358155
34,1437227272715,-0.032070424,0.0571159,0.013133603
35,1437227272732,-0.029626964,0.042455133,0.01038471
36,1437227272752,-0.028405234,0.023823744,0.0061086523
37,1437227272772,-0.03145956,0.021991149,-0.0030543262
38,1437227272793,-0.04337143,0.029626964,-0.004886922
39,1437227272815,-0.042455133,0.025350908,-0.0009162979
40,1437227272835,-0.03145956,0.015882496,0.0027488936
41,1437227272855,-0.028710667,0.0061086523,-0.0009162979
42,1437227272872,-0.03176499,0.0030543262,0.0033597588
43,1437227272893,-0.03359759,-0.0021380284,0.0070249503
44,1437227272915,-0.033292156,-0.007941248,0.0030543262
45,1437227272935,-0.028099801,-0.014660766,0.005497787
46,1437227272958,-0.026267206,-0.027488936,0.0076358155
47,1437227272973,-0.027794369,-0.021991149,0.011911872
48,1437227272995,-0.028710667,-0.024740042,0.009162978
49,1437227273013,-0.02321288,-0.025350908,-0.0018325958
50,1437227273034,-0.0290161,-0.02321288,0.0
51,1437227273053,-0.03145956,-0.023518313,0.0018325958
52,1437227273072,-0.03176499,-0.006414085,0.008552114
53,1437227273092,-0.025045475,0.0,0.005497787
54,1437227273112,-0.025350908,-0.0021380284,0.009773844
55,1437227273135,-0.02687807,-0.01160644,0.0106901415
56,1437227273153,-0.036957346,-0.01985312,0.0106901415
57,1437227273173,-0.03481932,-0.024129177,-0.0009162979
58,1437227273193,-0.03145956,-0.030543262,-0.007330383
59,1437227273216,-0.028710667,-0.033292156,-0.004886922
60,1437227273265,-0.029932396,-0.028710667,0.004276057
61,1437227273268,-0.03145956,-0.01740966,0.009162978
62,1437227273273,-0.03023783,-0.004581489,0.003970624
63,1437227273292,-0.029626964,0.004886922,-0.0027488936
64,1437227273312,-0.035124753,0.0061086523,0.0027488936
65,1437227273333,-0.026572637,0.007330383,0.004276057
66,1437227273354,-0.02565634,0.0125227375,0.008857546
67,1437227273374,-0.028099801,0.020463986,0.0018325958
68,1437227273392,-0.03390302,0.02321288,-0.0009162979
69,1437227273414,-0.041233405,0.01985312,0.006414085
70,1437227273439,-0.023518313,0.011911872,0.01160644
71,1437227273453,-0.0125227375,0.0015271631,0.01282817
72,1437227273473,-0.021991149,-0.008552114,-0.0030543262
73,1437227273496,-0.03145956,-0.01160644,-0.005497787
74,1437227273513,-0.03390302,-0.006414085,0.00030543262
75,1437227273534,-0.029932396,-0.0070249503,-0.0009162979
76,1437227273556,-0.021991149,-0.011911872,0.004276057
77,1437227273573,-0.020463986,-0.015271631,0.0
78,1437227273596,-0.02107485,-0.013133603,0.00030543262
79,1437227273616,-0.025045475,-0.01985312,0.0030543262
80,1437227273634,-0.02443461,-0.024129177,0.00061086525
81,1437227273656,-0.020158553,-0.022296581,0.0030543262
82,1437227273677,-0.02107485,-0.021380283,0.0021380284
83,1437227273695,-0.021685716,-0.020463986,0.0033597588
84,1437227273719,-0.026572637,-0.029626964,0.006414085
85,1437227273735,-0.0290161,-0.034208454,0.008246681
86,1437227273758,-0.03145956,-0.039095376,0.0067195175
87,1437227273773,-0.031154128,-0.038789943,0.0021380284
88,1437227273792,-0.03023783,-0.032070424,0.007330383
89,1437227273813,-0.034513887,-0.030848695,0.0076358155
90,1437227273832,-0.0290161,-0.026572637,0.0076358155
91,1437227273859,-0.028099801,-0.020158553,0.008246681
92,1437227273873,-0.027183503,-0.0143553335,0.003970624
93,1437227273893,-0.029626964,0.0021380284,0.003970624
94,1437227273913,-0.038179077,0.0030543262,0.0018325958
95,1437227273934,-0.03604105,0.0033597588,0.007330383
96,1437227273959,-0.028405234,0.0033597588,0.0076358155
97,1437227273984,-0.031154128,0.005192355,0.003970624
98,1437227273993,-0.032375857,-0.007330383,0.00061086525
99,1437227274013,-0.036957346,-0.02565634,-0.0033597588
100,1437227274034,-0.04153884,-0.024740042,-0.004276057
101,1437227274058,-0.032986723,-0.017715093,-0.008857546
102,1437227274073,-0.031154128,-0.01282817,-0.014049901
103,1437227274093,-0.027794369,-0.003970624,-0.010995574
104,1437227274125,-0.026267206,0.011301007,-0.004886922
105,1437227274143,-0.028405234,0.026267206,-0.0067195175
106,1437227274153,-0.03481932,0.035124753,-0.013439035
107,1437227274173,-0.03848451,0.032375857,-0.017715093
108,1437227274193,-0.031154128,0.03176499,-0.013133603
109,1437227274213,-0.036957346,0.03145956,-0.004886922
110,1437227274233,-0.03726278,0.03634648,0.00061086525
111,1437227274253,-0.036957346,0.035430185,-0.004276057
112,1437227274273,-0.03176499,0.03604105,-0.010079277
113,1437227274293,-0.03268129,0.027488936,-0.006414085
114,1437227274313,-0.033292156,0.02443461,-0.004886922
115,1437227274333,-0.027183503,0.02107485,-0.0070249503
116,1437227274355,-0.028710667,0.015577064,-0.0021380284
117,1437227274373,-0.032986723,0.007330383,-0.00061086525
118,1437227274397,-0.038179077,0.007330383,0.005192355
119,1437227274413,-0.038789943,0.0106901415,0.0021380284
120,1437227274433,-0.034208454,0.0106901415,0.00580322
121,1437227274453,-0.03268129,0.0143553335,0.011911872
122,1437227274473,-0.023518313,0.014049901,0.01282817
123,1437227274493,-0.02443461,0.01038471,0.011301007
124,1437227274513,-0.029321533,0.0076358155,0.004886922
125,1437227274533,-0.027488936,0.009162978,0.0033597588
126,1437227274555,-0.029321533,0.007330383,-0.0009162979
127,1437227274572,-0.03268129,-0.00030543262,0.0036651916
128,1437227274597,-0.03268129,-0.0106901415,0.003970624
129,1437227274617,-0.03634648,-0.013439035,0.006414085
130,1437227274633,-0.034208454,-0.013439035,0.008552114
131,1437227274654,-0.030543262,-0.014966198,0.0125227375
132,1437227274675,-0.022296581,-0.014660766,0.01160644
133,1437227274693,-0.025961773,-0.009468411,0.019547688
134,1437227274714,-0.03176499,-0.00030543262,0.01863139
135,1437227274734,-0.03359759,0.0070249503,0.013133603
136,1437227274757,-0.028710667,0.009162978,0.01740966
137,1437227274775,-0.025350908,-0.0021380284,0.016187929
138,1437227274794,-0.03481932,-0.01160644,0.01863139
139,1437227274818,-0.036957346,-0.016187929,0.014049901
140,1437227274838,-0.03726278,-0.017715093,0.009468411
141,1437227274858,-0.037873644,-0.003970624,0.0009162979
142,1437227274879,-0.03176499,0.007941248,0.005497787
143,1437227274898,-0.027183503,0.004276057,0.010995574
144,1437227274918,-0.031154128,-0.0021380284,0.007330383
145,1437227274938,-0.034513887,0.00580322,0.005192355
146,1437227274958,-0.033292156,0.013439035,0.0009162979
147,1437227274976,-0.025961773,0.011301007,0.0030543262
148,1437227274998,-0.026267206,0.0030543262,0.008552114
149,1437227275014,-0.03390302,-0.0033597588,0.011911872
150,1437227275035,-0.03176499,0.0021380284,-0.00061086525
151,1437227275058,-0.029626964,-0.0070249503,-0.0033597588
152,1437227275075,-0.027794369,-0.010995574,-0.004276057
153,1437227275096,-0.03359759,-0.004886922,-0.0015271631
154,1437227275115,-0.03634648,0.0076358155,0.004581489
155,1437227275140,-0.035124753,0.011911872,0.0018325958
156,1437227275159,-0.025045475,0.0143553335,0.0030543262
157,1437227275180,-0.02321288,0.014966198,0.009468411
158,1437227275196,-0.023823744,0.017104227,0.0033597588
159,1437227275214,-0.02565634,0.016493361,-0.0009162979
160,1437227275234,-0.025350908,0.009773844,-0.00030543262
161,1437227275254,-0.028710667,0.006414085,0.0018325958
162,1437227275277,-0.032986723,0.0036651916,-0.0021380284
163,1437227275296,-0.030543262,-0.0027488936,0.0018325958
164,1437227275367,-0.03145956,0.00030543262,-0.005497787
165,1437227275368,-0.034208454,-0.002443461,-0.0018325958
166,1437227275369,-0.03145956,-0.009162978,0.003970624
167,1437227275378,-0.027794369,-0.010079277,0.004581489
168,1437227275396,-0.022296581,-0.018325957,0.004886922
169,1437227275415,-0.024740042,-0.018325957,0.004886922
170,1437227275434,-0.024740042,-0.020463986,0.0018325958
171,1437227275458,-0.021991149,-0.0067195175,-0.0033597588
172,1437227275474,-0.032986723,0.009773844,-0.004276057
173,1437227275495,-0.032070424,0.016493361,-0.004276057
174,1437227275520,-0.03573562,0.024740042,-0.0018325958
175,1437227275535,-0.031154128,0.025961773,0.003970624
176,1437227275560,-0.028099801,0.02687807,0.0033597588
177,1437227275577,-0.029626964,0.030848695,0.0015271631
178,1437227275598,-0.03359759,0.035124753,0.0012217305
179,1437227275618,-0.03726278,0.03145956,0.00580322
180,1437227275638,-0.030543262,0.01985312,0.008552114
181,1437227275658,-0.030848695,0.008857546,0.011301007
182,1437227275677,-0.029321533,0.0018325958,0.0125227375
183,1437227275698,-0.03359759,-0.0012217305,0.004886922
184,1437227275718,-0.04337143,-0.0027488936,0.0061086523
185,1437227275738,-0.04062254,-0.00030543262,0.009162978
186,1437227275754,-0.039095376,0.00061086525,0.0067195175
187,1437227275778,-0.03634648,0.0009162979,0.008552114
188,1437227275798,-0.035430185,0.0015271631,0.0076358155
189,1437227275818,-0.03481932,-0.01740966,0.014660766
190,1437227275838,-0.033292156,-0.016798794,0.01160644
191,1437227275858,-0.035124753,0.0015271631,0.005192355
192,1437227275877,-0.032986723,0.011911872,0.009773844
193,1437227275898,-0.028099801,0.009162978,0.014966198
194,1437227275918,-0.023823744,-0.007330383,0.023518313
195,1437227275939,-0.03390302,-0.013133603,0.016798794
196,1437227275958,-0.036651913,-0.018020526,0.011911872
197,1437227275979,-0.036651913,-0.025961773,0.010995574
198,1437227275998,-0.025045475,-0.03573562,0.01282817
199,1437227276017,-0.030848695,-0.040927973,0.014966198
200,1437227276090,-0.027488936,-0.024129177,0.009468411
201,1437227276102,-0.028099801,-0.013133603,0.012217305
202,1437227276103,-0.029626964,-0.01038471,0.01038471
203,1437227276104,-0.027794369,0.004886922,0.019242255
204,1437227276118,-0.02107485,0.0076358155,0.017715093
205,1437227276144,-0.017104227,0.0015271631,0.014049901
206,1437227276157,-0.023823744,-0.007330383,0.0106901415
207,1437227276177,-0.0290161,-0.007330383,0.003970624
208,1437227276198,-0.033292156,-0.004581489,0.0015271631
209,1437227276215,-0.030543262,0.0033597588,-0.0012217305
210,1437227276237,-0.0290161,0.020158553,0.00061086525
211,1437227276255,-0.027183503,0.026572637,0.005192355
212,1437227276277,-0.032986723,0.026267206,0.015882496
213,1437227276295,-0.12675454,-0.00580322,0.024129177
214,1437227276318,-0.29932398,-0.049785517,0.07574729
215,1437227276338,-0.41386122,-0.0015271631,0.084910266
216,1437227276358,-0.6169739,0.07666359,0.11759156
217,1437227276378,-0.7483099,0.17165314,0.1731803
218,1437227276398,-0.74464476,0.2687807,0.064446285
219,1437227276418,-0.6927212,0.5555819,-0.034208454
220,1437227276438,-0.6453791,0.7654142,-0.05131268
221,1437227276458,-0.786489,0.904386,0.08827003
222,1437227276479,-1.0390818,1.0375546,0.2764165
223,1437227276497,-1.1203269,1.2928963,0.31948254
224,1437227276518,-1.0793989,1.4721853,0.26175576
225,1437227276535,-0.990518,1.5824465,0.18387043
226,1437227276555,-0.9117164,1.6300939,0.17470746
227,1437227276575,-0.8151997,1.5131133,0.1740966
228,1437227276595,-0.7021896,1.2846496,0.1255328
229,1437227276618,-0.6417139,0.9981538,0.089186326
230,1437227276638,-0.54183745,0.76144356,0.089491755
231,1437227276658,-0.36713,0.42271876,0.16249016
232,1437227276676,-0.12980886,0.12950343,0.25778514
233,1437227276698,0.0571159,-0.067500606,0.29138273
234,1437227276718,0.21655174,-0.19242255,0.27580565
235,1437227276738,0.20861048,-0.32711834,0.26297748
236,1437227276758,0.113926366,-0.34025195,0.36957347
237,1437227276827,0.07513642,-0.19425514,0.4813618
238,1437227276828,0.08857546,-0.014049901,0.4746423
239,1437227276829,0.070249505,0.17867808,0.4251622
240,1437227276838,0.022602014,0.48258355,0.41508293
241,1437227276864,-0.05100725,0.75777835,0.4804455
242,1437227276879,-0.14110987,0.9117164,0.5540548
243,1437227276896,-0.26358834,0.87598073,0.6010914
244,1437227276918,-0.34330627,0.63499445,0.5751296
245,1437227276936,-0.35613444,0.30757064,0.49938235
246,1437227276957,-0.2855795,-0.05222898,0.3717115
247,1437227276976,-0.19914207,-0.4392121,0.2519819
248,1437227276999,-0.0693332,-0.7293731,0.13591751
249,1437227277019,0.058337633,-1.0436633,0.13316862
250,1437227277039,0.17256944,-1.1603385,0.18936823
251,1437227277059,0.23273966,-1.0952814,0.19700404
252,1437227277079,0.28588495,-0.97585726,0.0421497
253,1437227277099,0.30085114,-0.7626653,-0.28680122
254,1437227277119,0.24953845,-0.50976706,-0.53969944
255,1437227277139,0.23090707,-0.1469131,-0.5925393
256,1437227277159,0.24923302,0.28710666,-0.52931476
257,1437227277179,0.23090707,0.61178154,-0.30879238
258,1437227277199,0.13041973,0.9950995,-0.03481932
259,1437227277216,-0.028405234,1.2605205,0.10293079
260,1437227277239,-0.25870144,1.146594,0.13225232
261,1437227277260,-0.4147775,0.62980205,0.2144137
262,1437227277280,-0.5122105,0.20341812,0.4343252
263,1437227277299,-0.41874814,-0.20280726,0.50915617
264,1437227277319,-0.3313944,-0.691194,0.32620203
265,1437227277339,-0.3827071,-1.0509937,0.19730948
266,1437227277359,-0.44929138,-1.07665,0.2855795
267,1437227277379,-0.39278635,-0.77518797,0.56779927
268,1437227277399,-0.28038713,-0.27947086,0.732122
269,1437227277420,-0.19120082,0.36132678,0.6575964
270,1437227277441,-0.13164146,1.0118983,0.4538729
271,1437227277458,-0.08827003,1.4880677,0.09468412
272,1437227277547,-0.1386664,2.1410828,-0.09590584
273,1437227277548,-0.21319197,2.6844473,0.029932396
274,1437227277549,-0.19700404,2.891225,0.24495697
275,1437227277550,-0.109650314,2.777299,0.49388456
276,1437227277561,-0.046120327,2.3432791,0.56077427
277,1437227277578,-0.07849618,1.7088956,0.4633413
278,1437227277597,-0.12736541,0.9984592,0.41386122
279,1437227277616,-0.16187929,0.39278635,0.45173484
280,1437227277650,-0.18173242,0.096516706,0.5039638
281,1437227277656,-0.19730948,-0.12186762,0.4746423
282,1437227277677,-0.25167647,-0.21594086,0.39278635
283,1437227277697,-0.29840767,-0.24220806,0.30665436
284,1437227277717,-0.34300083,-0.20005837,0.19822577
285,1437227277737,-0.32345316,-0.16249016,-0.06627888
286,1437227277757,-0.25809056,-0.122783914,-0.32620203
287,1437227277780,-0.20463985,-0.02321288,-0.3381139
288,1437227277800,-0.16798794,0.23182335,-0.21197024
289,1437227277820,-0.13103059,0.4447099,-0.11453723
290,1437227277840,-0.17928895,0.6994407,-0.22021692
291,1437227277860,-0.23457226,0.9990701,-0.32162055
292,1437227277880,-0.18112154,1.2932017,-0.31123585
293,1437227277900,-0.08674286,1.3695599,-0.29718593
294,1437227277920,0.014966198,1.1542299,-0.27305678
295,1437227277937,0.26236662,0.5873469,-0.20097467
296,1437227277960,0.64599,-0.03023783,-0.24190263
297,1437227277978,0.8258898,-0.7703011,-0.258396
298,1437227277998,0.80909103,-1.3616186,-0.10323623
299,1437227278018,0.57757306,-1.9498819,0.15057829
300,1437227278039,0.3707952,-2.3530529,0.17531833
301,1437227278059,0.17348573,-2.5573874,-0.13347405
302,1437227278080,0.042455133,-2.6572638,-0.44318274
303,1437227278100,-0.04428773,-2.6942213,-0.79045963
304,1437227278119,0.034208454,-2.7049112,-0.90285885
305,1437227278138,0.27030787,-2.4327707,-0.6230826
306,1437227278158,0.48747048,-1.7324139,-0.27366763
307,1437227278179,0.659429,-0.99204516,0.15302174
308,1437227278198,0.68844515,0.0061086523,0.38789943
309,1437227278248,0.6731735,0.7287622,0.37415496
310,1437227278251,0.59803706,1.044885,0.20372356
311,1437227278267,0.5009095,1.0091494,0.044898596
312,1437227278278,0.32742378,0.852157,-0.13836098
313,1437227278300,0.1151481,0.5522222,-0.25320363
314,1437227278318,-0.08155051,0.17959438,-0.33169982
315,1437227278338,-0.20891592,-0.26145032,-0.46670106
316,1437227278357,-0.3277292,-0.7641924,-0.58276546
317,1437227278378,-0.3381139,-1.1557571,-0.5503896
318,1437227278398,-0.16554448,-1.5815301,-0.25473082
319,1437227278418,0.08093964,-1.777007,0.08674286
320,1437227278440,0.16187929,-1.6859881,0.24190263
321,1437227278459,0.03634648,-1.3833044,0.31581733
322,1437227278482,-0.24862215,-0.7425067,0.41080686
323,1437227278499,-0.41233405,0.18753563,0.56016344
324,1437227278520,-0.22876903,1.2977833,0.5742133
325,1437227278539,0.025045475,2.180789,0.5021312
326,1437227278559,0.3399465,2.3423629,0.5549711
327,1437227278580,0.34972036,1.892155,0.7510588
328,1437227278600,-0.019242255,1.2788464,0.68203104
329,1437227278620,-0.3203988,0.86529064,0.40744713
330,1437227278640,-0.4392121,0.6291912,0.007330383
331,1437227278659,-0.30390546,0.50671273,-0.1459968
332,1437227278680,-0.19730948,0.6377433,0.02107485
333,1437227278700,-0.06078109,1.0650436,0.27091873
334,1437227278720,0.112399206,1.4077389,0.37873647
335,1437227278739,0.267559,1.4908166,0.4266894
336,1437227278761,0.23854288,1.396438,0.42394048
337,1437227278781,0.1151481,1.1911873,0.4166101
338,1437227278801,0.02443461,0.92087936,0.4382958
339,1437227278818,-0.06078109,0.6826419,0.47311515
340,1437227278841,-0.124005646,0.37904188,0.4810564
341,1437227278858,-0.18753563,0.12370021,0.40775254
342,1437227278880,-0.27397305,-0.06627888,0.17348573
343,1437227278898,-0.36682457,-0.30879238,-0.12095132
344,1437227278918,-0.514654,-0.51923543,-0.57696223
345,1437227278969,-0.5510005,-0.68569624,-0.93187493
346,1437227278970,-0.37751472,-0.4813618,-0.91874135
347,1437227278989,-0.0012217305,0.07238753,-0.54825157
348,1437227278998,0.25137106,0.5421429,-0.29993483
349,1437227279028,0.4352415,0.68630713,-0.28588495
350,1437227279038,0.3924809,0.6637051,-0.44593164
351,1437227279076,0.24862215,0.5002986,-0.5183192
352,1437227279079,0.29443705,0.23518312,-0.49418998
353,1437227279100,0.6273586,-0.118202426,-0.3979787
354,1437227279121,0.84940815,-0.77671516,-0.18936823
355,1437227279138,0.754724,-1.4950926,0.027794369
356,1437227279160,0.38087448,-2.0497584,0.052534413
357,1437227279181,0.032375857,-2.4309382,-0.11453723
358,1437227279200,-0.32589662,-2.6050348,-0.49632803
359,1437227279220,-0.40744713,-2.5506678,-0.8240572
360,1437227279240,-0.1966986,-2.094046,-0.820392
361,1437227279260,0.048563786,-1.4046847,-0.6206391
362,1437227279282,0.30207285,-0.8567385,-0.3100141
363,1437227279301,0.33567044,-0.22052236,-0.11056661
364,1437227279321,0.17745635,0.26908615,-0.022907447
365,1437227279341,-0.03023783,0.56779927,-0.033292156
366,1437227279358,-0.14905111,0.65576386,-0.09437868
367,1437227279380,-0.23518312,0.5821546,-0.19394971
368,1437227279401,-0.2452624,0.33322698,-0.26542094
369,1437227279420,-0.19181168,-0.0070249503,-0.2932153
370,1437227279439,-0.14630222,-0.34116822,-0.30543262
371,1437227279459,-0.115453534,-0.5726862,-0.3213151
372,1437227279482,-0.12583824,-0.79076505,-0.3359759
