id,attr_time,attr_x,attr_y,attr_z
1,1437139316407,0.0194397,0.00270081,-0.0246582
2,1437139316428,0.0119629,0.00804138,-0.0246582
3,1437139316449,0.00982666,0.00483704,-0.0171814
4,1437139316468,0.00982666,0.00270081,-0.00543213
5,1437139316488,0.00448608,-0.00263977,-0.00650024
6,1437139316507,0.0119629,0.000564575,-0.00863647
7,1437139316527,0.000213623,-0.00050354,-0.0203857
8,1437139316547,0.000213623,0.000564575,-0.0214539
9,1437139316567,0.00341797,0.00590515,-0.0182495
10,1437139316585,0.0183716,0.00697327,-0.0139771
11,1437139316606,0.013031,0.00590515,-0.00970459
12,1437139316625,0.0108948,0.00376892,-0.0107727
13,1437139316646,-0.0158081,-0.00157166,-0.00863647
14,1437139316665,-0.0158081,0.00376892,-0.00970459
15,1437139316686,-0.00192261,0.00697327,-0.00650024
16,1437139316705,0.00769043,0.0165863,-0.00970459
17,1437139316725,0.0119629,0.0165863,-0.0107727
18,1437139316745,-0.00726318,0.0155182,-0.0182495
19,1437139316764,-0.00512695,0.00697327,-0.0118408
20,1437139316784,-0.0136719,0.00270081,-0.00863647
21,1437139316804,-0.01474,-0.004776,-0.00115967
22,1437139316823,-0.00512695,0.00270081,-0.00222778
23,1437139316844,0.0119629,0.00483704,-0.0032959
24,1437139316863,-0.00512695,0.00270081,-0.00222778
25,1437139316883,-0.0115356,0.00270081,-0.00115967
26,1437139316903,-0.00619507,0.00376892,-0.00436401
27,1437139316922,-0.000854492,0.0101776,-0.0032959
28,1437139316942,-0.00405884,0.0091095,-0.0032959
29,1437139316962,0.00341797,0.00376892,-0.00115967
30,1437139316983,0.000213623,0.0123138,-0.0107727
31,1437139317002,-0.00192261,0.0187225,-0.0193176
32,1437139317023,0.000213623,0.0176544,-0.0161133
33,1437139317043,0.00875854,0.0091095,-0.00436401
34,1437139317063,0.0162354,0.0101776,0.00524902
35,1437139317085,0.0269165,0.013382,0.000976562
36,1437139317100,0.0151672,0.0144501,-0.00756836
37,1437139317122,-0.00299072,0.00697327,-0.00970459
38,1437139317141,0.00234985,0.000564575,-0.0032959
39,1437139317160,0.00875854,0.00590515,-0.00436401
40,1437139317182,0.0162354,0.00590515,-0.00115967
41,1437139317201,-0.00939941,0.00270081,0.00631714
42,1437139317221,-0.00939941,-0.00050354,0.0137939
43,1437139317241,0.013031,0.00590515,0.0159302
44,1437139317260,0.0333252,0.0176544,0.00952148
45,1437139317282,0.0140991,0.013382,0.00631714
46,1437139317299,-0.0104675,0.0101776,0.0105896
47,1437139317319,-0.01474,-0.00050354,0.0127258
48,1437139317339,0.00769043,0.0123138,0.00845337
49,1437139317360,0.0194397,0.0123138,0.00738525
50,1437139317380,-0.000854492,0.00483704,0.00631714
51,1437139317399,0.00662231,0.0091095,0.00524902
52,1437139317417,0.0108948,0.013382,-0.00222778
53,1437139317438,0.0108948,0.0112457,-9.15527e-05
54,1437139317456,-0.0179443,0.00483704,-9.15527e-05
55,1437139317477,-0.0168762,0.00270081,0.00845337
56,1437139317498,0.000213623,0.0123138,0.00524902
57,1437139317517,0.0151672,0.0240631,-0.00436401
58,1437139317537,0.00128174,0.0208588,-0.00863647
59,1437139317553,-0.0168762,0.0101776,-0.00436401
60,1437139317575,-0.0296936,-0.00050354,0.00524902
61,1437139317595,-0.0232849,-0.00691223,0.0148621
62,1437139317617,0.000213623,0.00163269,0.0148621
63,1437139317634,0.00234985,0.000564575,0.0137939
64,1437139317656,0.000213623,0.00483704,0.0116577
65,1437139317675,-0.00512695,0.00697327,0.00738525
66,1437139317695,-0.00726318,-0.00157166,0.0127258
67,1437139317716,-0.0115356,-0.00263977,0.0159302
68,1437139317734,-0.0168762,-0.004776,0.0105896
69,1437139317755,-0.00726318,-0.00263977,0.00631714
70,1437139317772,-0.0126038,-0.00691223,0.000976562
71,1437139317791,-0.0393066,-0.0111847,-0.00650024
72,1437139317812,-0.0296936,-0.00798035,-0.0129089
73,1437139317832,-0.0168762,-0.00263977,-0.0161133
74,1437139317851,-0.0115356,0.000564575,-0.00970459
75,1437139317871,-0.0254211,-0.00370789,-0.00543213
76,1437139317891,-0.0190125,-0.00798035,-0.00115967
77,1437139317912,-0.00512695,-0.004776,-0.00543213
78,1437139317931,-0.00726318,-0.00157166,-0.00756836
79,1437139317950,-0.0168762,0.00376892,-0.00756836
80,1437139317970,-0.0179443,-0.00263977,-0.00543213
81,1437139317990,-0.00619507,-0.00370789,0.000976562
82,1437139318010,-0.0104675,-0.00798035,-0.0032959
83,1437139318029,-0.0232849,-0.00798035,-0.00650024
84,1437139318049,-0.0190125,0.00163269,-0.0118408
85,1437139318069,-0.00405884,0.00483704,-0.00756836
86,1437139318088,-0.00405884,-0.004776,-0.00222778
87,1437139318109,-0.0136719,-0.00370789,0.000976562
88,1437139318128,-0.00939941,-0.00798035,0.00311279
89,1437139318148,-0.00405884,0.00483704,-0.0032959
90,1437139318168,0.00769043,0.00697327,-0.0118408
91,1437139318187,-0.0168762,0.00483704,-0.0118408
92,1437139318208,-0.00939941,0.00163269,-0.0032959
93,1437139318227,-0.000854492,0.000564575,-0.00543213
94,1437139318247,0.00982666,0.00376892,0.00204468
95,1437139318266,-0.00619507,0.00697327,0.00418091
96,1437139318286,-0.0211487,-0.00157166,0.00311279
97,1437139318306,0.00341797,0.0112457,0.00524902
98,1437139318326,0.000213623,0.0101776,-0.00115967
99,1437139318345,-0.0083313,0.00590515,-0.00863647
100,1437139318365,-0.00405884,0.0101776,-0.0118408
101,1437139318385,-0.00619507,0.00590515,-0.0139771
102,1437139318405,-0.0115356,-0.00370789,-0.0032959
103,1437139318424,-0.0083313,-0.00691223,0.0105896
104,1437139318444,-0.00512695,-0.00691223,0.00952148
105,1437139318464,0.0108948,-0.00263977,0.00311279
106,1437139318484,0.0055542,0.00163269,-0.00115967
107,1437139318504,-0.0136719,-0.00050354,-0.0032959
108,1437139318523,-0.0136719,-0.0111847,0.00204468
109,1437139318543,-0.00939941,-0.004776,-0.00115967
110,1437139318563,0.000213623,0.00163269,-0.00222778
111,1437139318583,-0.01474,-0.00050354,-0.00543213
112,1437139318603,-0.0083313,-0.00050354,-0.00650024
113,1437139318622,-0.00939941,0.000564575,-0.0139771
114,1437139318643,-0.0232849,0.000564575,-0.0161133
115,1437139318662,-0.0307617,-0.00157166,-0.00222778
116,1437139318681,-0.0211487,-0.00263977,0.00845337
117,1437139318701,-0.00619507,0.000564575,-9.15527e-05
118,1437139318721,0.00341797,0.00804138,-0.00756836
119,1437139318741,-0.0158081,0.00270081,-0.0139771
120,1437139318761,-0.0275574,-0.00584412,-0.0118408
121,1437139318780,-0.0179443,-0.00904846,-0.00115967
122,1437139318800,-0.0222168,-0.00904846,-9.15527e-05
123,1437139318820,-0.0126038,-0.00157166,0.000976562
124,1437139318840,-0.01474,0.00376892,-0.00222778
125,1437139318859,-0.00405884,0.000564575,-0.00436401
126,1437139318879,-0.00512695,0.00270081,-0.00863647
127,1437139318899,-0.0104675,0.00376892,-0.00650024
128,1437139318918,-0.0179443,0.00483704,-0.00115967
129,1437139318939,-0.0115356,0.00376892,0.00418091
130,1437139318958,0.00875854,0.0091095,0.00418091
131,1437139318978,0.0151672,0.0144501,-0.00543213
132,1437139318998,0.000213623,0.0123138,-0.0107727
133,1437139319017,-0.00192261,0.00697327,-0.00115967
134,1437139319037,-0.00192261,0.00804138,0.00845337
135,1437139319057,0.0151672,-0.00050354,0.0116577
136,1437139319077,0.0290527,0.0091095,0.00311279
137,1437139319097,0.0301209,0.0123138,-0.0032959
138,1437139319116,0.00982666,0.00804138,-0.00756836
139,1437139319136,0.0151672,0.00590515,-0.00650024
140,1437139319156,0.0194397,0.00804138,-0.00650024
141,1437139319175,0.0108948,0.0101776,-0.00863647
142,1437139319195,0.0140991,0.0144501,-0.00970459
143,1437139319214,0.0151672,0.0187225,-0.0129089
144,1437139319235,0.0205078,0.0112457,-0.00650024
145,1437139319254,0.0194397,0.0091095,-0.00115967
146,1437139319274,0.0183716,0.00163269,0.00952148
147,1437139319294,0.0290527,0.013382,0.00418091
148,1437139319314,0.0365295,0.0155182,-0.00222778
149,1437139319334,0.0343933,0.0155182,-0.00970459
150,1437139319353,0.0343933,0.0112457,-0.00756836
151,1437139319373,0.022644,0.00270081,-0.00863647
152,1437139319393,0.0237122,0.00376892,-0.0118408
153,1437139319413,0.0279846,0.00697327,-0.0235901
154,1437139319433,0.0237122,-0.00050354,-0.022522
155,1437139319452,0.0162354,-0.00050354,-0.0246582
156,1437139319472,0.0183716,-0.004776,-0.0203857
157,1437139319492,0.0237122,-0.00050354,-0.0182495
158,1437139319510,0.0333252,-0.00157166,-0.0118408
159,1437139319530,0.0205078,-0.00584412,-0.00650024
160,1437139319551,0.00875854,-0.00691223,-0.00115967
161,1437139319571,0.0194397,-0.00691223,0.000976562
162,1437139319591,0.0322571,-0.00584412,-0.00543213
163,1437139319610,0.0333252,-0.00157166,-0.0107727
164,1437139319630,0.0194397,-0.00263977,-0.00756836
165,1437139319650,-0.000854492,-0.0111847,-0.00543213
166,1437139319670,0.00769043,-0.00904846,-0.00436401
167,1437139319689,0.00448608,-0.00798035,-0.00650024
168,1437139319709,-0.000854492,-0.00798035,-0.0107727
169,1437139319729,0.00662231,0.00163269,-0.0171814
170,1437139319749,0.0173035,0.00376892,-0.0182495
171,1437139319768,-0.000854492,0.00483704,-0.0161133
172,1437139319790,-0.0179443,0.000564575,-0.00970459
173,1437139319810,-0.0126038,0.00163269,-0.00543213
174,1437139319830,0.00448608,0.00590515,-0.0032959
175,1437139319848,0.0140991,0.0101776,-0.0139771
176,1437139319870,0.00662231,0.0123138,-0.0278625
177,1437139319889,-0.00619507,0.0112457,-0.0310669
178,1437139319909,-0.0158081,0.0123138,-0.0342712
179,1437139319928,0.00234985,0.00590515,-0.0193176
180,1437139319948,-0.00939941,0.000564575,-0.00756836
181,1437139319968,-0.00299072,-0.00050354,-0.00115967
182,1437139319987,-0.00299072,0.00804138,-0.00222778
183,1437139320025,-0.000854492,0.0155182,-0.0032959
184,1437139320026,-0.0136719,0.0101776,-0.00222778
185,1437139320045,-0.0200806,0.00483704,-0.00650024
186,1437139320068,0.0119629,0.0123138,-0.0032959
187,1437139320085,-0.00619507,0.00697327,0.000976562
188,1437139320105,-0.0222168,0.00483704,0.0105896
189,1437139320124,0.00769043,0.0144501,0.0276794
190,1437139320145,0.0205078,0.0144501,0.0340881
191,1437139320166,0.0194397,0.0123138,0.0308838
192,1437139320185,-0.00192261,0.0144501,0.023407
193,1437139320205,-0.00512695,0.0112457,0.0191345
194,1437139320224,-0.0136719,0.00697327,0.0137939
195,1437139320243,-0.00512695,0.00590515,0.00952148
196,1437139320263,-0.00299072,0.00590515,0.00738525
197,1437139320284,-0.00512695,0.0101776,0.00311279
198,1437139320301,-0.00512695,0.00804138,-0.00115967
199,1437139320324,-0.00939941,0.00804138,-0.00543213
200,1437139320343,-0.00726318,0.00483704,-0.0032959
201,1437139320366,-0.00299072,0.0091095,-0.00543213
202,1437139320382,0.00234985,-0.00050354,-0.00543213
203,1437139320403,0.00341797,0.00590515,-0.0118408
204,1437139320423,0.0055542,0.0091095,-0.0129089
205,1437139320443,-0.000854492,0.0101776,-0.0118408
206,1437139320465,-0.00192261,0.00270081,-0.00756836
207,1437139320480,-0.0126038,-0.00370789,-0.0032959
208,1437139320501,-0.00726318,0.000564575,-0.00436401
209,1437139320520,0.00128174,0.0101776,-0.0129089
210,1437139320541,0.0183716,0.0187225,-0.0171814
211,1437139320562,0.013031,0.0155182,-0.0118408
212,1437139320581,-0.0104675,0.00697327,-0.00436401
213,1437139320600,-0.0126038,0.00270081,-9.15527e-05
214,1437139320620,-0.00192261,0.000564575,-9.15527e-05
215,1437139320640,0.0108948,0.0091095,-0.00543213
216,1437139320664,-0.00405884,0.0112457,-0.0118408
217,1437139320680,-0.00619507,0.00376892,-0.00650024
218,1437139320698,0.00341797,0.00376892,-0.00650024
219,1437139320719,0.00982666,0.00163269,-0.0129089
220,1437139320739,-0.01474,0.00590515,-0.0203857
221,1437139320759,-0.0222168,0.00376892,-0.0193176
222,1437139320779,-0.0275574,0.00270081,-0.00436401
223,1437139320797,-0.0083313,0.00163269,0.0137939
224,1437139320818,0.00128174,0.00376892,0.0148621
225,1437139320839,0.0151672,0.0091095,0.00311279
226,1437139320858,0.00234985,0.0155182,-0.0129089
227,1437139320877,-0.0307617,0.00590515,-0.0214539
228,1437139320897,-0.0457153,-0.00798035,-0.0139771
229,1437139320917,-0.0350342,-0.0175934,0.00311279
230,1437139320937,-0.0115356,-0.00798035,0.0169983
231,1437139320956,0.013031,0.00163269,0.0191345
232,1437139320974,0.0215759,0.0144501,0.00845337
233,1437139320996,0.0119629,0.0187225,-0.00115967
234,1437139321015,-0.0158081,0.00804138,-0.00115967
235,1437139321036,-0.0339661,-0.00263977,0.00631714
236,1437139321055,-0.0168762,-0.00157166,0.0105896
237,1437139321075,-0.01474,0.00376892,0.0116577
238,1437139321094,-0.0104675,0.0101776,0.00524902
239,1437139321114,-0.0200806,0.0112457,-0.0107727
240,1437139321135,-0.00619507,0.013382,-0.0129089
241,1437139321154,-0.0083313,0.0091095,-0.0032959
242,1437139321174,-0.0222168,-0.00798035,0.0105896
243,1437139321194,-0.0126038,-0.00691223,0.00845337
244,1437139321213,0.0055542,0.00163269,-0.0032959
245,1437139321234,0.000213623,-0.00050354,-0.00650024
246,1437139321252,-0.01474,-0.00584412,-0.00543213
247,1437139321273,-0.000854492,-0.0133209,-0.00543213
248,1437139321291,0.0108948,-0.00584412,-0.00650024
249,1437139321312,-0.00299072,-0.00691223,-0.00756836
250,1437139321332,-0.024353,-0.00691223,-0.00222778
251,1437139321352,-0.0115356,-0.0122528,-0.00115967
252,1437139321371,0.0108948,-0.004776,-0.00650024
253,1437139321391,0.013031,-0.00050354,-0.00650024
254,1437139321411,-0.0179443,-0.00584412,0.00418091
255,1437139321431,-0.0179443,-0.00263977,0.0116577
256,1437139321451,0.0183716,0.00804138,0.00524902
257,1437139321470,0.0237122,0.0101776,-9.15527e-05
258,1437139321490,-0.00299072,0.00590515,-0.00222778
259,1437139321509,-0.0307617,-0.00370789,0.000976562
260,1437139321530,-0.0136719,-0.00050354,0.00418091
261,1437139321549,0.00341797,0.00804138,-0.00115967
262,1437139321569,0.0108948,0.00697327,-0.00650024
263,1437139321589,-0.00192261,0.0091095,-0.0150452
264,1437139321606,0.00341797,0.0101776,-0.00543213
265,1437139321628,-0.0083313,0.00804138,0.000976562
266,1437139321647,-0.000854492,0.00376892,0.0116577
267,1437139321668,-0.00619507,0.0112457,0.00738525
268,1437139321688,0.0173035,0.0176544,-9.15527e-05
269,1437139321708,0.00662231,0.0240631,-0.0139771
270,1437139321730,0.00448608,0.0176544,-0.0129089
271,1437139321747,0.0055542,0.0144501,-0.00115967
272,1437139321767,0.0108948,0.00163269,0.0169983
273,1437139321786,0.00662231,0.00163269,0.0255432
274,1437139321806,0.0108948,0.000564575,0.0148621
275,1437139321825,0.0140991,0.0101776,-0.00115967
276,1437139321846,-0.00299072,0.0091095,-0.00436401
277,1437139321868,-0.0115356,0.00804138,0.00845337
278,1437139321885,-0.0083313,0.00590515,0.0180664
279,1437139321905,0.013031,0.0112457,0.023407
280,1437139321923,0.0194397,0.0208588,0.0180664
281,1437139321945,-0.00192261,0.0144501,0.0127258
282,1437139321966,-0.0264893,0.0187225,0.00311279
283,1437139321984,-0.0136719,0.0165863,0.00524902
284,1437139322004,-0.00299072,0.0197906,0.0127258
285,1437139322024,0.00662231,0.0187225,0.0202026
286,1437139322044,0.00982666,0.0240631,0.0159302
287,1437139322064,0.00875854,0.0240631,0.00311279
288,1437139322083,-0.00939941,0.0176544,-0.00543213
289,1437139322101,-0.0254211,0.00483704,-0.00436401
290,1437139322123,-0.0264893,0.00270081,0.00631714
291,1437139322141,-0.0190125,-0.00157166,0.00524902
292,1437139322163,-0.00512695,0.00270081,0.00204468
293,1437139322182,-0.0200806,0.00590515,-0.00543213
294,1437139322202,-0.0286255,0.00270081,-0.0032959
295,1437139322221,-0.0371704,0.00270081,-0.00222778
296,1437139322240,-0.00299072,0.0123138,0.00845337
297,1437139322262,-0.0179443,0.0112457,0.00631714
298,1437139322280,-0.0307617,0.00590515,0.0148621
299,1437139322300,-0.0275574,0.0144501,0.0127258
300,1437139322320,-0.0200806,0.0144501,0.0169983
301,1437139322340,-0.032898,0.0165863,0.0159302
302,1437139322360,-0.042511,0.0240631,0.0148621
303,1437139322380,-0.032898,0.0368805,0.0191345
304,1437139322399,-0.0361023,0.0422211,0.0212708
305,1437139322417,-0.042511,0.0315399,0.023407
306,1437139322436,-0.0596008,0.0347443,0.0180664
307,1437139322456,-0.070282,0.0379486,0.023407
308,1437139322476,-0.0745544,0.0443573,0.03302
309,1437139322496,-0.070282,0.0454254,0.0554504
310,1437139322516,-0.0478516,0.0550385,0.060791
311,1437139322535,-0.024353,0.0646515,0.0629272
312,1437139322556,-0.0168762,0.0764008,0.0586548
313,1437139322575,-0.0457153,0.0710602,0.0458374
314,1437139322594,-0.0596008,0.0593109,0.0383606
315,1437139322615,-0.0553284,0.0475616,0.0469055
316,1437139322634,-0.0692139,0.0368805,0.0586548
317,1437139322654,-0.079895,0.0261993,0.0768127
318,1437139322676,-0.0670776,0.0336761,0.0832214
319,1437139322696,-0.0296936,0.0400848,0.0874939
320,1437139322715,-0.0275574,0.0432892,0.0800171
321,1437139322733,-0.0307617,0.041153,0.070404
322,1437139322758,-0.0478516,0.0432892,0.0565186
323,1437139322780,-0.0681458,0.0432892,0.0437012
324,1437139322792,-0.0884399,0.0283356,0.0351562
325,1437139322814,-0.0895081,0.0379486,0.0212708
326,1437139322834,-0.10553,0.041153,0.0180664
327,1437139322854,-0.12262,0.0454254,0.0255432
328,1437139322874,-0.0916443,0.0582428,0.0394287
329,1437139322894,-0.079895,0.0657196,0.0501099
330,1437139322912,-0.102325,0.0593109,0.0565186
331,1437139322933,-0.157867,0.0571747,0.0543823
332,1437139322952,-0.156799,0.0614471,0.0618591
333,1437139322972,-0.163208,0.0657196,0.0714722
334,1437139322993,-0.168549,0.0561066,0.078949
335,1437139323012,-0.195251,0.0454254,0.0778809
336,1437139323032,-0.249725,0.0144501,0.088562
337,1437139323050,-0.308472,-0.0378876,0.121674
338,1437139323071,-0.302063,-0.0720673,0.162262
339,1437139323090,-0.228363,-0.0709991,0.187897
340,1437139323111,-0.166412,-0.0688629,0.200714
341,1437139323131,-0.154663,-0.0742035,0.207123
342,1437139323150,-0.205933,-0.0902252,0.215668
343,1437139323170,-0.342651,-0.122269,0.216736
344,1437139323192,-0.486847,-0.166061,0.201782
345,1437139323210,-0.5755,-0.159653,0.184692
346,1437139323228,-0.58725,-0.119064,0.161194
347,1437139323249,-0.468689,-0.0613861,0.172943
348,1437139323268,-0.283905,-0.0122528,0.200714
349,1437139323289,-0.14505,0.0272675,0.233826
350,1437139323308,-0.0991211,0.0368805,0.258392
351,1437139323328,-0.114075,0.0272675,0.251984
352,1437139323348,-0.116211,0.0347443,0.224213
353,1437139323367,-0.172821,0.022995,0.179352
354,1437139323388,-0.281769,0.00697327,0.135559
355,1437139323407,-0.406738,-0.00691223,0.107788
356,1437139323427,-0.446259,-0.00263977,0.109924
357,1437139323447,-0.389648,0.00163269,0.133423
358,1437139323467,-0.312744,0.00483704,0.168671
359,1437139323489,-0.229431,-0.00263977,0.209259
360,1437139323506,-0.199524,-0.0528412,0.265869
361,1437139323526,-0.21875,-0.120132,0.319275
362,1437139323544,-0.176025,-0.197037,0.374817
363,1437139323565,-0.18457,-0.284622,0.414337
364,1437139323587,-0.264679,-0.355118,0.447449
365,1437139323605,-0.427032,-0.403183,0.499786
366,1437139323624,-0.7229,-0.50145,0.552124
367,1437139323644,-1.03372,-0.617874,0.544647
368,1437139323664,-1.28473,-0.632828,0.446381
369,1437139323687,-0.996338,-0.394638,0.234894
370,1437139323704,-0.233704,0.0155182,0.0949707
371,1437139323723,0.258698,0.119125,0.0437012
372,1437139323743,0.125183,-0.032547,0.0853577
373,1437139323763,-0.529572,-0.278214,0.194305
374,1437139323783,-1.18112,-0.453384,0.225281
375,1437139323803,-1.37338,-0.409592,0.18042
376,1437139323822,-1.03906,-0.256851,0.0810852
377,1437139323842,-0.452667,-0.0667267,-0.0214539
378,1437139323862,0.0557556,0.0838776,-0.0299988
379,1437139323884,0.138,0.096695,0.0105896
380,1437139323900,-0.0190125,0.0539703,0.104584
381,1437139323924,-0.266815,-0.004776,0.177216
382,1437139323941,-0.347992,-0.0517731,0.201782
383,1437139323960,-0.265747,0.00483704,0.147308
384,1437139323981,-0.171753,0.0646515,0.0597229
385,1437139324000,-0.193115,0.0956268,-9.15527e-05
386,1437139324020,-0.274292,0.104172,-0.0032959
387,1437139324039,-0.30954,0.0934906,0.0191345
388,1437139324060,-0.277496,0.0593109,0.0650635
389,1437139324078,-0.223022,0.0358124,0.0864258
390,1437139324098,-0.125824,0.0422211,0.0896301
391,1437139324120,-0.0660095,0.078537,0.0618591
392,1437139324139,-0.00512695,0.126602,0.00418091
393,1437139324158,0.0621643,0.175735,-0.0577698
394,1437139324176,0.147614,0.171463,-0.107971
395,1437139324198,0.244812,0.167191,-0.151764
396,1437139324220,0.218109,0.154373,-0.173126
397,1437139324238,0.104889,0.116989,-0.194489
398,1437139324257,0.0258484,0.11058,-0.251099
