id,attr_time,attr_x,attr_y,attr_z
1,1437139316404,-0.025961773,-0.0027488936,-0.0021380284
2,1437139316424,-0.018936822,-0.0067195175,-0.002443461
3,1437139316443,-0.032070424,-0.0036651916,0.005192355
4,1437139316478,-0.027794369,0.0027488936,0.010079277
5,1437139316491,-0.028099801,0.0,-0.0015271631
6,1437139316502,-0.028405234,-0.027488936,-0.0009162979
7,1437139316522,-0.03481932,-0.047647487,-0.0067195175
8,1437139316542,-0.029626964,-0.033292156,0.0033597588
9,1437139316562,-0.03756821,-0.003970624,0.008246681
10,1437139316588,-0.037873644,0.005192355,0.003970624
11,1437139316605,-0.03390302,-0.019547688,0.004276057
12,1437139316622,-0.028710667,-0.029626964,0.004886922
13,1437139316643,-0.03573562,-0.018020526,0.0018325958
14,1437139316666,-0.032986723,-0.0027488936,0.01038471
15,1437139316687,-0.034513887,0.005192355,0.017715093
16,1437139316710,-0.03726278,0.00030543262,0.016493361
17,1437139316723,-0.033292156,-0.014966198,0.017715093
18,1437139316743,-0.030848695,-0.01985312,0.02321288
19,1437139316763,-0.030848695,-0.01863139,0.01740966
20,1437139316783,-0.035124753,-0.004581489,0.02107485
21,1437139316803,-0.03604105,0.013439035,0.017715093
22,1437139316825,-0.03268129,0.005192355,0.01038471
23,1437139316845,-0.03176499,-0.024129177,0.013439035
24,1437139316866,-0.03359759,-0.032070424,0.01282817
25,1437139316886,-0.034513887,-0.024740042,0.014966198
26,1437139316903,-0.028099801,-0.0030543262,0.01282817
27,1437139316926,-0.022907447,-0.0036651916,0.00580322
28,1437139316946,-0.025350908,0.004581489,0.008857546
29,1437139316963,-0.026572637,-0.0012217305,0.009468411
30,1437139316983,-0.027183503,-0.019547688,0.008552114
31,1437139317003,-0.022602014,-0.03268129,0.0070249503
32,1437139317024,-0.023823744,-0.02565634,0.010995574
33,1437139317044,-0.030848695,0.010079277,0.011301007
34,1437139317065,-0.03634648,0.024129177,0.014049901
35,1437139317086,-0.035124753,0.02687807,0.015271631
36,1437139317103,-0.035430185,0.009162978,0.02321288
37,1437139317123,-0.038789943,-0.005192355,0.021380283
38,1437139317143,-0.035124753,-0.005192355,0.016187929
39,1437139317166,-0.030543262,-0.00061086525,0.009468411
40,1437139317188,-0.03726278,0.005497787,0.0061086523
41,1437139317209,-0.03756821,0.005497787,-0.00061086525
42,1437139317225,-0.028710667,0.021685716,0.0009162979
43,1437139317244,-0.033292156,0.015577064,-0.002443461
44,1437139317263,-0.03268129,0.007941248,0.002443461
45,1437139317283,-0.03481932,0.027488936,0.0036651916
46,1437139317306,-0.032375857,0.040011674,0.00061086525
47,1437139317325,-0.030848695,0.020158553,-0.005497787
48,1437139317378,-0.025961773,0.0012217305,-0.0067195175
49,1437139317379,-0.032986723,-0.002443461,-0.00030543262
50,1437139317393,-0.03756821,0.013744468,0.007330383
51,1437139317403,-0.030543262,0.0015271631,-0.00061086525
52,1437139317427,-0.03176499,-0.005192355,-0.00030543262
53,1437139317445,-0.032375857,0.00061086525,-0.004581489
54,1437139317464,-0.030543262,0.017715093,-0.0015271631
55,1437139317487,-0.03176499,0.016187929,0.004581489
56,1437139317505,-0.03726278,0.005497787,0.0061086523
57,1437139317525,-0.036651913,0.009773844,0.0009162979
58,1437139317544,-0.032375857,0.014660766,0.005497787
59,1437139317567,-0.030543262,0.01160644,-0.0027488936
60,1437139317583,-0.03390302,0.0012217305,-0.0015271631
61,1437139317607,-0.031154128,-0.00030543262,0.002443461
62,1437139317628,-0.03390302,0.00061086525,0.00580322
63,1437139317646,-0.036957346,0.0,0.004581489
64,1437139317671,-0.032986723,-0.0067195175,0.002443461
65,1437139317686,-0.035124753,-0.0067195175,0.009162978
66,1437139317707,-0.027183503,0.017104227,0.0061086523
67,1437139317727,-0.029626964,0.008552114,-0.0009162979
68,1437139317749,-0.03176499,-0.0076358155,0.004886922
69,1437139317766,-0.026572637,-0.0030543262,0.0067195175
70,1437139317788,-0.028099801,0.0033597588,0.004276057
71,1437139317806,-0.029932396,-0.003970624,0.004581489
72,1437139317827,-0.03634648,-0.007941248,0.014049901
73,1437139317846,-0.032986723,-0.0021380284,0.010995574
74,1437139317866,-0.035124753,0.01160644,0.00580322
75,1437139317886,-0.040011674,0.005497787,0.0076358155
76,1437139317906,-0.03970624,-0.004276057,0.0067195175
77,1437139317927,-0.040317107,-0.004886922,0.010995574
78,1437139317945,-0.042760566,0.009773844,0.008246681
79,1437139317967,-0.03848451,0.010079277,0.00030543262
80,1437139317985,-0.034513887,0.01282817,0.004581489
81,1437139318006,-0.03756821,0.024740042,0.006414085
82,1437139318025,-0.034513887,0.020463986,0.00030543262
83,1437139318084,-0.031154128,-0.0106901415,-0.007330383
84,1437139318085,-0.03176499,-0.016493361,-0.003970624
85,1437139318086,-0.03359759,0.004581489,0.0033597588
86,1437139318106,-0.030848695,0.049785517,0.007330383
87,1437139318124,-0.02687807,0.046731193,-0.00580322
88,1437139318144,-0.028710667,0.0018325958,-0.005497787
89,1437139318164,-0.030543262,-0.019242255,0.004581489
90,1437139318189,-0.031154128,-0.0015271631,0.0076358155
91,1437139318204,-0.03481932,0.03023783,0.0021380284
92,1437139318225,-0.033292156,0.032070424,-0.0015271631
93,1437139318250,-0.03390302,0.02107485,0.0
94,1437139318265,-0.027794369,0.016493361,0.00061086525
95,1437139318290,-0.031154128,0.016798794,-0.0009162979
96,1437139318307,-0.03145956,0.006414085,0.0015271631
97,1437139318327,-0.030848695,-0.0012217305,0.00580322
98,1437139318345,-0.03023783,0.0076358155,0.004581489
99,1437139318368,-0.032986723,0.01985312,-0.0015271631
100,1437139318388,-0.026572637,0.018936822,0.003970624
101,1437139318407,-0.028710667,0.0015271631,0.00061086525
102,1437139318427,-0.03023783,-0.003970624,0.004276057
103,1437139318446,-0.03023783,-0.0070249503,0.007330383
104,1437139318468,-0.028405234,-0.015271631,0.007941248
105,1437139318485,-0.03176499,-0.014660766,-0.008246681
106,1437139318508,-0.03023783,-0.02321288,-0.0061086523
107,1437139318527,-0.028710667,-0.01863139,0.0027488936
108,1437139318546,-0.04184427,-0.013133603,0.0067195175
109,1437139318568,-0.042760566,-0.01863139,-0.002443461
110,1437139318587,-0.040317107,-0.032375857,0.005497787
111,1437139318605,-0.03481932,-0.0143553335,0.0033597588
112,1437139318628,-0.03145956,0.003970624,0.004276057
113,1437139318645,-0.034208454,0.003970624,0.0021380284
114,1437139318670,-0.03940081,-0.010995574,0.0030543262
115,1437139318690,-0.03023783,-0.026572637,0.005497787
116,1437139318709,-0.032070424,-0.035430185,0.0033597588
117,1437139318725,-0.041233405,-0.03573562,0.007330383
118,1437139318749,-0.042760566,-0.013439035,0.010079277
119,1437139318815,-0.046120327,-0.011301007,0.011911872
120,1437139318816,-0.04795292,-0.028710667,0.014660766
121,1437139318817,-0.043676864,-0.042760566,0.0061086523
122,1437139318824,-0.038789943,-0.03481932,-0.003970624
123,1437139318851,-0.04734206,-0.026572637,-0.0033597588
124,1437139318869,-0.048563786,-0.01863139,-0.0036651916
125,1437139318884,-0.043982297,-0.004581489,-0.0033597588
126,1437139318908,-0.042760566,0.0009162979,-0.0061086523
127,1437139318925,-0.05100725,-0.013133603,-0.004276057
128,1437139318947,-0.043066,-0.03176499,-0.011911872
129,1437139318965,-0.049785517,-0.028405234,-0.008552114
130,1437139318991,-0.047647487,-0.02565634,-0.0018325958
131,1437139319005,-0.04886922,-0.022602014,-0.003970624
132,1437139319028,-0.047647487,-0.015882496,-0.003970624
133,1437139319047,-0.048563786,-0.015271631,-0.0009162979
134,1437139319068,-0.051618114,-0.014660766,-0.0015271631
135,1437139319088,-0.04734206,-0.01863139,-0.004581489
136,1437139319108,-0.04642576,-0.014966198,-0.008857546
137,1437139319128,-0.04520403,0.002443461,-0.0021380284
138,1437139319147,-0.04428773,0.034513887,0.0
139,1437139319168,-0.040317107,0.014049901,-0.0012217305
140,1437139319190,-0.042760566,-0.00061086525,-0.0009162979
141,1437139319206,-0.03940081,0.00030543262,-0.0018325958
142,1437139319228,-0.029932396,0.027794369,0.0033597588
143,1437139319249,-0.030848695,0.022296581,0.0
144,1437139319269,-0.02565634,0.004886922,-0.014049901
145,1437139319289,-0.02076942,-0.021685716,-0.013744468
146,1437139319308,-0.027488936,-0.029321533,-0.0070249503
147,1437139319329,-0.03268129,0.004886922,0.0015271631
148,1437139319346,-0.03359759,0.041233405,0.002443461
149,1437139319367,-0.028099801,0.03604105,0.003970624
150,1437139319390,-0.022602014,-0.011911872,-0.013744468
151,1437139319409,-0.02443461,-0.04428773,-0.022602014
152,1437139319435,-0.021380283,-0.028405234,-0.013744468
153,1437139319448,-0.025045475,0.004886922,0.0009162979
154,1437139319469,-0.02076942,0.022907447,-0.0076358155
155,1437139319521,-0.015882496,-0.018936822,-0.005497787
156,1437139319522,-0.024740042,-0.06047566,0.0033597588
157,1437139319534,-0.026572637,-0.0290161,0.010995574
158,1437139319545,-0.033292156,0.015882496,0.018325957
159,1437139319571,-0.027488936,0.03390302,0.02443461
160,1437139319591,-0.032986723,0.013439035,0.01863139
161,1437139319605,-0.022907447,-0.025045475,0.018020526
162,1437139319628,-0.028099801,-0.033292156,0.02443461
163,1437139319652,-0.03145956,-0.01863139,0.01985312
164,1437139319666,-0.03145956,0.011911872,0.016187929
165,1437139319686,-0.027794369,0.014966198,0.013133603
166,1437139319713,-0.025961773,0.0009162979,0.012217305
167,1437139319726,-0.025045475,-0.0021380284,0.004886922
168,1437139319749,-0.028405234,-0.009468411,0.0009162979
169,1437139319768,-0.026267206,-0.0067195175,0.010995574
170,1437139319789,-0.027488936,-0.0009162979,0.0030543262
171,1437139319809,-0.031154128,0.010079277,0.002443461
172,1437139319829,-0.032070424,0.00030543262,0.0009162979
173,1437139319848,-0.032375857,-0.005192355,0.0036651916
174,1437139319869,-0.03726278,-0.015577064,0.002443461
175,1437139319889,-0.03848451,-0.016187929,-0.0018325958
176,1437139319909,-0.030543262,-0.007941248,-0.003970624
177,1437139319930,-0.03145956,-0.0012217305,-0.0012217305
178,1437139319945,-0.027488936,-0.004276057,-0.004276057
179,1437139319969,-0.031154128,-0.00061086525,0.005192355
180,1437139319989,-0.032986723,0.0027488936,0.008246681
181,1437139320007,-0.03359759,0.004276057,0.0015271631
182,1437139320029,-0.027183503,-0.0018325958,0.00061086525
183,1437139320049,-0.029626964,-0.027183503,-0.0012217305
184,1437139320069,-0.025350908,-0.01740966,-0.005192355
185,1437139320089,-0.0290161,0.005192355,0.004886922
186,1437139320109,-0.034513887,0.02107485,0.005192355
187,1437139320130,-0.03176499,-0.009162978,0.0033597588
188,1437139320150,-0.030543262,-0.03268129,-0.0030543262
189,1437139320170,-0.028405234,-0.019242255,0.0027488936
190,1437139320189,-0.036957346,0.014049901,0.008246681
191,1437139320208,-0.03481932,0.042760566,0.015882496
192,1437139320277,-0.028099801,0.031154128,0.007330383
193,1437139320278,-0.021991149,0.010995574,-0.0021380284
194,1437139320279,-0.02443461,-0.013133603,-0.0070249503
195,1437139320288,-0.025961773,-0.031154128,0.0027488936
196,1437139320314,-0.028099801,-0.01985312,0.01160644
197,1437139320329,-0.037873644,0.0036651916,0.01038471
198,1437139320346,-0.03848451,0.027183503,0.012217305
199,1437139320369,-0.032986723,0.04184427,0.009468411
200,1437139320388,-0.032375857,0.03970624,0.006414085
201,1437139320408,-0.03359759,0.014049901,0.0106901415
202,1437139320427,-0.03604105,-0.008246681,0.024740042
203,1437139320448,-0.03940081,-0.0061086523,0.024129177
204,1437139320466,-0.0290161,-0.004581489,0.017104227
205,1437139320489,-0.025350908,0.0015271631,0.006414085
206,1437139320509,-0.021380283,0.011911872,0.007330383
207,1437139320529,-0.02687807,0.029932396,0.0067195175
208,1437139320549,-0.018936822,0.032070424,0.006414085
209,1437139320569,-0.030848695,0.018325957,0.012217305
210,1437139320589,-0.023823744,-0.00030543262,0.018020526
211,1437139320606,-0.020158553,-0.0036651916,-0.0009162979
212,1437139320628,-0.025045475,-0.008857546,-0.007941248
213,1437139320646,-0.03604105,-0.0061086523,-0.0012217305
214,1437139320772,-0.038179077,0.02076942,0.007941248
215,1437139320773,-0.044593163,0.0290161,0.0009162979
216,1437139320774,-0.03726278,-0.014966198,-0.008857546
217,1437139320775,-0.038179077,-0.03573562,-0.0027488936
218,1437139320776,-0.03604105,-0.023823744,0.0036651916
219,1437139320777,-0.04520403,0.026267206,0.00580322
220,1437139320789,-0.04337143,0.028099801,-0.004581489
221,1437139320810,-0.04062254,-0.01038471,0.00030543262
222,1437139320830,-0.03756821,-0.016187929,0.0036651916
223,1437139320850,-0.035124753,0.0070249503,0.006414085
224,1437139320868,-0.042760566,0.022296581,0.007330383
225,1437139320888,-0.03359759,0.002443461,0.0036651916
226,1437139320908,-0.034513887,-0.0076358155,0.01160644
227,1437139320930,-0.03268129,-0.011301007,0.00580322
228,1437139320950,-0.033292156,-0.006414085,0.009773844
229,1437139321020,-0.03145956,-0.006414085,0.0021380284
230,1437139321021,-0.030848695,0.0027488936,0.0018325958
231,1437139321022,-0.028099801,0.014966198,0.006414085
232,1437139321031,-0.030543262,0.016493361,0.012217305
233,1437139321049,-0.034513887,-0.0070249503,0.0125227375
234,1437139321069,-0.036651913,-0.012217305,0.004276057
235,1437139321087,-0.024740042,-0.008552114,0.0018325958
236,1437139321110,-0.02443461,-0.00030543262,0.004581489
237,1437139321137,-0.02443461,-0.004581489,0.004276057
238,1437139321148,-0.024129177,-0.019242255,0.011301007
239,1437139321167,-0.028710667,-0.026267206,0.0143553335
240,1437139321188,-0.034513887,-0.023518313,0.020158553
241,1437139321209,-0.03023783,-0.026267206,0.011301007
242,1437139321229,-0.032375857,-0.025045475,0.008857546
243,1437139321250,-0.035124753,-0.019242255,0.013439035
244,1437139321270,-0.03940081,0.0018325958,0.022907447
245,1437139321290,-0.036957346,0.015271631,0.027794369
246,1437139321310,-0.032986723,0.013133603,0.020463986
247,1437139321330,-0.029932396,-0.008857546,0.014660766
248,1437139321350,-0.032070424,-0.01282817,0.013744468
249,1437139321370,-0.027488936,-0.010995574,0.019547688
250,1437139321390,-0.021380283,-0.0036651916,0.017715093
251,1437139321410,-0.01863139,-0.0030543262,0.02443461
252,1437139321430,-0.02107485,-0.0036651916,0.021991149
253,1437139321450,-0.021991149,0.008552114,0.025961773
254,1437139321470,-0.016187929,0.007330383,0.019547688
255,1437139321490,-0.020158553,-0.0076358155,0.01160644
256,1437139321510,-0.023518313,-0.02321288,0.011301007
257,1437139321530,-0.021380283,-0.01160644,0.014966198
258,1437139321551,-0.021991149,0.0076358155,0.010995574
259,1437139321570,-0.020158553,0.015271631,-0.0030543262
260,1437139321591,-0.023518313,0.0070249503,-0.008552114
261,1437139321610,-0.021991149,0.0018325958,-0.0018325958
262,1437139321629,-0.02687807,0.01038471,0.0036651916
263,1437139321647,-0.021380283,0.016493361,0.005192355
264,1437139321753,-0.02687807,0.02687807,0.011911872
265,1437139321754,-0.01985312,0.018325957,0.008246681
266,1437139321755,-0.018325957,0.018325957,0.011301007
267,1437139321756,-0.01282817,0.0036651916,0.008246681
268,1437139321757,-0.016493361,0.0012217305,0.01740966
269,1437139321773,-0.013439035,-0.0012217305,0.01863139
270,1437139321788,-0.003970624,0.008246681,0.019242255
271,1437139321809,0.0,0.0143553335,0.021380283
272,1437139321829,0.009468411,0.012217305,0.018020526
273,1437139321849,0.017104227,-0.0033597588,0.020158553
274,1437139321870,0.016493361,-0.011301007,0.032375857
275,1437139321888,0.012217305,0.0070249503,0.049785517
276,1437139321909,0.013133603,0.06291912,0.05222898
277,1437139321931,0.022296581,0.0711658,0.059864793
278,1437139321950,0.021685716,0.06047566,0.0580322
279,1437139321971,0.024129177,0.025961773,0.06047566
280,1437139322001,0.03023783,0.00061086525,0.058643065
281,1437139322008,0.03634648,-0.013439035,0.065973446
282,1437139322029,0.024129177,-0.027488936,0.07086037
283,1437139322048,0.021685716,-0.018936822,0.074830994
284,1437139322068,0.016493361,0.022907447,0.07574729
285,1437139322089,0.007941248,0.08155051,0.070554934
286,1437139322108,-0.0033597588,0.10323623,0.07360926
287,1437139322131,0.0033597588,0.098043874,0.08093964
288,1437139322148,0.005192355,0.061391957,0.07544186
289,1437139322167,0.012217305,0.034208454,0.07147124
290,1437139322187,0.012217305,0.011911872,0.06811147
291,1437139322207,0.013133603,0.016493361,0.06658431
292,1437139322228,0.028405234,0.03481932,0.04642576
293,1437139322247,0.0290161,0.054061573,0.046120327
294,1437139322267,0.029321533,0.07360926,0.05131268
295,1437139322287,0.03390302,0.0842994,0.05131268
296,1437139322308,0.04520403,0.07452556,0.049785517
297,1437139322329,0.05131268,0.08246681,0.0580322
298,1437139322347,0.05467244,0.0693332,0.0580322
299,1437139322367,0.06627888,0.065973446,0.059864793
300,1437139322387,0.06963864,0.076052725,0.07086037
301,1437139322408,0.073303826,0.12767084,0.08124508
302,1437139322427,0.08307768,0.1459968,0.0711658
303,1437139322447,0.08307768,0.12339478,0.07391469
304,1437139322467,0.06291912,0.12950343,0.09743301
305,1437139322487,0.03970624,0.19914207,0.10873401
306,1437139322507,0.013133603,0.3182608,0.118202426
307,1437139322527,-0.016798794,0.4025602,0.11911872
308,1437139322547,-0.042760566,0.40439278,0.12186762
309,1437139322567,-0.06505715,0.37934732,0.12370021
310,1437139322587,-0.07086037,0.35185838,0.12339478
311,1437139322607,-0.060170226,0.3903429,0.12950343
312,1437139322627,-0.048563786,0.50915617,0.14569137
313,1437139322647,-0.018936822,0.6041457,0.18112154
314,1437139322667,-0.0036651916,0.73548174,0.22266038
315,1437139322689,0.0018325958,0.79901177,0.24220806
316,1437139322707,0.009468411,0.7089091,0.23701571
317,1437139322728,0.020463986,0.46181414,0.22479841
318,1437139322751,0.036957346,0.23762658,0.19914207
319,1437139322769,0.03848451,0.03970624,0.16646078
320,1437139322791,0.024740042,-0.006414085,0.15057829
321,1437139322811,0.023518313,0.07391469,0.14966199
322,1437139322831,0.024129177,0.22815818,0.160963
323,1437139322851,0.028710667,0.3622431,0.19364429
324,1437139322871,0.048563786,0.48563787,0.2302962
325,1437139322891,0.054367006,0.5002986,0.24953845
326,1437139322911,0.04337143,0.38820487,0.26297748
327,1437139322931,0.008246681,0.26633725,0.27977628
328,1437139322948,-0.02443461,0.13469578,0.29443705
329,1437139322970,-0.10140363,0.11881329,0.31306845
330,1437139322991,-0.18570304,0.14385876,0.30268374
331,1437139323008,-0.2312125,0.2501493,0.27885997
332,1437139323029,-0.29810223,0.36285394,0.20952678
333,1437139323049,-0.29932398,0.5204572,0.1255328
334,1437139323070,-0.20066923,0.8072584,0.1301143
335,1437139323089,-0.10140363,1.2330315,0.22052236
336,1437139323109,-0.009468411,1.4291192,0.39767328
337,1437139323131,-0.025045475,1.2299771,0.39584067
338,1437139323151,-0.038179077,0.42119157,0.18753563
339,1437139323171,0.013439035,-0.50488013,0.03848451
340,1437139323192,0.05955936,-0.8020661,0.023518313
341,1437139323212,0.07880162,-0.45906523,0.058643065
342,1437139323231,0.036957346,0.51068336,0.12095132
343,1437139323253,0.007941248,1.2947289,0.17959438
344,1437139323272,0.0036651916,1.3435981,0.21135938
345,1437139323291,0.0033597588,0.9947941,0.20952678
346,1437139323313,-0.003970624,0.44440445,0.16890424
347,1437139323329,0.014966198,0.13164146,0.119729586
348,1437139323350,0.049785517,0.07452556,0.050396383
349,1437139323372,0.057421334,0.1328632,0.0009162979
350,1437139323392,0.0729984,0.1282817,-0.024129177
351,1437139323412,0.09987647,0.10995574,-0.032070424
352,1437139323431,0.115453534,0.15363261,0.0076358155
353,1437139323452,0.09101892,0.28527406,0.06627888
354,1437139323473,0.07391469,0.40622538,0.09743301
355,1437139323492,0.08032878,0.4202753,0.0888809
356,1437139323512,0.09254608,0.32498032,0.042760566
357,1437139323529,0.10048734,0.1685988,0.013133603
358,1437139323551,0.09101892,0.09743301,0.008246681
359,1437139323570,0.062002823,0.119729586,-0.0015271631
360,1437139323590,0.028405234,0.17073683,-0.02076942
361,1437139323675,0.0143553335,0.1695151,-0.06505715
362,1437139323676,0.026572637,0.081855945,-0.11453723
363,1437139323677,0.042760566,-0.032986723,-0.15851954
364,1437139323682,0.06811147,-0.09621128,-0.22937989
365,1437139323694,0.09315695,-0.1572978,-0.27397305
366,1437139323709,0.099265605,-0.15851954,-0.30909783
