id,attr_time,attr_x,attr_y,attr_z
1,1436980333538,-0.004581489,0.030543262,-0.0125227375
2,1436980333597,-0.005497787,0.03176499,-0.008552114
3,1436980333598,-0.0027488936,0.035124753,-0.009162978
4,1436980333599,0.0009162979,0.03756821,-0.007941248
5,1436980333600,-0.0012217305,0.04153884,-0.011911872
6,1436980333640,-0.005497787,0.036957346,-0.011911872
7,1436980333641,-0.009468411,0.036957346,-0.010995574
8,1436980333654,-0.005497787,0.037873644,-0.008552114
9,1436980333691,-0.0027488936,0.038789943,-0.00580322
10,1436980333705,-0.006414085,0.040317107,-0.009773844
11,1436980333713,-0.0027488936,0.03940081,-0.009162978
12,1436980333733,-0.007330383,0.044593163,-0.007330383
13,1436980333753,-0.00030543262,0.041233405,-0.012217305
14,1436980333774,-0.0012217305,0.038179077,-0.015882496
15,1436980333793,0.003970624,0.04520403,-0.020158553
16,1436980333813,0.008552114,0.040927973,-0.024129177
17,1436980333833,0.016187929,0.036651913,-0.030848695
18,1436980333853,0.012217305,0.03756821,-0.0421497
19,1436980333874,0.015271631,0.03481932,-0.0421497
20,1436980333896,0.017104227,0.035430185,-0.04184427
21,1436980333915,0.01282817,0.03359759,-0.040317107
22,1436980333937,0.0061086523,0.027794369,-0.035124753
23,1436980333957,-0.00030543262,0.03573562,-0.028405234
24,1436980333974,0.00030543262,0.04062254,-0.03023783
25,1436980333997,0.0015271631,0.042760566,-0.0290161
26,1436980334014,-0.0009162979,0.04550946,-0.029321533
27,1436980334036,0.011911872,0.040011674,-0.028405234
28,1436980334054,0.003970624,0.027488936,-0.027794369
29,1436980334076,0.002443461,0.026267206,-0.02443461
30,1436980334098,0.004276057,0.027488936,-0.02565634
31,1436980334116,0.002443461,0.028099801,-0.03176499
32,1436980334137,0.0067195175,0.032986723,-0.034513887
33,1436980334156,0.01038471,0.031154128,-0.03481932
34,1436980334177,0.005192355,0.028099801,-0.031154128
35,1436980334195,0.0015271631,0.028099801,-0.03359759
36,1436980334216,0.0076358155,0.028710667,-0.03359759
37,1436980334236,0.0033597588,0.025961773,-0.031154128
38,1436980334308,-0.004276057,0.03023783,-0.029321533
39,1436980334309,0.0009162979,0.036957346,-0.03145956
40,1436980334310,-0.0015271631,0.040927973,-0.03604105
41,1436980334317,-0.003970624,0.048258353,-0.036957346
42,1436980334335,0.005192355,0.050396383,-0.03726278
43,1436980334364,0.004886922,0.040011674,-0.035430185
44,1436980334375,0.011301007,0.040927973,-0.034208454
45,1436980334408,0.010995574,0.044593163,-0.042760566
46,1436980334415,0.011301007,0.040927973,-0.0421497
47,1436980334436,0.014049901,0.0421497,-0.057421334
48,1436980334455,0.019242255,0.048563786,-0.062308256
49,1436980334476,0.020158553,0.050701816,-0.069027774
50,1436980334495,0.024740042,0.04886922,-0.0693332
51,1436980334518,0.026572637,0.050396383,-0.070249505
52,1436980334552,0.021685716,0.040317107,-0.059253927
53,1436980334555,0.013133603,0.043066,-0.04917465
54,1436980334575,0.01160644,0.039095376,-0.044593163
55,1436980334594,0.007941248,0.033292156,-0.04184427
56,1436980334614,0.0070249503,0.036651913,-0.035124753
57,1436980334636,0.0018325958,0.03268129,-0.032375857
58,1436980334654,-0.003970624,0.04184427,-0.02565634
59,1436980334675,-0.004276057,0.036651913,-0.024129177
60,1436980334694,-0.006414085,0.03604105,-0.021380283
61,1436980334717,-0.013133603,0.03481932,-0.015577064
62,1436980334738,-0.009162978,0.02565634,-0.007330383
63,1436980334757,-0.015577064,0.029626964,-0.002443461
64,1436980334777,-0.017104227,0.029321533,-0.0030543262
65,1436980334799,-0.0143553335,0.02687807,-0.005497787
66,1436980334817,-0.008857546,0.029932396,-0.010079277
67,1436980334838,-0.016187929,0.027183503,-0.014049901
68,1436980334858,-0.02107485,0.026267206,-0.010079277
69,1436980334877,-0.014660766,0.03023783,-0.013744468
70,1436980334899,-0.015882496,0.03726278,-0.014049901
71,1436980334918,-0.016493361,0.03756821,-0.029932396
72,1436980334937,-0.007941248,0.050701816,-0.032986723
73,1436980334958,-0.0143553335,0.05375614,-0.026267206
74,1436980335027,-0.0106901415,0.043982297,-0.022602014
75,1436980335028,-0.01740966,0.03848451,-0.024129177
76,1436980335029,-0.026572637,0.037873644,-0.01863139
77,1436980335038,-0.028710667,0.035430185,-0.0036651916
78,1436980335056,-0.017104227,0.026572637,-0.011301007
79,1436980335077,0.0027488936,0.03726278,-0.044898596
80,1436980335112,0.0143553335,0.0580322,-0.067500606
81,1436980335119,0.016798794,0.05131268,-0.099265605
82,1436980335137,0.021991149,0.061391957,-0.1133155
83,1436980335156,0.008552114,0.09132435,-0.11942416
84,1436980335176,0.0061086523,0.1459968,-0.10873401
85,1436980335199,0.005497787,0.12003502,-0.09162979
86,1436980335216,0.005192355,0.07147124,-0.08093964
87,1436980335239,0.002443461,0.07269296,-0.05467244
88,1436980335258,-0.011911872,0.03756821,-0.032986723
89,1436980335279,-0.02321288,0.029932396,-0.021685716
90,1436980335299,-0.030543262,0.035430185,-0.015577064
91,1436980335319,-0.025961773,0.030543262,-0.009468411
92,1436980335339,-0.03268129,0.030848695,-0.016187929
93,1436980335359,-0.02321288,0.036957346,-0.014049901
94,1436980335376,-0.015271631,0.030848695,-0.008857546
95,1436980335401,-0.019242255,0.020158553,-0.015271631
96,1436980335415,-0.015882496,0.01863139,-0.027183503
97,1436980335436,-0.009773844,0.02076942,-0.032375857
98,1436980335455,-0.0076358155,0.027183503,-0.034208454
99,1436980335479,-0.0027488936,0.032986723,-0.03023783
100,1436980335498,-0.0061086523,0.028710667,-0.035124753
101,1436980335517,-0.0076358155,0.026572637,-0.032986723
102,1436980335538,-0.006414085,0.029932396,-0.03390302
103,1436980335560,-0.00061086525,0.035124753,-0.039095376
104,1436980335578,0.00061086525,0.03604105,-0.04184427
105,1436980335599,0.0018325958,0.032375857,-0.04184427
106,1436980335617,-0.002443461,0.019547688,-0.031154128
107,1436980335640,-0.017104227,0.019547688,-0.018325957
108,1436980335673,-0.03481932,0.015882496,0.0012217305
109,1436980335719,-0.032375857,0.016798794,0.042760566
110,1436980335720,-0.026572637,0.0,0.06352998
111,1436980335721,-0.02565634,-0.0067195175,0.0693332
112,1436980335735,-0.024129177,-0.011911872,0.04886922
113,1436980335757,-0.024740042,-0.0012217305,0.032070424
114,1436980335783,-0.019547688,0.011301007,0.022602014
115,1436980335796,-0.02076942,0.008552114,0.01038471
116,1436980335816,-0.016187929,0.01282817,-0.0067195175
117,1436980335838,-0.009468411,0.020158553,-0.014049901
118,1436980335856,-0.018325957,0.017715093,-0.014049901
119,1436980335879,-0.0036651916,0.014966198,-0.021685716
120,1436980335897,-0.0106901415,0.017715093,-0.019242255
121,1436980335919,-0.0106901415,0.021991149,-0.023823744
122,1436980335936,-0.015882496,0.029321533,-0.029626964
123,1436980335959,-0.025350908,0.04184427,-0.02321288
124,1436980335980,-0.028405234,0.040927973,-0.023518313
125,1436980335999,-0.03176499,0.046120327,-0.011911872
126,1436980336019,-0.029932396,0.037873644,-0.0012217305
127,1436980336040,-0.024129177,0.032375857,0.00061086525
128,1436980336059,-0.021991149,0.03726278,-0.0033597588
129,1436980336079,-0.016798794,0.04062254,-0.0012217305
130,1436980336099,-0.017715093,0.03268129,-0.0027488936
131,1436980336117,-0.018325957,0.034513887,0.0021380284
132,1436980336137,-0.025350908,0.036957346,0.005192355
133,1436980336159,-0.028405234,0.04184427,0.01282817
134,1436980336180,-0.0290161,0.03940081,0.025350908
135,1436980336199,-0.021685716,0.030543262,0.03573562
136,1436980336217,-0.020463986,0.02687807,0.04184427
137,1436980336240,-0.02076942,0.02321288,0.043982297
138,1436980336260,-0.02107485,0.022296581,0.034513887
139,1436980336280,-0.022907447,0.01985312,0.021380283
140,1436980336299,-0.02443461,0.020463986,0.01282817
141,1436980336319,-0.015577064,0.023518313,0.0030543262
142,1436980336337,-0.0061086523,0.024129177,-0.004581489
143,1436980336360,-0.0033597588,0.0290161,-0.008857546
144,1436980336380,0.00061086525,0.0290161,-0.0033597588
145,1436980336399,0.005192355,0.015882496,-0.018936822
146,1436980336469,0.01160644,0.016187929,-0.029932396
147,1436980336470,0.016798794,0.02443461,-0.03359759
148,1436980336471,0.01863139,0.02565634,-0.035124753
149,1436980336480,0.019242255,0.020158553,-0.032986723
150,1436980336498,0.013744468,0.018020526,-0.027488936
151,1436980336519,0.007330383,0.017104227,-0.023518313
152,1436980336537,0.00061086525,0.01282817,-0.015882496
153,1436980336561,-0.0018325958,0.013133603,-0.004886922
154,1436980336577,0.0012217305,0.015882496,-0.01740966
155,1436980336602,0.0030543262,0.01160644,-0.02107485
156,1436980336616,0.017104227,0.009773844,-0.027488936
157,1436980336638,0.0070249503,0.01038471,-0.026572637
158,1436980336657,0.0033597588,0.01985312,-0.024740042
159,1436980336680,0.0027488936,0.024129177,-0.017715093
160,1436980336700,0.004886922,0.02076942,-0.024740042
161,1436980336720,0.013133603,0.024129177,-0.023823744
162,1436980336740,0.01282817,0.028405234,-0.025350908
163,1436980336760,0.0143553335,0.022296581,-0.02687807
164,1436980336781,0.009773844,0.02076942,-0.0290161
165,1436980336800,0.0,0.01985312,-0.023518313
166,1436980336820,0.005192355,0.027794369,-0.02565634
167,1436980336840,-0.00030543262,0.027183503,-0.022907447
168,1436980336858,0.005192355,0.032375857,-0.02565634
169,1436980336880,0.01282817,0.028405234,-0.029321533
170,1436980336900,0.010079277,0.03176499,-0.030848695
171,1436980336920,0.01282817,0.031154128,-0.030848695
172,1436980336940,0.011911872,0.027794369,-0.03268129
173,1436980336960,0.014660766,0.025961773,-0.04550946
174,1436980336982,0.015271631,0.028710667,-0.04428773
175,1436980337001,0.01038471,0.028099801,-0.044593163
176,1436980337022,0.005192355,0.027488936,-0.04550946
177,1436980337040,0.01160644,0.035124753,-0.043982297
178,1436980337059,0.013744468,0.02687807,-0.04337143
179,1436980337079,0.015882496,0.025350908,-0.04428773
180,1436980337099,0.010995574,0.029932396,-0.04642576
181,1436980337119,0.010079277,0.023518313,-0.04184427
182,1436980337138,0.004581489,0.027488936,-0.041233405
183,1436980337209,0.0015271631,0.03145956,-0.032070424
184,1436980337210,-0.0009162979,0.032375857,-0.028405234
185,1436980337211,-0.00580322,0.028710667,-0.022296581
186,1436980337220,-0.009162978,0.029626964,-0.027183503
187,1436980337240,-0.0021380284,0.03023783,-0.032070424
188,1436980337260,-0.0009162979,0.026267206,-0.034208454
189,1436980337277,0.0012217305,0.027183503,-0.032375857
190,1436980337319,0.00030543262,0.029932396,-0.03390302
191,1436980337320,-0.0009162979,0.025961773,-0.036651913
192,1436980337337,-0.004581489,0.032375857,-0.037873644
193,1436980337357,-0.009773844,0.03268129,-0.026572637
194,1436980337377,-0.0076358155,0.02443461,-0.027183503
195,1436980337401,-0.006414085,0.03023783,-0.026267206
196,1436980337420,-0.008246681,0.030848695,-0.027488936
197,1436980337440,-0.0076358155,0.029626964,-0.023823744
198,1436980337460,-0.009468411,0.026572637,-0.022907447
199,1436980337480,-0.010079277,0.02687807,-0.021380283
200,1436980337500,-0.011911872,0.027794369,-0.020158553
201,1436980337520,-0.015882496,0.034513887,-0.014660766
202,1436980337540,-0.011911872,0.03023783,-0.01282817
203,1436980337560,-0.018936822,0.032070424,-0.016493361
204,1436980337577,-0.017104227,0.027488936,-0.009468411
205,1436980337599,-0.014049901,0.022907447,-0.002443461
206,1436980337624,-0.013439035,0.022296581,-0.010079277
207,1436980337639,-0.024129177,0.0106901415,-0.023518313
208,1436980337663,-0.044898596,-0.06352998,-0.013439035
209,1436980337680,-0.058337633,-0.19364429,0.022296581
210,1436980337700,-0.07696902,-0.33169982,0.08307768
211,1436980337721,-0.07544186,-0.4083634,0.14844026
212,1436980337741,-0.06963864,-0.321926,0.1957823
213,1436980337761,-0.06719518,-0.2773328,0.2452624
214,1436980337781,-0.049480084,-0.34238997,0.2406809
215,1436980337801,-0.029932396,-0.41996986,0.21624629
216,1436980337821,-0.011911872,-0.26053402,0.16920967
217,1436980337842,0.016187929,-0.14844026,0.11759156
218,1436980337859,0.043676864,-0.07696902,0.10476339
219,1436980337878,0.05589417,-0.028405234,0.09712757
220,1436980337932,0.06414085,-0.008552114,0.09590584
221,1436980337933,0.06352998,0.022602014,0.119729586
222,1436980337942,0.065973446,0.061391957,0.13041973
223,1436980337958,0.07574729,0.08460484,0.1432479
224,1436980337979,0.10476339,0.086437434,0.14263703
225,1436980337998,0.12675454,0.07696902,0.14935656
226,1436980338018,0.15851954,0.029932396,0.14966199
227,1436980338043,0.17531833,-0.058948494,0.17348573
228,1436980338059,0.17959438,-0.1133155,0.18845193
229,1436980338078,0.19211712,-0.1386664,0.19700404
230,1436980338103,0.19914207,-0.17623462,0.22021692
231,1436980338118,0.19883664,-0.25473082,0.22632557
232,1436980338141,0.1966986,-0.3023783,0.21105394
233,1436980338162,0.2012801,-0.26083946,0.19211712
234,1436980338181,0.18448131,-0.19792034,0.16584991
235,1436980338201,0.16584991,-0.1441642,0.17256944
236,1436980338221,0.14630222,-0.108123146,0.172264
237,1436980338241,0.09315695,-0.04795292,0.18509217
238,1436980338261,0.049480084,-0.016798794,0.19425514
239,1436980338281,-0.0143553335,0.054367006,0.2312125
240,1436980338301,-0.087964594,0.12522738,0.28802297
241,1436980338321,-0.1423316,0.15699236,0.33475417
242,1436980338340,-0.1881465,0.18142697,0.3921755
243,1436980338361,-0.24312437,0.18020524,0.41905355
244,1436980338383,-0.27488935,0.21227567,0.4428773
245,1436980338403,-0.30848694,0.2507602,0.4642576
246,1436980338423,-0.35308012,0.27214047,0.49754974
247,1436980338441,-0.37720928,0.24495697,0.50701815
248,1436980338459,-0.38545597,0.24831672,0.5039638
249,1436980338478,-0.44135013,0.33383787,0.55680364
250,1436980338500,-0.46761733,0.37782016,0.6151413
251,1436980338524,-0.5137377,0.3304781,0.63621616
252,1436980338544,-0.52534413,0.27397305,0.61758476
253,1436980338565,-0.5552765,0.24740042,0.6249151
254,1436980338579,-0.58246,0.28771752,0.6392705
255,1436980338689,-0.62858033,0.3839288,0.66614854
256,1436980338690,-0.68508536,0.5552765,0.6789767
257,1436980338691,-0.7263188,0.6808093,0.68875057
258,1436980338692,-0.7867944,0.74189585,0.7076874
259,1436980338693,-0.88208944,0.7510588,0.7593055
260,1436980338709,-0.93218035,0.6817256,0.84421575
261,1436980338720,-0.97494096,0.54733527,1.042747
262,1436980338739,-0.94714653,0.4550946,1.2739595
263,1436980338758,-0.8732319,0.5558874,1.4074335
264,1436980338783,-0.6817256,0.6924158,1.4379768
265,1436980338800,-0.39920044,0.9584476,1.3726143
266,1436980338820,-0.15668693,1.3341297,1.3228287
267,1436980338839,0.24770586,1.6536123,1.2076806
268,1436980338861,0.5323691,2.4743097,1.2284501
269,1436980338881,0.59956425,3.6679404,1.0580186
270,1436980338901,0.90316427,6.4284406,0.99387777
271,1436980338922,1.1184943,8.296772,0.9447031
272,1436980338943,1.3750577,9.909761,1.5833627
273,1436980338962,1.3860532,8.749728,1.7327193
274,1436980338982,1.6887369,7.830376,2.2537873
275,1436980339001,2.310598,5.2155676,2.5919013
276,1436980339022,2.8667905,1.704314,2.653904
277,1436980339042,3.3869424,-0.3387248,2.3667974
278,1436980339062,3.4785721,-1.103528,1.6878207
279,1436980339083,3.3783903,0.18387043,1.2831224
280,1436980339100,3.2000177,1.6077974,0.83291477
281,1436980339122,2.9309313,3.1810808,0.6200282
282,1436980339139,2.7275133,3.9749002,0.44409904
283,1436980339159,2.5011878,4.57477,0.22174409
284,1436980339180,2.4184155,4.9544225,0.18997909
285,1436980339205,2.368019,4.5365906,0.09162979
286,1436980339224,2.2858577,3.821573,-0.32711834
287,1436980339275,1.102001,2.531731,-1.2400564
288,1436980339276,0.48899764,4.2943826,-1.0574077
289,1436980339279,-0.06047566,0.23609942,0.160963
290,1436980339300,-0.08460484,-2.536618,-0.09010262
291,1436980339319,-0.26511553,-1.9346102,0.17440203
292,1436980339340,-0.092240654,-1.2681563,0.044898596
293,1436980339359,-0.007330383,-0.87995136,-0.4529566
294,1436980339417,-0.00580322,0.39461896,-0.3903429
295,1436980339430,-0.004886922,0.8378017,-0.19517145
296,1436980339431,-0.124005646,1.1117748,-0.0842994
297,1436980339440,-0.23426682,0.73945236,0.1881465
298,1436980339459,-0.2929099,0.18448131,0.35216382
299,1436980339480,-0.27947086,-0.047036625,0.34666604
300,1436980339500,-0.23457226,-0.005192355,0.11026118
301,1436980339521,-0.23884831,0.2648101,-0.035430185
302,1436980339539,-0.23976462,0.28771752,-0.018936822
303,1436980339562,-0.1432479,0.14874569,-0.023823744
304,1436980339581,-0.08277224,0.008857546,-0.093462385
305,1436980339601,-0.014660766,0.07452556,-0.13775012
306,1436980339622,0.07819075,0.21868975,-0.14752395
307,1436980339640,0.14477506,0.21838433,-0.3381139
308,1436980339660,0.1554652,0.4859433,-0.37904188
309,1436980339683,0.15027285,0.7458665,-0.49266282
310,1436980339702,0.12156218,0.54458636,-0.4783075
311,1436980339722,0.08399397,0.45631635,-0.48991394
312,1436980339742,0.026267206,0.45448375,-0.52778757
313,1436980339763,-0.014966198,0.52503866,-0.5412266
314,1436980339782,-0.0720821,0.410196,-0.5589417
315,1436980339800,-0.15149458,0.57971114,-0.6035349
316,1436980339823,-0.1133155,0.71929383,-0.5757405
317,1436980339843,-0.057421334,0.7593055,-0.5009095
318,1436980339863,-0.27305678,0.9034697,-0.56779927
319,1436980339881,-0.30634892,1.4492778,-0.4700608
320,1436980339901,-0.18967366,0.52198434,-0.33353242
321,1436980339922,-0.3005457,0.2761111,-0.29810223
322,1436980339942,-0.34208453,0.37415496,-0.29840767
323,1436980339963,-0.2828306,0.17348573,-0.29657507
324,1436980339983,-0.15882497,0.067500606,-0.23945917
325,1436980339999,-0.061391957,-0.13500121,-0.30115658
326,1436980340019,0.12308934,0.312763,-0.35705075
327,1436980340040,0.31795537,0.6224717,-0.21380283
328,1436980340059,0.4636467,0.2742785,-0.087659165
329,1436980340080,0.30818152,0.23182335,-0.2275473
330,1436980340113,0.22693644,0.93951076,-0.3304781
331,1436980340123,0.24129178,0.8491027,-0.24617869
332,1436980340140,0.18784106,0.3643811,-0.41263947
333,1436980340160,0.053145275,0.6062838,-0.1826487
334,1436980340180,-0.11026118,0.3390302,-0.1695151
335,1436980340200,-0.21746802,0.048563786,-0.28863382
336,1436980340220,-0.38515055,-0.16768251,-0.24709499
337,1436980340241,-0.5739079,-0.36041048,-0.06994407
338,1436980340261,-0.4129449,-1.6334536,0.048258353
339,1436980340281,-0.9468411,-2.4190264,-0.065973446
340,1436980340301,-1.679574,-1.8237382,-0.43310347
341,1436980340321,-1.4223998,-0.9059132,-0.60139686
342,1436980340342,-0.8384125,-0.6826419,-0.24556783
343,1436980340364,-0.26328292,-0.8542951,-0.1881465
344,1436980340383,-0.112399206,-1.3271047,-0.27977628
345,1436980340404,-0.015271631,-0.58459806,-0.23884831
346,1436980340423,0.20525073,0.18142697,-0.09437868
347,1436980340443,0.39553526,0.27122417,-0.076052725
348,1436980340463,0.4550946,0.6783658,-0.059864793
349,1436980340480,0.51251596,1.1682798,-0.07391469
350,1436980340500,0.77854776,1.3017539,0.06291912
351,1436980340520,1.0476339,1.2461652,0.4129449
352,1436980340540,0.9550878,1.4862351,0.30726522
353,1436980340560,1.0803152,1.6450601,0.4841107
354,1436980340585,1.0442741,1.3185526,0.49266282
355,1436980340602,1.0180069,0.7012733,0.3115413
356,1436980340624,0.7021896,0.6621779,0.24617869
357,1436980340640,0.5369505,2.1181753,-0.6432411
358,1436980340661,0.77457714,1.6044376,-0.76083267
359,1436980340682,0.8029824,1.3020593,-0.22052236
360,1436980340703,0.9056077,1.724778,-0.32406402
361,1436980340723,0.94042706,1.1924089,-0.22968534
362,1436980340744,0.9569204,0.124005646,-0.2733622
363,1436980340764,0.9618073,-0.5705481,-0.62796944
364,1436980340780,1.0479393,-1.0387764,-0.36377025
365,1436980340803,0.6230826,-0.46273044,-0.49693888
366,1436980340870,0.7480045,-0.67011917,0.12950343
367,1436980340871,-0.301462,1.3833044,0.88147855
368,1436980340872,-0.19333886,0.65057147,-1.1615603
369,1436980340880,-0.3032946,0.4538729,0.42424592
370,1436980340905,-0.21960606,1.2837334,0.4269948
371,1436980340921,-0.13439035,-0.72204274,0.20647246
372,1436980340941,-0.13041973,-1.2666291,0.20463985
373,1436980340975,-0.13652839,-0.32834008,-0.061391957
374,1436980340982,-0.14202617,0.2742785,-0.1001819
375,1436980341002,-0.18020524,0.3894266,-0.034208454
376,1436980341021,-0.19150625,0.13652839,-0.06352998
