id,attr_time,attr_x,attr_y,attr_z
1,1436980333510,-0.031008054,0.00654688,-0.027621737
2,1436980333531,-0.043836225,0.0053251507,-0.032814093
3,1436980333551,-0.05116661,0.0016599586,-0.04197707
4,1436980333571,-0.04902858,-0.010251913,-0.02792717
5,1436980333590,-0.035589542,-0.02033119,-0.0108229425
6,1436980333611,-0.025510266,-0.021858353,-0.008684915
7,1436980333631,-0.014514692,-0.028883304,-0.0074631833
8,1436980333651,-0.018485317,-0.022469219,-0.019069623
9,1436980333671,-0.01879075,-0.018193163,-0.034035824
10,1436980333691,-0.019096183,-0.006892155,-0.036479283
11,1436980333711,-0.023066806,0.002576257,-0.02792717
12,1436980333730,-0.03375695,0.018153321,-0.023040248
13,1436980333750,-0.047195982,0.04014447,-0.025789142
14,1436980333772,-0.063383915,0.056637835,-0.022429382
15,1436980333790,-0.071019724,0.06457908,-0.02334568
16,1436980333810,-0.07437949,0.06732797,-0.018458758
17,1436980333830,-0.07682295,0.07679638,-0.0013545305
18,1436980333867,-0.076517515,0.0816833,0.016665995
19,1436980333887,-0.0829316,0.088097386,0.032243058
20,1436980333924,-0.095148906,0.08992998,0.03957344
21,1436980333925,-0.111336835,0.091151714,0.047209255
22,1436980333930,-0.12630303,0.093900606,0.044765793
23,1436980333950,-0.14493442,0.09176258,0.035297386
24,1436980333970,-0.15287566,0.08595936,0.031021327
25,1436980333990,-0.15379196,0.08718109,0.03651911
26,1436980334010,-0.13882577,0.08901369,0.044460364
27,1436980334035,-0.12905192,0.0844322,0.0420169
28,1436980334050,-0.123248704,0.07557465,0.037129976
29,1436980334070,-0.11958352,0.0685497,0.02918873
30,1436980334090,-0.12233241,0.070687726,0.015749697
31,1436980334111,-0.1382149,0.079239845,-0.0010490976
32,1436980334130,-0.1418801,0.07710181,-0.016015297
33,1436980334150,-0.14340726,0.073742054,-0.028843466
34,1436980334170,-0.12569216,0.059386726,-0.035868417
35,1436980334190,-0.10492275,0.04594769,-0.038617313
36,1436980334210,-0.080793574,0.037701007,-0.03037063
37,1436980334230,-0.055748098,0.032508653,-0.027316304
38,1436980334250,-0.03497868,0.034035817,-0.016626162
39,1436980334271,-0.030397188,0.031592358,-0.00013279915
40,1436980334290,-0.03956017,0.029148895,-0.0010490976
41,1436980334312,-0.052999202,0.043504227,-0.011433808
42,1436980334331,-0.059107855,0.05022375,-0.04655856
43,1436980334351,-0.045057956,0.058470424,-0.08229418
44,1436980334371,-0.047195982,0.0685497,-0.093595184
45,1436980334391,-0.04536339,0.060608458,-0.100925565
46,1436980334448,-0.045668818,0.053888936,-0.09390062
47,1436980334449,-0.059413288,0.05052918,-0.0013545305
48,1436980334466,-0.054526366,0.081072435,0.064924344
49,1436980334482,-0.06949256,0.10672878,0.014833398
50,1436980334491,-0.07285232,0.10184186,-0.02090222
51,1436980334513,-0.06399478,0.10214729,-0.030676063
52,1436980334531,-0.049639445,0.086875655,-0.025178276
53,1436980334551,-0.05116661,0.052361775,-0.063051924
54,1436980334571,-0.051777475,0.024261974,-0.030676063
55,1436980334591,-0.064911075,0.004408852,-0.0431988
56,1436980334611,-0.06979799,-0.0023106653,-0.06274649
57,1436980334631,-0.080793574,-0.0059758574,-0.11864066
58,1436980334651,-0.082626164,-0.023080084,-0.13818835
59,1436980334671,-0.08965112,-0.03315936,-0.15895776
60,1436980334691,-0.09484348,-0.056677673,-0.20904872
61,1436980334711,-0.09178914,-0.06675695,-0.20629981
62,1436980334731,-0.08781852,-0.052401613,-0.19744226
63,1436980334751,-0.07010343,-0.032853927,-0.13055253
64,1436980334771,-0.07254689,0.011739234,-0.13696662
65,1436980334791,-0.077739246,0.048391152,-0.1339123
66,1436980334812,-0.08995655,0.07129859,-0.13879922
67,1436980334831,-0.09759237,0.085348494,-0.14185354
68,1436980334851,-0.09026198,0.07252032,-0.1610958
69,1436980334871,-0.07407405,0.056943264,-0.15865234
70,1436980334891,-0.070408866,0.050834615,-0.17636743
71,1436980334911,-0.043530792,0.036173847,-0.144297
72,1436980334931,-0.04108733,0.030981492,-0.10000927
73,1436980334951,-0.056664392,0.04380966,-0.04106077
74,1436980334971,-0.0688817,0.05602697,-0.029759765
75,1436980334991,-0.08690222,0.04869658,-0.048391156
76,1436980335011,-0.10767164,0.021818511,-0.03709015
77,1436980335040,-0.09453804,-0.0035323966,0.07836338
78,1436980335051,-0.104006454,0.016015291,0.103714295
79,1436980335071,-0.10339558,0.008684908,0.096689336
80,1436980335091,-0.093621746,-0.006586722,0.11287727
81,1436980335111,-0.08781852,-0.009946481,0.12478914
82,1436980335131,-0.06949256,-0.007808453,0.13486841
83,1436980335152,-0.053610068,0.0154044265,0.13089779
84,1436980335171,-0.038033005,0.03342495,0.168466
85,1436980335192,-0.03497868,0.043198798,0.1956495
86,1436980335212,-0.042919926,0.04014447,0.10432515
87,1436980335231,-0.036200408,0.04594769,0.0047541223
88,1436980335251,-0.023066806,0.057248693,-0.01876419
89,1436980335271,-0.0041299835,0.064884506,-0.026400007
90,1436980335291,-0.0019919537,0.05877586,-0.03922818
91,1436980335311,-0.001381088,0.04869658,-0.05449981
92,1436980335331,0.00045150518,0.037395578,-0.05938673
93,1436980335351,0.00014607236,0.02609457,-0.035562985
94,1436980335374,0.015723139,0.021207646,0.012389936
95,1436980335394,0.016944867,0.014182695,0.05942656
96,1436980335421,0.029773034,0.0077686114,0.095467605
97,1436980335513,0.03618712,-0.012389942,0.09791107
98,1436980335514,0.03435453,-0.041406043,0.12784347
99,1436980335515,0.049320728,-0.07927969,0.12173482
100,1436980335516,0.064286925,-0.10676862,0.10585231
101,1436980335517,0.09483019,-0.11440444,0.10340885
102,1436980335532,0.13606358,-0.11745877,0.11104467
103,1436980335551,0.16202536,-0.1168479,0.14525312
104,1436980335571,0.177297,-0.11104468,0.15594327
105,1436980335591,0.17668614,-0.09271873,0.11257184
106,1436980335611,0.17057747,-0.07500363,0.07256016
107,1436980335631,0.14980805,-0.06217546,0.018193156
108,1436980335652,0.122013696,-0.0456821,-0.023040248
109,1436980335672,0.109185524,-0.03774085,-0.049307454
110,1436980335691,0.099106245,-0.042016905,-0.047169425
111,1436980335712,0.08475091,-0.054845076,-0.023956545
112,1436980335732,0.07283904,-0.059426565,-0.012655538
113,1436980335752,0.06611952,-0.063091755,-0.0044088587
114,1436980335772,0.05481851,-0.06920041,-0.00929578
115,1436980335792,0.050237022,-0.064313486,-0.0013545305
116,1436980335812,0.05206962,-0.064313486,0.0013943613
117,1436980335832,0.045044668,-0.063091755,-0.008684915
118,1436980335852,0.05634568,-0.068589546,0.009030178
119,1436980335872,0.071311876,-0.052707046,0.060648292
120,1436980335895,0.07955856,-0.038351715,0.04782012
121,1436980335912,0.0865835,-0.03529739,0.05820483
122,1436980335932,0.0865835,-0.031326763,0.061259158
123,1436980335952,0.08536177,-0.03438109,0.0569831
124,1436980335972,0.09238673,-0.020636624,0.032243058
125,1436980335992,0.08261288,-0.023080084,-0.036479283
126,1436980336012,0.099411674,-0.020942055,-0.019069623
127,1436980336032,0.11468331,-0.01788773,-0.03617385
128,1436980336052,0.11895936,-0.016971432,-0.04900202
129,1436980336072,0.13087124,-0.01330624,-0.043504234
130,1436980336092,0.1409505,-0.011779077,-0.034341253
131,1436980336112,0.13942334,-0.004448694,-0.04075534
132,1436980336132,0.14369941,-0.005059559,-0.071909465
133,1436980336153,0.15347326,-0.0038378285,-0.122611284
134,1436980336173,0.1614145,0.013571831,-0.14979479
135,1436980336192,0.17851871,0.038311873,-0.14948934
136,1436980336212,0.18462738,0.059692156,-0.1415481
137,1436980336232,0.19226319,0.06702254,-0.112226576
138,1436980336257,0.19317949,0.082294166,-0.08137788
139,1436980336274,0.18157306,0.08992998,-0.063051924
140,1436980336296,0.16294166,0.095427774,-0.06488451
141,1436980336314,0.14583743,0.08718109,-0.07068774
142,1436980336336,0.109185524,0.080767006,-0.053278077
143,1436980336353,0.07314447,0.06213562,-0.052056346
144,1436980336374,0.039241448,0.05175091,-0.035868417
145,1436980336485,0.012057945,0.05175091,-0.00043823197
146,1436980336486,-0.007184308,0.045336824,0.038657144
147,1436980336487,-0.027648296,0.039533604,0.08569377
148,1436980336488,-0.03742214,0.033730384,0.096689336
149,1436980336489,-0.037116706,0.029759761,0.08661006
150,1436980336493,-0.037727572,0.021818511,0.0578994
151,1436980336518,-0.037116706,0.017847888,0.03377022
152,1436980336533,-0.027648296,0.018458754,0.01758229
153,1436980336554,-0.029175458,0.0056305816,0.021247484
154,1436980336573,-0.033451516,0.0022708243,0.009335611
155,1436980336593,-0.036200408,-0.010557346,0.028272435
156,1436980336613,-0.040781897,-0.010557346,0.020636618
157,1436980336633,-0.040781897,-0.009030184,0.0007834956
158,1436980336653,-0.048723146,-0.012695375,-0.015404433
159,1436980336675,-0.044141658,-0.0154442685,-0.0108229425
160,1436980336693,-0.042919926,-0.0154442685,-0.005936019
161,1436980336713,-0.047195982,-0.002921531,-0.009601213
162,1436980336733,-0.046279684,0.0056305816,-0.008379482
163,1436980336753,-0.04230906,0.012044667,-0.01876419
164,1436980336773,-0.042614494,0.011739234,-0.034035824
165,1436980336793,-0.038338438,0.005019718,-0.026400007
166,1436980336813,-0.03497868,-0.015138836,-0.023651114
167,1436980336833,-0.030397188,-0.034686524,-0.030065197
168,1436980336853,-0.036811274,-0.037435416,-0.030676063
169,1436980336873,-0.053304635,-0.027661573,-0.051750913
170,1436980336893,-0.062467612,-0.020025758,-0.06518995
171,1436980336913,-0.066132806,-0.01330624,-0.07343663
172,1436980336933,-0.082015306,-0.004754127,-0.09023543
173,1436980336953,-0.081099,0.00074366014,-0.07404749
174,1436980336982,-0.08323704,0.0062414473,-0.04900202
175,1436980336993,-0.07896098,0.014182695,-0.04289337
176,1436980337013,-0.063383915,0.017237023,-0.038922746
177,1436980337033,-0.0548318,0.019985918,-0.034035824
178,1436980337053,-0.048417713,0.02029135,-0.02090222
179,1436980337073,-0.047806848,0.015709858,-0.021207651
180,1436980337093,-0.05025031,0.013266399,-0.03250866
181,1436980337113,-0.04902858,0.011739234,-0.053278077
182,1436980337133,-0.047195982,0.014182695,-0.06977144
183,1436980337153,-0.048723146,0.0123501,-0.07985072
184,1436980337173,-0.045668818,0.0077686114,-0.07832355
185,1436980337193,-0.041698195,0.010212072,-0.070382304
186,1436980337213,-0.041698195,-0.0026160982,-0.056943268
187,1436980337233,-0.030397188,-0.0032269638,-0.026400007
188,1436980337253,-0.012376664,-0.0023106653,0.0032269582
189,1436980337274,0.000756938,-0.011779077,0.03071589
190,1436980337293,0.009003621,-0.017276864,0.030410461
191,1436980337317,0.010836214,-0.014222538,0.018498588
192,1436980337339,0.015417706,-0.012695375,0.005670417
193,1436980337357,0.008087322,-0.008724751,-0.011128375
194,1436980337376,0.009309053,-0.0041432614,-0.007768616
195,1436980337396,0.020304628,0.00013279542,0.0007834956
196,1436980337417,0.034049094,0.00654688,0.027966999
197,1436980337436,0.060010865,0.002881688,0.107074045
198,1436980337458,0.124151714,-0.02155292,0.27781087
199,1436980337690,0.21058914,-0.06400806,0.5380395
200,1436980337691,0.30618957,-0.12967607,0.8617981
201,1436980337692,0.37735537,-0.20664509,1.0869019
202,1436980337693,0.46806884,-0.2396318,1.2961233
203,1436980337743,0.5202978,-0.27628374,1.3138384
204,1436980337744,0.54228896,-0.3199606,1.1950251
205,1436980337745,0.5322097,-0.37829822,0.8694339
206,1436980337746,0.5285445,-0.45343465,0.5126886
207,1436980337747,0.4986121,-0.47053888,0.054539636
208,1436980337748,0.4506592,-0.4668737,-0.2041618
209,1436980337749,0.40148452,-0.44671515,-0.25700164
210,1436980337750,0.35597506,-0.39326444,-0.10031471
211,1436980337751,0.32176661,-0.33706483,0.07958511
212,1436980337752,0.28450385,-0.2967477,0.3031618
213,1436980337755,0.26190183,-0.26681533,0.45923784
214,1436980337775,0.27870062,-0.25948495,0.56339043
215,1436980337795,0.33337307,-0.26528814,0.69381016
216,1436980337815,0.3666652,-0.26284468,0.79704636
217,1436980337835,0.41767246,-0.24024267,0.9048641
218,1436980337855,0.47020686,-0.19381692,0.9234955
219,1436980337875,0.510524,-0.16632798,0.8581329
220,1436980337895,0.5328206,-0.14983462,0.7301566
221,1436980337915,0.535264,-0.120818526,0.56125236
222,1436980337935,0.5193815,-0.08996983,0.45465636
223,1436980337955,0.48486763,-0.045071233,0.36547005
224,1436980337975,0.44088534,0.03189779,0.35600162
225,1436980337995,0.3920161,0.14857306,0.42380768
226,1436980338015,0.36208373,0.28693402,0.4894757
227,1436980338035,0.32176661,0.41827005,0.5194081
228,1436980338055,0.28480926,0.4946282,0.54506445
229,1436980338075,0.2683159,0.52578235,0.5191027
230,1436980338095,0.25762576,0.4723316,0.40761974
231,1436980338115,0.24052155,0.35474005,0.24238071
232,1436980338135,0.22463906,0.21424107,0.12662172
233,1436980338155,0.19226319,0.10336902,0.024301812
234,1436980338177,0.14125594,-0.024301816,-0.034646686
235,1436980338195,0.10277144,-0.10890666,-0.005936019
236,1436980338216,0.06306519,-0.13914448,0.09271871
237,1436980338234,0.03465996,-0.10829579,0.17243662
238,1436980338254,0.009003621,-0.057593968,0.22802535
239,1436980338274,-0.023677671,0.048085716,0.24787849
240,1436980338294,-0.066132806,0.17942175,0.23566118
241,1436980338314,-0.118667215,0.30556542,0.1675497
242,1436980338334,-0.17120162,0.40880165,0.063397184
243,1436980338354,-0.25824994,0.48118916,-0.09756581
244,1436980338374,-0.35262862,0.5621288,-0.28693405
245,1436980338396,-0.43448454,0.622299,-0.47172078
246,1436980338414,-0.5126753,0.674528,-0.54319197
247,1436980338434,-0.56918037,0.7282842,-0.5367779
248,1436980338454,-0.6250745,0.7808186,-0.5218117
249,1436980338474,-0.66691875,0.85656583,-0.55876905
250,1436980338494,-0.7747365,0.9271208,-0.434458
251,1436980338514,-0.86483914,1.0334114,-0.64581734
252,1436980338534,-0.9103486,1.0557079,-0.8675614
253,1436980338555,-0.92226046,1.0572351,-0.69835174
254,1436980338576,-0.8636174,1.184295,-0.27013525
255,1436980338596,-0.84620774,1.5095809,0.07561449
256,1436980338616,-0.81627536,1.7826376,0.17610183
257,1436980338636,-0.79428416,1.8046287,0.1403662
258,1436980338656,-0.7640464,1.6848991,0.04659839
259,1436980338676,-0.74022263,1.4506323,0.07256016
260,1436980338696,-0.7145663,1.2542391,0.19442779
261,1436980338716,-0.7081522,1.1204597,0.25673604
262,1436980338736,-0.7154826,1.0101985,0.29063904
263,1436980338759,-0.7185369,0.93200773,0.2845304
264,1436980338779,-0.6769981,0.84679204,0.20420161
265,1436980338797,-0.61316264,0.7951739,0.14097708
266,1436980338816,-0.552687,0.77226645,0.090580694
267,1436980338837,-0.5160351,0.78906524,0.024301812
268,1436980338856,-0.5001525,0.8083075,-0.09695494
269,1436980338972,-0.5190894,0.8217465,-0.22554207
270,1436980338973,-0.566126,0.82296824,-0.30312198
271,1436980338974,-0.629656,0.7985337,-0.31045234
272,1436980338975,-0.66844594,0.7459993,-0.2838797
273,1436980338976,-0.6992946,0.70048976,-0.20965958
274,1436980338977,-0.6989892,0.6360435,-0.087791964
275,1436980338995,-0.6751655,0.5743461,-0.0853485
276,1436980339015,-0.6412624,0.54349744,-0.12688734
277,1436980339035,-0.61499524,0.52486604,-0.105201624
278,1436980339055,-0.59697473,0.5120379,-0.07679639
279,1436980339075,-0.59789103,0.5828982,-0.10978311
280,1436980339095,-0.63759726,0.7090419,-0.07007687
281,1436980339115,-0.6971566,0.8345747,-0.044420533
282,1436980339135,-0.73808455,1.0013409,-0.116808064
283,1436980339155,-0.8370448,1.164442,-0.2557799
284,1436980339175,-0.9457788,1.3812991,-0.39597347
285,1436980339195,-1.0352705,1.5404295,-0.49493366
286,1436980339215,-1.1085743,1.6531341,-0.5877851
287,1436980339235,-1.1317872,1.7249109,-0.6219936
288,1436980339255,-1.1107123,1.7181913,-0.6198556
289,1436980339275,-1.0291618,1.5990726,-0.622299
290,1436980339295,-0.9140138,1.4277248,-0.6342109
291,1436980339315,-0.78176147,1.239273,-0.5856471
292,1436980339335,-0.68799365,1.0486829,-0.52975297
293,1436980339355,-0.58109224,0.9598021,-0.4036093
294,1436980339375,-0.5200057,0.9197904,-0.3846725
295,1436980339395,-0.5453566,0.9298697,-0.50989985
296,1436980339415,-0.56093365,0.87702984,-0.6152741
297,1436980339435,-0.5197002,0.7826512,-0.6748334
298,1436980339455,-0.49160045,0.7649361,-0.8119727
299,1436980339477,-0.50381774,0.8874146,-0.8370182
300,1436980339512,-0.5080938,0.9946214,-0.82357913
301,1436980339541,-0.54413486,1.0153909,-0.8214411
302,1436980339542,-0.5893389,0.9879019,-0.91520894
303,1436980339666,-0.61621696,0.9976758,-1.0581514
304,1436980339667,-0.59880733,1.037382,-1.0773937
305,1436980339668,-0.5838411,1.0242484,-1.0627328
306,1436980339669,-0.5872009,0.9591912,-0.91368175
307,1436980339670,-0.61682785,0.94941735,-0.8296878
308,1436980339671,-0.6595884,0.9091003,-0.7960902
309,1436980339679,-0.7286162,0.7621872,-0.8547332
310,1436980339697,-0.8193297,0.5929775,-0.9622455
311,1436980339716,-0.8581196,0.44850788,-1.0615112
312,1436980339737,-0.85964674,0.3028165,-1.1516137
313,1436980339757,-0.81444275,0.0844322,-1.2215579
314,1436980339777,-0.7252564,-0.24268614,-1.1568061
315,1436980339801,-0.61988217,-0.46870628,-0.8944395
316,1436980339821,-0.54474574,-0.47664753,-0.6161904
317,1436980339837,-0.52244914,-0.27200767,-0.4552274
318,1436980339856,-0.49801454,-0.054539643,-0.32938918
319,1436980339893,-0.4818266,0.19805314,-0.25883424
320,1436980339896,-0.47571796,0.36787367,-0.23287246
321,1436980339916,-0.4537268,0.42376783,-0.18247607
322,1436980339936,-0.4274596,0.37734208,-0.14551872
323,1436980339956,-0.40149784,0.27196783,-0.09726037
324,1436980339976,-0.42684874,0.14215897,-0.15376541
325,1436980339996,-0.47480166,0.111615695,-0.30403826
326,1436980340032,-0.47846687,0.07679638,-0.5037912
327,1436980340043,-0.45219964,-0.046903826,-0.6409304
328,1436980340056,-0.40607932,-0.11898593,-0.72339725
329,1436980340076,-0.3422439,-0.13059236,-0.68399644
330,1436980340096,-0.2860443,-0.11409901,-0.6030568
331,1436980340116,-0.24420002,-0.1254,-0.5673212
332,1436980340136,-0.2234306,-0.18282135,-0.52517146
333,1436980340156,-0.20388293,-0.23902094,-0.48760328
334,1436980340176,-0.18464068,-0.2881956,-0.45675457
335,1436980340196,-0.1513485,-0.32790184,-0.40513647
336,1436980340217,-0.1382149,-0.39601332,-0.3303055
337,1436980340236,-0.15837346,-0.4723715,-0.25547448
338,1436980340256,-0.2551956,-0.5120777,-0.11741893
339,1436980340276,-0.39508376,-0.5575872,-0.008990347
340,1436980340296,-0.54169136,-0.6070673,0.0068921484
341,1436980340316,-0.66661334,-0.6024858,-0.08382134
342,1436980340336,-0.72434014,-0.48489422,-0.15804148
343,1436980340356,-0.7539671,-0.36455378,-0.18247607
344,1436980340376,-0.7490802,-0.23138513,-0.16750988
345,1436980340396,-0.7197586,-0.16999318,-0.11589176
346,1436980340416,-0.68921536,-0.16418995,-0.099398404
347,1436980340436,-0.6611156,-0.17274207,-0.12688734
348,1436980340456,-0.6217148,-0.18404306,-0.15804148
349,1436980340476,-0.5716238,-0.19381692,-0.20294008
350,1436980340512,-0.48304835,-0.19839841,-0.23470506
351,1436980340516,-0.37920126,-0.1956495,-0.21698996
352,1436980340537,-0.26802376,-0.14616942,-0.16262296
353,1436980340557,-0.18647325,-0.09852195,-0.107950516
354,1436980340576,-0.09270544,-0.0719493,-0.022429382
355,1436980340596,-0.021539643,-0.041711476,0.043849498
356,1436980340616,0.015723139,-0.016055133,0.041711472
357,1436980340636,0.044433802,0.009295774,-0.00929578
358,1436980340657,0.06306519,0.046558555,-0.08168331
359,1436980340676,0.07925312,0.07007686,-0.1968314
360,1436980340696,0.1033823,0.10153642,-0.27685475
361,1436980340716,0.13881248,0.119862385,-0.2838797
362,1436980340740,0.18218392,0.11497546,-0.24417347
363,1436980340760,0.21639237,0.086570226,-0.20935416
364,1436980340778,0.25640404,0.060913887,-0.1788109
365,1436980340797,0.2759517,0.0154044265,-0.18033805
366,1436980340925,0.27350825,-0.025523545,-0.18125436
367,1436980340926,0.25762576,-0.049958155,-0.13696662
368,1436980340927,0.2475465,-0.027661573,-0.12291671
369,1436980340928,0.23410746,0.008684908,-0.11283744
370,1436980340932,0.22708249,0.0563324,-0.08259961
371,1436980340933,0.24143785,0.10031469,-0.04778029
372,1436980340942,0.2579312,0.10153642,-0.047474857
373,1436980340957,0.2646507,0.08718109,-0.028843466
374,1436980340977,0.2643453,0.08290503,-0.02334568
375,1436980340997,0.24327043,0.09481691,-0.12536018
376,1436980341017,0.2130326,0.1265819,-0.17453483
377,1436980341037,0.19562295,0.15223825,-0.14674047
