id,attr_time,attr_x,attr_y,attr_z
1,1436619017617,0.61171854,10.03769,-1.4083891
2,1436619017637,0.61052144,10.043676,-1.4257472
3,1436619017655,0.57640404,10.037092,-1.4377182
4,1436619017677,0.59855044,10.056845,-1.4239515
5,1436619017700,0.56922144,10.053253,-1.4167689
6,1436619017717,0.5847838,10.035895,-1.3946224
7,1436619017736,0.60573304,10.029909,-1.4173675
8,1436619017755,0.587178,10.028712,-1.4389153
9,1436619017776,0.6015432,10.061034,-1.4155718
10,1436619017794,0.5931635,10.041881,-1.4197617
11,1436619017815,0.5770026,10.049662,-1.407192
12,1436619017835,0.599149,10.0664215,-1.4251486
13,1436619017856,0.59017074,10.015544,-1.4329298
14,1436619017876,0.55964464,10.03769,-1.4395138
15,1436619017932,0.6194997,10.027515,-1.3988123
16,1436619017933,0.59136784,10.03769,-1.4251486
17,1436619017947,0.59256494,10.043676,-1.4036007
18,1436619017955,0.57520694,10.04607,-1.417966
19,1436619017975,0.6099229,10.039486,-1.4107834
20,1436619017996,0.6039374,10.047866,-1.3970166
21,1436619018015,0.581791,10.049662,-1.401805
22,1436619018036,0.59615624,10.049063,-1.4065934
23,1436619018055,0.59974754,10.036493,-1.4012065
24,1436619018078,0.5931635,10.043077,-1.407192
25,1436619018096,0.61171854,10.032902,-1.4143747
26,1436619018118,0.587178,10.062231,-1.3922282
27,1436619018136,0.55844754,10.045472,-1.3904326
28,1436619018156,0.59855044,10.047267,-1.3880384
29,1436619018178,0.59855044,10.029311,-1.4143747
30,1436619018198,0.6027403,10.05445,-1.4047978
31,1436619018218,0.599149,10.023325,-1.4012065
32,1436619018238,0.5793968,10.0269165,-1.3982137
33,1436619018258,0.581791,10.048465,-1.3808558
34,1436619018276,0.5710171,10.050261,-1.3868413
35,1436619018298,0.62009823,10.049662,-1.3868413
36,1436619018316,0.58298814,10.043676,-1.400608
37,1436619018336,0.61650693,10.050261,-1.4149733
38,1436619018358,0.5847838,10.064027,-1.4059949
39,1436619018376,0.5805939,10.053253,-1.3784616
40,1436619018396,0.59256494,10.056246,-1.3802572
41,1436619018416,0.58418524,10.018537,-1.3820529
42,1436619018439,0.62129533,10.046669,-1.3976152
43,1436619018459,0.5847838,10.035296,-1.3928268
44,1436619018479,0.55246204,10.037092,-1.3934253
45,1436619018498,0.59256494,10.044274,-1.4041992
46,1436619018515,0.5847838,10.037092,-1.417966
47,1436619018536,0.6039374,10.042479,-1.4030021
48,1436619018556,0.58538234,10.028712,-1.3874398
49,1436619018576,0.6183026,10.041282,-1.3970166
50,1436619018596,0.6183026,10.0341,-1.3928268
51,1436619018673,0.5943606,10.040684,-1.3814543
52,1436619018677,0.6218939,10.048465,-1.3826514
53,1436619018678,0.61171854,10.035296,-1.389834
54,1436619018680,0.57520694,10.04607,-1.3934253
55,1436619018698,0.58298814,10.034698,-1.4065934
56,1436619018719,0.60932434,10.02572,-1.3928268
57,1436619018741,0.60333884,10.049063,-1.4030021
58,1436619018755,0.57999533,10.053851,-1.3652935
59,1436619018784,0.59017074,10.039486,-1.3946224
60,1436619018795,0.59735334,10.06283,-1.4047978
61,1436619018817,0.6027403,10.043676,-1.4191631
62,1436619018843,0.5722142,10.032902,-1.3994108
63,1436619018856,0.54767364,10.037092,-1.388637
64,1436619018879,0.5883751,10.040684,-1.3748703
65,1436619018899,0.5823896,10.0508585,-1.4131776
66,1436619018919,0.6063316,10.038289,-1.4041992
67,1436619018939,0.57520694,10.059238,-1.4036007
68,1436619018959,0.5566519,10.03769,-1.4119805
69,1436619018976,0.56682724,10.044274,-1.4053963
70,1436619018999,0.56922144,10.049063,-1.395221
71,1436619019019,0.57041854,10.056246,-1.3760674
72,1436619019039,0.56802434,10.044873,-1.4131776
73,1436619019059,0.57760113,10.049063,-1.4101849
74,1436619019077,0.57041854,10.0508585,-1.4209588
75,1436619019099,0.5770026,10.038289,-1.4221559
76,1436619019119,0.5566519,10.038888,-1.3826514
77,1436619019139,0.5614403,10.038289,-1.4131776
78,1436619019159,0.56563014,10.055647,-1.3988123
79,1436619019178,0.57400984,10.04607,-1.3964181
80,1436619019198,0.58657944,10.05445,-1.4137762
81,1436619019219,0.5847838,10.049063,-1.4149733
82,1436619019239,0.5770026,10.049662,-1.400608
83,1436619019259,0.55605334,10.044274,-1.4077905
84,1436619019278,0.533907,10.03769,-1.4395138
85,1436619019298,0.54408234,10.052654,-1.395221
86,1436619019318,0.5410896,10.047866,-1.417966
87,1436619019338,0.5398925,10.035296,-1.4407109
88,1436619019356,0.54288524,10.040684,-1.4257472
89,1436619019401,0.545878,10.040085,-1.4466964
90,1436619019402,0.5398925,10.028113,-1.4311341
91,1436619019416,0.55246204,10.020931,-1.436521
92,1436619019437,0.52852005,10.059837,-1.4251486
93,1436619019456,0.557849,10.0664215,-1.4030021
94,1436619019476,0.54887074,10.043077,-1.4454993
95,1436619019496,0.5758055,10.032304,-1.4065934
96,1436619019518,0.55844754,10.02153,-1.4089876
97,1436619019537,0.52612585,10.025121,-1.3958195
98,1436619019558,0.56563014,10.038289,-1.4095862
99,1436619019576,0.5710171,10.047267,-1.417966
100,1436619019599,0.5255273,10.059837,-1.436521
101,1436619019616,0.5267244,10.062231,-1.4622587
102,1436619019639,0.54647654,10.038289,-1.4239515
103,1436619019656,0.56323594,10.057443,-1.4203602
104,1436619019679,0.57640404,10.034698,-1.400608
105,1436619019697,0.557849,10.031705,-1.4149733
106,1436619019719,0.53330845,10.038289,-1.4095862
107,1436619019736,0.5482722,10.038289,-1.4137762
108,1436619019757,0.56323594,10.059837,-1.4155718
109,1436619019780,0.5386954,10.044873,-1.4413095
110,1436619019797,0.51475334,10.044274,-1.4269443
111,1436619019820,0.5662287,10.059837,-1.4431051
112,1436619019840,0.54408234,10.024523,-1.42455
113,1436619019859,0.55485624,10.045472,-1.4131776
114,1436619019880,0.52852005,10.042479,-1.4119805
115,1436619019898,0.55605334,10.031705,-1.3958195
116,1436619019919,0.5662287,10.044274,-1.4161704
117,1436619019939,0.55485624,10.042479,-1.4293385
118,1436619019960,0.5446809,10.070611,-1.4502877
119,1436619019980,0.53091425,10.049662,-1.4395138
120,1436619019999,0.53211135,10.047866,-1.4341269
121,1436619020019,0.54647654,10.031107,-1.4311341
122,1436619020043,0.5506664,10.038888,-1.4359225
123,1436619020112,0.54647654,10.041881,-1.4407109
124,1436619020113,0.54408234,10.041881,-1.4155718
125,1436619020114,0.55844754,10.045472,-1.4083891
126,1436619020126,0.56084174,10.047866,-1.4389153
127,1436619020221,0.5626374,10.029311,-1.4520833
128,1436619020222,0.5410896,10.032902,-1.4209588
129,1436619020223,0.5674258,10.055049,-1.4137762
130,1436619020224,0.5518635,10.051457,-1.4185646
131,1436619020225,0.54527944,10.051457,-1.4149733
132,1436619020238,0.56443304,10.040085,-1.4095862
133,1436619020263,0.5686229,10.027515,-1.4203602
134,1436619020277,0.5566519,10.040684,-1.4185646
135,1436619020297,0.5626374,10.035895,-1.4119805
136,1436619020317,0.54049104,10.064626,-1.4119805
137,1436619020337,0.5303157,10.052654,-1.4131776
138,1436619020358,0.55605334,10.049063,-1.4269443
139,1436619020377,0.54527944,10.038289,-1.4024036
140,1436619020397,0.6039374,10.042479,-1.411382
141,1436619020421,0.5542577,10.039486,-1.3964181
142,1436619020440,0.5650316,10.036493,-1.4143747
143,1436619020457,0.5470751,10.05445,-1.407192
144,1436619020477,0.5650316,10.044274,-1.4036007
145,1436619020498,0.57520694,10.059837,-1.4293385
146,1436619020518,0.56563014,10.024523,-1.3790601
147,1436619020537,0.5859809,10.05445,-1.3820529
148,1436619020558,0.5386954,10.033501,-1.4024036
149,1436619020576,0.59974754,10.017939,-1.4209588
150,1436619020599,0.56084174,10.032304,-1.4293385
151,1436619020620,0.5835867,10.043676,-1.4143747
152,1436619020638,0.55844754,10.044274,-1.4000094
153,1436619020658,0.57281274,10.03769,-1.4101849
154,1436619020680,0.56682724,10.059837,-1.4107834
155,1436619020701,0.599149,10.049063,-1.4036007
156,1436619020721,0.5793968,10.033501,-1.407192
157,1436619020741,0.5805939,10.040085,-1.4263457
158,1436619020761,0.59376204,10.050261,-1.3904326
159,1436619020781,0.5967548,10.031107,-1.4251486
160,1436619020800,0.5482722,10.056246,-1.4041992
161,1436619020817,0.55246204,10.047267,-1.3922282
162,1436619020844,0.5931635,10.047866,-1.4041992
163,1436619020883,0.61291564,10.040085,-1.3964181
164,1436619020884,0.58657944,10.031107,-1.3988123
165,1436619020897,0.61052144,10.052056,-1.3994108
166,1436619020918,0.59974754,10.020931,-1.401805
167,1436619020936,0.5979519,10.029909,-1.3826514
168,1436619020956,0.61530983,10.036493,-1.3940239
169,1436619020976,0.5979519,10.02572,-1.3940239
170,1436619020996,0.60573304,10.016143,-1.4036007
171,1436619021016,0.61530983,10.029909,-1.4107834
172,1436619021036,0.62249243,10.043676,-1.417966
173,1436619021056,0.5859809,10.038289,-1.412579
174,1436619021076,0.6266823,10.030508,-1.3982137
175,1436619021096,0.59017074,10.034698,-1.4425066
176,1436619021117,0.62728083,10.023924,-1.4167689
177,1436619021137,0.58538234,10.044274,-1.4251486
178,1436619021157,0.55365914,10.05445,-1.4047978
179,1436619021177,0.6332663,10.052654,-1.411382
180,1436619021202,0.5835867,10.058042,-1.4227544
181,1436619021219,0.5847838,10.058042,-1.395221
182,1436619021238,0.6147113,10.036493,-1.4239515
183,1436619021259,0.6194997,10.010756,-1.4287399
184,1436619021280,0.5919664,10.023325,-1.4197617
185,1436619021298,0.61650693,10.018537,-1.3904326
186,1436619021320,0.5883751,10.057443,-1.4383167
187,1436619021341,0.6147113,10.061633,-1.4030021
188,1436619021361,0.587178,10.031107,-1.3874398
189,1436619021381,0.6607997,10.063428,-1.4359225
190,1436619021398,0.5919664,10.022727,-1.4221559
191,1436619021419,0.6290765,10.030508,-1.4281414
192,1436619021440,0.60932434,10.045472,-1.3946224
193,1436619021505,0.6171055,10.019734,-1.4143747
194,1436619021506,0.61890113,10.036493,-1.429937
195,1436619021507,0.57879823,10.036493,-1.441908
196,1436619021518,0.5626374,10.0508585,-1.4293385
197,1436619021538,0.55605334,10.024523,-1.4323312
198,1436619021559,0.6374562,10.041881,-1.4730326
199,1436619021590,0.59495914,10.013748,-1.4568717
200,1436619021598,0.5674258,10.038888,-1.4389153
201,1436619021619,0.5602432,10.038289,-1.4089876
202,1436619021644,0.59376204,10.020931,-1.4107834
203,1436619021659,0.6422446,10.029909,-1.3724761
204,1436619021681,0.6452374,10.028113,-1.411382
205,1436619021698,0.9295488,10.1621895,-1.240795
206,1436619021722,0.7715315,10.146626,-1.3204023
207,1436619021742,0.59974754,10.090961,-1.3293805
208,1436619021761,0.5033809,10.081385,-1.5173253
209,1436619021782,0.25558102,10.081984,-1.5861586
210,1436619021802,0.7092823,10.183737,-1.5400703
211,1436619021822,0.40821138,10.063428,-1.6244658
212,1436619021842,0.35075054,10.03769,-1.6017209
213,1436619021863,0.37828386,10.057443,-1.4838065
214,1436619021878,0.57520694,10.043077,-1.3736732
215,1436619021902,0.66379243,10.004171,-1.4371196
216,1436619021922,0.7272388,9.98442,-1.3623008
217,1436619021941,0.58897364,9.988011,-1.477821
218,1436619021961,0.5243302,10.111312,-1.3497312
219,1436619021981,0.41838676,10.180744,-1.4203602
220,1436619022001,0.49200845,10.159795,-1.429937
221,1436619022022,0.48243165,10.167576,-1.4257472
222,1436619022041,0.3477578,10.180744,-1.395221
223,1436619022062,0.28072014,10.292673,-1.4413095
224,1436619022083,0.2681506,10.420164,-1.4550761
225,1436619022102,0.0017956513,10.494983,-1.5406688
226,1436619022122,-0.08319851,10.664372,-1.6412252
227,1436619022142,-0.037708677,10.87207,-1.5993267
228,1436619022192,-0.14604631,11.249157,-1.5921441
229,1436619022193,-0.6721721,11.944074,-1.7645266
230,1436619022201,-1.0618285,12.506113,-2.0679917
231,1436619022219,-1.5352819,12.963405,-1.970428
232,1436619022242,-1.520318,13.80377,-1.1510124
233,1436619022259,-2.3050177,14.069527,-0.65421563
234,1436619022279,-2.160767,13.412318,-0.83378077
235,1436619022304,0.36391866,12.882002,-2.5498247
236,1436619022320,5.4504004,14.392743,-1.9883845
237,1436619022340,10.192117,17.113754,1.2431892
238,1436619022359,14.231733,16.656462,5.0421886
239,1436619022379,10.384252,16.876728,1.8016368
240,1436619022400,5.231331,13.3704195,1.4706384
241,1436619022422,4.1599255,10.866683,1.774702
242,1436619022442,0.9259575,8.38629,1.270124
243,1436619022462,-0.88765025,6.0106435,0.64463884
244,1436619022482,-2.2732944,4.337695,0.02932897
245,1436619022502,-3.157952,3.0238767,-0.2208651
246,1436619022522,-3.8379054,1.7986441,-1.0749966
247,1436619022542,-4.1120415,1.0486604,-1.4820108
248,1436619022562,-3.6373909,0.98461545,-1.5969325
249,1436619022582,-2.8377275,1.2569559,-1.453879
250,1436619022603,-1.5065514,1.8273745,-0.96785605
251,1436619022619,-0.57520694,2.4438813,0.25258827
252,1436619022642,0.8912416,3.7582982,1.8106151
253,1436619022663,2.9951463,6.213552,2.7281928
254,1436619022682,5.2115784,8.793304,4.329315
255,1436619022702,7.991845,12.142793,5.4162827
256,1436619022723,8.9842415,13.038822,6.2063694
257,1436619022742,15.784972,9.973047,10.943297
258,1436619022763,19.607914,19.608511,9.763555
259,1436619022783,-19.504963,-2.7461493,-1.951873
260,1436619022803,-11.572972,17.900848,-13.44883
261,1436619022823,18.316242,8.623316,7.9714947
262,1436619022843,5.213374,4.8177323,2.8491
263,1436619022862,8.65025,1.9578584,2.4474726
264,1436619022882,10.857705,7.377134,2.8161798
265,1436619022934,0.28491,16.06629,-2.4343045
266,1436619022935,-0.39324763,18.684948,0.81343
267,1436619022953,2.0153193,8.564059,1.8734628
268,1436619022959,6.3985043,8.103774,1.2886791
269,1436619022980,2.180519,10.12448,0.34596214
270,1436619023001,4.1695023,10.078991,0.29987377
271,1436619023020,5.704784,9.660604,0.16340427
272,1436619023039,3.6194344,10.272921,0.25019407
273,1436619023062,2.7928362,10.335769,0.54527944
274,1436619023082,3.0214825,9.997588,0.60693014
275,1436619023103,2.8520927,9.86471,0.5009867
276,1436619023120,2.6378117,10.011953,-0.19692309
277,1436619023144,3.2980127,9.504382,-0.23582886
278,1436619023163,3.435081,9.347562,-0.43754035
279,1436619023183,2.5264814,9.64564,-0.75956047
280,1436619023203,1.5945383,10.218452,-1.934515
281,1436619023223,1.3838485,9.886856,-1.927931
282,1436619023243,0.5069722,9.701305,-1.4915876
283,1436619023263,0.59376204,9.877877,-2.2864625
284,1436619023283,0.8750807,9.676167,-2.2697031
285,1436619023303,1.2743138,9.703101,-2.5234885
286,1436619023323,0.7098808,9.730036,-2.52289
287,1436619023339,0.53211135,10.7356,-2.5133133
288,1436619023363,0.48482585,10.777499,-2.8137856
289,1436619023383,0.29688102,10.704475,-2.5773582
290,1436619023402,1.9788077,11.938088,-2.0219033
291,1436619023423,1.988983,12.421717,-1.3946224
292,1436619023443,1.122282,13.969568,-0.88765025
293,1436619023463,0.38845924,15.148114,-0.3274071
294,1436619023483,-1.608305,16.389507,-1.7932571
295,1436619023503,-3.643975,16.950949,-4.3885717
296,1436619023524,-6.066907,16.200365,-6.559514
297,1436619023544,-8.423999,12.961011,-8.510789
298,1436619023564,-0.8631097,15.403096,-6.908469
299,1436619023582,6.6600704,19.077,-6.1626754
300,1436619023601,9.570223,19.608511,-2.0135236
301,1436619023663,12.663531,19.608511,2.369661
302,1436619023674,10.220248,19.608511,1.7561469
303,1436619023675,3.6326025,17.625515,1.3521254
304,1436619023685,-0.17537527,13.654132,-0.23642741
305,1436619023704,-3.8271315,9.266159,-1.4203602
306,1436619023725,-1.7369933,4.9242744,-1.6986861
307,1436619023740,-1.050456,1.7633295,-1.6992847
308,1436619023760,-3.5978866,-0.5955577,-1.7968484
309,1436619023783,-4.5394063,-1.4652514,-2.8245595
310,1436619023801,-3.3806129,-2.5821466,-2.408567
311,1436619023822,-3.067571,-3.2070332,-1.7304093
312,1436619023840,-3.0783448,-3.6876693,-1.3706805
313,1436619023864,-1.5059528,-3.301604,-0.17238252
314,1436619023884,1.7489643,-2.8245595,2.2164323
315,1436619023904,7.753622,-0.7218518,4.0934863
316,1436619023924,11.701062,3.4674027,6.1985884
317,1436619023944,15.172655,5.0667295,9.454104
318,1436619023964,19.2829,3.318962,11.719617
319,1436619023982,19.607914,2.5354595,10.8385515
320,1436619024006,19.607914,11.44189,0.16699557
321,1436619024040,-15.8861265,15.729905,-2.1888988
322,1436619024046,-4.367024,19.608511,-3.9564183
323,1436619024060,5.963358,12.177508,7.000047
324,1436619024080,7.430405,2.7030537,0.74758947
325,1436619024100,9.218874,6.8851256,3.1585505
326,1436619024122,1.4742297,11.45027,2.3636756
327,1436619024143,3.3662477,10.616488,0.878672
328,1436619024163,5.449203,10.572795,0.44113165
329,1436619024184,3.116652,11.795034,0.049081136
330,1436619024204,3.152565,10.943896,-0.33039984
331,1436619024225,3.6391866,9.909002,-0.4878186
332,1436619024243,3.144784,10.361506,-1.127669
333,1436619024262,2.297835,10.693104,-1.4137762
334,1436619024283,1.3664906,10.357915,-1.7142484
335,1436619024303,0.8798691,9.534908,-1.8561049
336,1436619024322,2.1517887,8.977059,-1.8195933
337,1436619024342,2.5570073,9.269751,-0.45848963
338,1436619024403,0.682946,9.090185,-1.543063
339,1436619024404,-0.8002619,9.235633,-3.1268275
340,1436619024405,-1.2455834,9.358934,-3.9085343
341,1436619024423,-0.088585466,10.019135,-3.788824
342,1436619024443,1.4443022,11.798027,-1.6968905
343,1436619024463,-0.04070143,13.123219,-1.2054806
344,1436619024481,-2.0799627,12.8610525,-3.2860417
345,1436619024506,-0.91458505,13.160328,-3.0214825
346,1436619024522,0.15322891,14.950592,-0.7517793
347,1436619024542,-0.87089086,16.215929,-1.0714053
348,1436619024562,-3.6709096,17.09879,-2.6641479
349,1436619024581,-7.138911,16.897676,-6.6630635
350,1436619024604,-8.480263,14.205398,-9.901221
351,1436619024624,-5.016451,15.300146,-9.897031
352,1436619024641,3.819949,19.29966,-11.337742
353,1436619024664,8.130709,19.608511,-3.6337996
354,1436619024684,13.153744,19.608511,4.6441526
355,1436619024740,15.564107,19.608511,2.5510218
356,1436619024742,7.1706343,19.224243,-0.31364042
357,1436619024743,-3.0573955,12.765285,0.2657564
358,1436619024761,-8.104971,7.4788876,-1.377863
359,1436619024781,-4.2515035,1.83336,-1.5975311
360,1436619024801,-5.0517654,-2.5605986,-1.3934253
361,1436619024822,-4.896741,-3.0765493,-1.6316484
362,1436619024841,-3.876811,-2.2284033,-1.9015948
363,1436619024885,-3.3800142,-3.1651347,-0.8331822
364,1436619024886,-2.119467,-2.8862102,-0.7038953
365,1436619024901,-0.1592144,-3.1950622,1.0809821
366,1436619024922,4.27365,-3.7062242,2.3415294
367,1436619024942,14.384962,-1.3503298,6.066907
368,1436619024961,16.472706,1.7040731,8.556877
369,1436619024982,18.298883,-0.9804256,12.361263
370,1436619025001,16.320675,-2.3307555,12.233772
371,1436619025022,19.607914,9.86471,1.4514848
372,1436619025041,-14.1664915,19.55524,-3.5978866
373,1436619025062,-4.3299136,19.608511,-3.1914709
374,1436619025104,8.942344,13.612832,8.15106
375,1436619025105,5.964555,2.297835,0.61112
376,1436619025129,7.724293,6.3661823,2.0578163
377,1436619025164,3.8139634,10.305841,1.9806033
378,1436619025165,3.5332432,11.550826,-0.11791443
379,1436619025231,4.5657425,11.855488,-0.49320555
380,1436619025232,3.9019501,11.104906,0.03172317
381,1436619025233,3.321955,10.247183,0.38965634
382,1436619025246,3.4596214,9.224859,-0.31902736
383,1436619025263,3.940856,9.759963,-1.2114661
384,1436619025282,2.9239187,10.250774,-1.9009962
385,1436619025302,2.4570496,10.5285015,-1.6819267
386,1436619025325,1.5837644,9.772532,-1.1216835
387,1436619025342,1.2557588,9.312247,-0.878672
388,1436619025362,0.7846996,9.069236,-1.4401124
389,1436619025387,1.6741456,9.013571,-0.83258367
390,1436619025402,1.3874398,8.838196,-1.0737995
391,1436619025425,0.7218518,9.040505,-2.4438813
392,1436619025445,0.43993455,9.560047,-3.1519666
393,1436619025471,1.0498575,10.156203,-2.432509
394,1436619025482,0.9498995,10.884041,-2.0093338
395,1436619025501,0.95708215,11.741165,-1.7776948
396,1436619025523,1.3599066,12.438477,-1.2946646
397,1436619025542,0.3393781,12.682086,-1.3401544
398,1436619025563,-0.5231331,13.642161,-1.6699557
399,1436619025581,-1.0737995,14.577696,-2.0829554
400,1436619025603,-1.5777789,15.724518,-2.066196
401,1436619025623,-4.1665096,16.524181,-4.2503066
402,1436619025644,-8.508394,16.188993,-7.589619
403,1436619025663,-7.394492,14.536396,-9.009381
404,1436619025687,-2.1092918,17.737444,-8.062474
405,1436619025704,5.535993,19.245192,-7.3777328
406,1436619025722,7.2484455,18.999187,-3.7780502
407,1436619025744,9.097368,19.608511,4.7734394
408,1436619025764,13.495517,19.608511,2.8455088
409,1436619025786,7.3406224,16.60738,1.7058687
410,1436619025806,1.1246762,12.055404,0.9475053
