id,attr_time,attr_x,attr_y,attr_z
1,1436619017603,-0.66738373,9.545084,-0.2148796
2,1436619017624,-0.6655881,9.560047,-0.22146365
3,1436619017644,-0.6619968,9.562442,-0.20709845
4,1436619017664,-0.641646,9.558251,-0.23283611
5,1436619017683,-0.6757634,9.559449,-0.23463176
6,1436619017705,-0.6805518,9.561244,-0.17836803
7,1436619017725,-0.6847417,9.574412,-0.18195933
8,1436619017745,-0.6787562,9.552266,-0.20051439
9,1436619017765,-0.6404489,9.555259,-0.23702596
10,1436619017783,-0.6398504,9.536105,-0.23104046
11,1436619017802,-0.6290765,9.572019,-0.23163901
12,1436619017825,-0.65182143,9.592968,-0.22744916
13,1436619017842,-0.6655881,9.570223,-0.22744916
14,1436619017862,-0.6865373,9.560646,-0.23343466
15,1436619017883,-0.7170634,9.5732155,-0.24720132
16,1436619017907,-0.7158663,9.573814,-0.23223756
17,1436619017927,-0.6691794,9.582193,-0.2124854
18,1436619017948,-0.635062,9.555858,-0.19393034
19,1436619017965,-0.6051345,9.567828,-0.20530279
20,1436619017984,-0.58538234,9.531317,-0.22026655
21,1436619018002,-0.6051345,9.55885,-0.22325931
22,1436619018022,-0.6452374,9.55885,-0.2172738
23,1436619018044,-0.6835446,9.566033,-0.23523031
24,1436619018067,-0.7104794,9.572617,-0.25677812
25,1436619018125,-0.705691,9.574412,-0.18195933
26,1436619018126,-0.6733692,9.583391,-0.19812019
27,1436619018127,-0.6368576,9.560646,-0.25617957
28,1436619018182,-0.58777654,9.540296,-0.22924481
29,1436619018183,-0.58119243,9.549872,-0.28191724
30,1436619018184,-0.6099229,9.560646,-0.23044191
31,1436619018222,-0.6362591,9.5798,-0.24361002
32,1436619018223,-0.64703304,9.546281,-0.219668
33,1436619018252,-0.6667852,9.559449,-0.21547815
34,1436619018267,-0.6434417,9.5732155,-0.23463176
35,1436619018282,-0.6500258,9.568427,-0.21547815
36,1436619018335,-0.6422446,9.5492735,-0.26515785
37,1436619018366,-0.64463884,9.562442,-0.24600422
38,1436619018367,-0.65062433,9.598354,-0.24241292
39,1436619018368,-0.688333,9.565434,-0.25258827
40,1436619018386,-0.6865373,9.555259,-0.22026655
41,1436619018405,-0.6877344,9.542689,-0.20410569
42,1436619018425,-0.6631939,9.582792,-0.19393034
43,1436619018445,-0.6362591,9.559449,-0.22744916
44,1436619018465,-0.60573304,9.568427,-0.24001873
45,1436619018485,-0.6242881,9.591172,-0.23582886
46,1436619018506,-0.6278794,9.564836,-0.22804771
47,1436619018525,-0.6739678,9.584588,-0.23942018
48,1436619018545,-0.6847417,9.534309,-0.23942018
49,1436619018565,-0.6607997,9.543288,-0.25258827
50,1436619018585,-0.62249243,9.566033,-0.25917232
51,1436619018605,-0.60453594,9.591172,-0.22565351
52,1436619018626,-0.6027403,9.540296,-0.2220622
53,1436619018642,-0.60932434,9.547478,-0.23942018
54,1436619018665,-0.65062433,9.554661,-0.22505496
55,1436619018683,-0.6793547,9.572617,-0.22625206
56,1436619018703,-0.6793547,9.575011,-0.20290859
57,1436619018723,-0.6410475,9.575011,-0.23104046
58,1436619018746,-0.6338649,9.566033,-0.23882163
59,1436619018766,-0.641646,9.561843,-0.24301147
60,1436619018785,-0.62847793,9.578004,-0.23403321
61,1436619018805,-0.61770403,9.560047,-0.23044191
62,1436619018824,-0.6356605,9.576208,-0.22744916
63,1436619018844,-0.65660983,9.564238,-0.24121583
64,1436619018864,-0.641646,9.57142,-0.22804771
65,1436619018885,-0.59615624,9.5570545,-0.24839842
66,1436619018910,-0.6404489,9.545084,-0.25019407
67,1436619018975,-0.65242,9.587581,-0.2172738
68,1436619018976,-0.66618663,9.569624,-0.2124854
69,1436619018977,-0.65301853,9.568427,-0.23822308
70,1436619018992,-0.61650693,9.578004,-0.24480712
71,1436619019003,-0.6063316,9.567828,-0.23942018
72,1436619019027,-0.6607997,9.563639,-0.23582886
73,1436619019043,-0.6584055,9.582792,-0.23582886
74,1436619019063,-0.62728083,9.570223,-0.23822308
75,1436619019084,-0.60693014,9.518148,-0.22625206
76,1436619019103,-0.65780693,9.559449,-0.20829555
77,1436619019123,-0.6865373,9.555858,-0.2100912
78,1436619019144,-0.6679823,9.576208,-0.17178397
79,1436619019165,-0.6823475,9.566631,-0.19991584
80,1436619019186,-0.66139823,9.552266,-0.24181437
81,1436619019207,-0.66259533,9.564238,-0.2813187
82,1436619019224,-0.6410475,9.587581,-0.22385786
83,1436619019245,-0.6278794,9.532514,-0.19991584
84,1436619019266,-0.5943606,9.533113,-0.23044191
85,1436619019286,-0.6051345,9.536105,-0.24720132
86,1436619019303,-0.641646,9.589975,-0.22445641
87,1436619019325,-0.6619968,9.572019,-0.20231004
88,1436619019348,-0.6745663,9.578603,-0.18914193
89,1436619019371,-0.66498953,9.561843,-0.2172738
90,1436619019383,-0.6488287,9.56304,-0.22924481
91,1436619019404,-0.65900403,9.585187,-0.23104046
92,1436619019430,-0.6536171,9.585785,-0.22685061
93,1436619019444,-0.6422446,9.555858,-0.21906945
94,1436619019465,-0.664391,9.576807,-0.19752164
95,1436619019483,-0.66738373,9.558251,-0.20709845
96,1436619019531,-0.6835446,9.539697,-0.23403321
97,1436619019532,-0.7009025,9.572617,-0.24001873
98,1436619019543,-0.65421563,9.582193,-0.18674773
99,1436619019563,-0.6344634,9.551069,-0.20051439
100,1436619019583,-0.66379243,9.560047,-0.24480712
101,1436619019603,-0.7009025,9.5492735,-0.22146365
102,1436619019623,-0.7272388,9.574412,-0.17357962
103,1436619019643,-0.7182605,9.56723,-0.15143326
104,1436619019663,-0.6841431,9.573814,-0.16220717
105,1436619019695,-0.670975,9.554661,-0.21547815
106,1436619019704,-0.65660983,9.560646,-0.22445641
107,1436619019723,-0.62129533,9.554062,-0.1933318
108,1436619019743,-0.66259533,9.552865,-0.2112883
109,1436619019767,-0.705691,9.578603,-0.25498247
110,1436619019783,-0.7152678,9.56304,-0.18136078
111,1436619019804,-0.6859388,9.5385,-0.15562311
112,1436619019823,-0.6548142,9.554661,-0.2208651
113,1436619019847,-0.6171055,9.556456,-0.25258827
114,1436619019863,-0.6362591,9.560047,-0.20949265
115,1436619019883,-0.6727707,9.564238,-0.23104046
116,1436619019903,-0.6811504,9.566631,-0.20829555
117,1436619019923,-0.74758947,9.561843,-0.16519992
118,1436619019943,-0.7433996,9.560646,-0.12030864
119,1436619019963,-0.75716627,9.580399,-0.15682021
120,1436619019983,-0.7332243,9.576807,-0.207697
121,1436619020003,-0.6943185,9.537901,-0.19153613
122,1436619020023,-0.6769605,9.560646,-0.207697
123,1436619020043,-0.7020996,9.576807,-0.24720132
124,1436619020063,-0.7032967,9.558251,-0.23762453
125,1436619020083,-0.6913257,9.549872,-0.15981296
126,1436619020103,-0.7469909,9.585187,-0.16938977
127,1436619020123,-0.7284359,9.572019,-0.16400282
128,1436619020144,-0.6931214,9.542689,-0.14724341
129,1436619020164,-0.6895301,9.5385,-0.19692309
130,1436619020184,-0.7236475,9.542689,-0.18674773
131,1436619020203,-0.7044938,9.533113,-0.21188685
132,1436619020223,-0.7386112,9.547478,-0.17357962
133,1436619020243,-0.7206547,9.593566,-0.13108255
134,1436619020263,-0.6865373,9.576807,-0.15502456
135,1436619020286,-0.6931214,9.583391,-0.21547815
136,1436619020304,-0.7086837,9.572617,-0.22385786
137,1436619020325,-0.712275,9.548675,-0.16400282
138,1436619020343,-0.7272388,9.527725,-0.1604115
139,1436619020396,-0.7038953,9.551069,-0.21906945
140,1436619020397,-0.6889315,9.561843,-0.19871874
141,1436619020406,-0.6703765,9.566033,-0.13706805
142,1436619020425,-0.7044938,9.566631,-0.13826515
143,1436619020444,-0.6877344,9.569026,-0.20350714
144,1436619020464,-0.6925228,9.568427,-0.20171149
145,1436619020483,-0.6655881,9.542689,-0.22146365
146,1436619020505,-0.66858083,9.549872,-0.22026655
147,1436619020523,-0.7098808,9.542689,-0.2693477
148,1436619020545,-0.7428011,9.570223,-0.21667525
149,1436619020568,-0.7146692,9.566033,-0.16460137
150,1436619020588,-0.6991069,9.53012,-0.2220622
151,1436619020604,-0.6781576,9.573814,-0.22864626
152,1436619020628,-0.729633,9.583989,-0.1945289
153,1436619020648,-0.7015011,9.582193,-0.19692309
154,1436619020668,-0.6799533,9.543886,-0.19931729
155,1436619020688,-0.6548142,9.557653,-0.28072014
156,1436619020705,-0.6380547,9.548675,-0.23762453
157,1436619020727,-0.6679823,9.555858,-0.26396075
158,1436619020748,-0.7164649,9.577405,-0.22325931
159,1436619020765,-0.7541735,9.553463,-0.19393034
160,1436619020788,-0.74758947,9.553463,-0.23163901
161,1436619020804,-0.7410054,9.57142,-0.25079262
162,1436619020825,-0.748188,9.562442,-0.219668
163,1436619020848,-0.7793127,9.572019,-0.13706805
164,1436619020866,-0.6775591,9.557653,-0.17118542
165,1436619020886,-0.62009823,9.572617,-0.28191724
166,1436619020905,-0.60453594,9.545084,-0.25079262
167,1436619020925,-0.6841431,9.507375,-0.23044191
168,1436619020948,-0.7206547,9.552865,-0.15741876
169,1436619020968,-0.7613561,9.607333,-0.06584055
170,1436619020985,-0.7392098,9.564238,-0.08678981
171,1436619021006,-0.7146692,9.55885,-0.19393034
172,1436619021035,-0.7254431,9.566631,-0.12749124
173,1436619021105,-0.6847417,9.595961,-0.073023155
174,1436619021106,-0.5506664,9.557653,-0.1945289
175,1436619021107,-0.5033809,9.505579,-0.2908955
176,1436619021119,-0.49200845,9.546879,-0.19812019
177,1436619021128,-0.5554548,9.5809965,-0.17058687
178,1436619021153,-0.7015011,9.574412,-0.18555063
179,1436619021165,-0.83976626,9.614515,-0.15442601
180,1436619021198,-0.81343,9.586982,-0.13227965
181,1436619021216,-0.7068881,9.556456,-0.109534726
182,1436619021225,-0.6667852,9.574412,-0.20649989
183,1436619021245,-0.62249243,9.544485,-0.350152
184,1436619021265,-0.557849,9.585187,-0.23463176
185,1436619021286,-0.57760113,9.554661,-0.28072014
186,1436619021306,-0.6757634,9.588778,-0.21906945
187,1436619021325,-0.82360536,9.582193,-0.24720132
188,1436619021354,-0.7787141,9.576208,-0.24420857
189,1436619021365,-0.6733692,9.593566,-0.23762453
190,1436619021386,-0.5722142,9.505579,-0.24420857
191,1436619021405,-0.58777654,9.522937,-0.27952304
192,1436619021425,-0.6123171,9.616311,-0.22804771
193,1436619021445,-0.6183026,9.561843,-0.10295067
194,1436619021465,-0.6476316,9.586982,-0.26635495
195,1436619021485,-0.6967127,9.592968,-0.29747957
196,1436619021505,-0.7266402,9.568427,-0.25378537
197,1436619021525,-0.66379243,9.568427,-0.16639702
198,1436619021545,-0.6338649,9.547478,-0.16759412
199,1436619021565,-0.6410475,9.590573,-0.23942018
200,1436619021586,-0.59974754,9.531916,-0.17417817
201,1436619021608,-0.57161564,9.546879,-0.25139117
202,1436619021626,-0.6967127,9.543288,-0.15263036
203,1436619021645,-0.6691794,9.56723,-0.15981296
204,1436619021668,-0.66020113,9.546879,-0.22505496
205,1436619021687,-0.55365914,9.585785,-0.3393781
206,1436619021706,-0.5129577,9.551069,-0.25498247
207,1436619021731,-0.504578,9.579201,-0.30705637
208,1436619021797,-0.65242,9.565434,-0.3573346
209,1436619021798,-0.83976626,9.55047,-0.25318682
210,1436619021799,-0.89662856,9.607931,-0.19812019
211,1436619021807,-0.7870938,9.577405,-0.14065935
212,1436619021835,-0.6679823,9.546281,-0.260968
213,1436619021846,-0.45010993,9.585785,-0.3842694
214,1436619021866,-0.57400984,9.520543,-0.35673606
215,1436619021885,-0.53689975,9.587581,-0.35194764
216,1436619021909,-0.65421563,9.592369,-0.17238252
217,1436619021925,-0.6847417,9.543886,-0.37110126
218,1436619021948,-0.5859809,9.5492735,-0.25198972
219,1436619021969,-0.52253455,9.522339,-0.2873042
220,1436619021985,-0.6991069,9.619304,-0.24720132
221,1436619022009,-0.7673417,9.561843,-0.2621651
222,1436619022026,-0.9020155,9.552865,-0.19632454
223,1436619022048,-0.6937199,9.587581,-0.2136825
224,1436619022069,-0.51595044,9.577405,-0.04249708
225,1436619022087,-0.37948096,9.561843,-0.32321724
226,1436619022108,-0.4189853,9.520543,-0.41060558
227,1436619022126,-0.635062,9.516952,-0.3333926
228,1436619022147,-0.82121116,9.609727,-0.25977087
229,1436619022166,-0.8726865,9.590573,-0.1412579
230,1436619022188,-0.78649527,9.633669,0.054468088
231,1436619022209,-0.79128367,9.60015,0.022744916
232,1436619022228,-0.7272388,9.492412,-0.30346507
233,1436619022249,-0.6596026,9.536704,-0.20231004
234,1436619022270,-0.40282443,9.659407,-0.4249708
235,1436619022286,-0.52492875,9.399037,-0.5979519
236,1436619022307,-0.3645172,9.541492,-0.5093664
237,1436619022327,-0.46447513,9.512762,-0.23702596
238,1436619022346,-0.81881696,9.570223,-0.11432313
239,1436619022374,-0.9900024,9.648034,-0.31244332
240,1436619022388,-0.90141696,9.639654,-0.30286652
241,1436619022406,-0.7870938,9.604341,-0.089184016
242,1436619022435,-0.5315128,9.646837,-0.24660277
243,1436619022490,-0.37229836,9.7084875,-0.47285482
244,1436619022501,-0.41599256,9.623494,-0.5931635
245,1436619022502,-0.7320272,9.671976,-0.53211135
246,1436619022508,-1.0007763,9.672575,-0.4369418
247,1436619022526,-1.1438298,9.52593,-0.39264908
248,1436619022547,-1.1204864,9.409213,-0.65182143
249,1436619022566,-0.90261406,9.369708,-0.7930793
250,1436619022590,-0.7433996,9.416994,-0.5315128
251,1436619022606,-0.54408234,9.576807,-0.36631286
252,1436619022626,-0.6422446,9.67018,-0.37229836
253,1436619022653,-0.81522566,9.777321,-0.4890157
254,1436619022667,-0.75956047,9.717466,-0.338181
255,1436619022692,-0.7332243,9.560646,-0.5542577
256,1436619022709,-0.842759,9.784504,-0.3333926
257,1436619022729,-0.9032126,9.787497,0.17896658
258,1436619022748,-0.96546185,9.794679,0.2837129
259,1436619022770,-1.3251907,9.918579,0.24121583
260,1436619022790,-1.6280571,10.028712,0.15861586
261,1436619022809,-1.7741034,9.873688,-0.046686932
262,1436619022830,-1.6154876,9.722853,-0.8355764
263,1436619022849,-1.7381904,9.582792,0.08678981
264,1436619022870,-1.4879963,9.612122,0.40162733
265,1436619022887,-1.8716671,9.609727,0.7691373
266,1436619022910,-2.6120741,9.636662,0.8595184
267,1436619022931,-3.157952,10.207679,1.2300211
268,1436619022949,-3.9839516,10.78528,3.12982
269,1436619022970,-5.9160724,10.992977,0.50158525
270,1436619022989,-6.523601,11.701661,0.2885013
271,1436619023010,-6.0704985,10.670359,-0.11133038
272,1436619023031,-2.415151,10.612299,-1.785476
273,1436619023049,-2.8550856,10.005369,1.1899183
274,1436619023070,-3.90614,9.766547,1.5113398
275,1436619023091,-4.31914,9.202713,0.35254622
276,1436619023110,-3.7547069,9.1272955,1.3479356
277,1436619023130,-2.5390508,8.275558,1.9853917
278,1436619023150,-2.777274,7.2951326,-0.36870706
279,1436619023200,-3.3824084,7.5171947,-1.3628993
280,1436619023201,-4.8165355,7.120356,0.9672575
281,1436619023210,-5.843049,5.967548,1.9608512
282,1436619023227,-4.5262384,5.5563436,0.5835867
283,1436619023255,-4.1814733,5.5401826,-0.23822308
284,1436619023347,-4.613028,5.522825,0.22625206
285,1436619023351,-4.450821,4.983531,0.44592008
286,1436619023352,-4.0803185,4.1341877,0.65062433
287,1436619023353,-3.9534256,3.6780925,0.31663316
288,1436619023354,-4.7405195,4.021062,-0.770933
289,1436619023396,-5.755661,4.1784806,-1.0618285
290,1436619023397,-8.009802,4.0402155,0.12928689
291,1436619023408,-9.986814,4.610634,2.135628
292,1436619023443,-9.721656,9.365519,-2.2810757
293,1436619023447,-11.676521,13.805566,-4.2359414
294,1436619023468,-11.556811,10.899005,1.4269443
295,1436619023488,-5.632958,7.8769236,3.8175547
296,1436619023507,-3.774459,6.553529,0.6326678
297,1436619023530,-3.3566709,6.353613,-3.3345244
298,1436619023547,-4.008492,7.441777,-2.4265234
299,1436619023570,-5.810129,10.896012,1.8357542
300,1436619023590,-4.1120415,18.607138,-1.8106151
301,1436619023611,-6.843227,15.221736,-3.4931402
302,1436619023630,-5.446809,8.387487,-1.2605472
303,1436619023648,-1.745373,6.553529,-0.5315128
304,1436619023670,-0.15861586,6.724714,-0.9720459
305,1436619023690,1.0151415,8.347982,-0.29149407
306,1436619023711,-0.24181437,8.963293,-1.5616181
307,1436619023729,-0.8631097,10.00896,1.4598645
308,1436619023749,-0.62608373,10.042479,0.33399114
309,1436619023770,-1.0073603,11.027095,-2.4995465
310,1436619023788,-2.3594859,10.617087,-0.5279215
311,1436619023808,-3.3153708,7.908048,0.8774749
312,1436619023828,-2.6078842,7.265804,-0.6087258
313,1436619023854,-2.1057005,7.489063,-1.3856442
314,1436619023872,-2.135628,7.99005,-1.0378864
315,1436619023893,-2.4492683,8.129512,-0.19931729
316,1436619023911,-2.8089972,7.575853,-0.557849
317,1436619023929,-2.9628246,7.20535,-1.7118542
318,1436619023947,-2.3768437,7.8104844,-0.8074445
319,1436619023970,-2.0374656,8.479664,0.338181
320,1436619023991,-2.9191303,8.880095,-1.5460558
321,1436619024010,-1.7884687,9.098565,-1.4197617
322,1436619024080,-1.1552023,9.543886,-1.4987702
323,1436619024081,-0.85173726,10.364499,-1.4520833
324,1436619024082,-1.1528081,11.543045,-1.2791022
325,1436619024090,-0.80804306,12.645575,-0.6584055
326,1436619024112,-0.5781997,13.427281,-2.1990743
327,1436619024132,-0.1921347,14.513651,-2.505532
328,1436619024147,-0.34356794,15.231912,-1.0307038
329,1436619024170,-0.8122329,15.324687,-0.60693014
330,1436619024188,-1.8968062,15.6550865,0.5710171
331,1436619024208,-3.1507695,14.194623,3.390788
332,1436619024229,-3.520075,13.786412,4.5423994
333,1436619024249,-4.3436804,12.893973,-2.7515364
334,1436619024273,-2.309806,12.561778,-5.245696
335,1436619024291,-1.602918,10.332177,-3.4913447
336,1436619024311,-2.303222,8.1402855,-1.6142905
337,1436619024332,-2.3558946,7.4681134,-1.1617863
338,1436619024350,-2.1739352,7.887099,-0.6943185
339,1436619024374,-2.6755204,8.462905,1.3365631
340,1436619024391,-0.6781576,9.376891,1.5616181
341,1436619024411,-1.1115081,9.117719,3.3877954
342,1436619024431,-1.4335283,8.144476,-2.8072014
343,1436619024451,-0.12629414,5.6946087,-2.367267
344,1436619024470,2.35769,4.048595,0.93373865
345,1436619024490,1.3521254,2.211644,-0.83378077
346,1436619024511,-6.0399723,2.8078,-2.468422
347,1436619024530,-4.1419687,6.1046157,-0.46627077
348,1436619024549,-1.858499,5.1020436,-1.8860323
349,1436619024570,-0.41060558,3.650559,-1.2330139
350,1436619024593,-0.3513491,1.9548657,-1.6867151
351,1436619024614,-1.797447,1.7609353,-2.7509377
352,1436619024633,-2.7641058,3.9552212,-5.8143187
353,1436619024651,-4.6513352,7.2502413,-7.1706343
354,1436619024668,-9.379285,10.539276,-0.84814596
355,1436619024690,-10.905589,18.64305,4.9015293
356,1436619024711,-11.231799,19.608511,-3.887585
357,1436619024731,-9.797672,15.563508,3.3303347
358,1436619024752,-5.0703206,5.4444146,-0.48482585
359,1436619024815,-1.8070238,4.836886,-3.323152
360,1436619024816,-1.9644425,5.511452,-3.769072
361,1436619024817,-2.0135236,8.925584,-3.1783028
362,1436619024828,3.1543608,14.796166,2.0392613
363,1436619024850,2.7928362,12.6778965,1.086369
364,1436619024869,-1.0139444,8.393473,1.441908
365,1436619024888,-0.7044938,6.503849,-1.5867572
366,1436619024912,0.08798691,7.4429746,-1.0043676
367,1436619024928,-0.40043023,8.539519,-0.5009867
368,1436619024950,-0.997185,9.032125,0.2825158
369,1436619024970,-1.6071079,8.461707,1.6514006
370,1436619024990,-3.4141316,5.989694,-0.59376204
371,1436619025008,-4.1240125,4.8428717,-2.0027497
372,1436619025032,-3.6535518,5.267244,-3.2321723
373,1436619025052,-3.1794999,6.691195,-2.9460652
374,1436619025072,-3.5583823,8.282741,-1.4903905
375,1436619025089,-3.6445735,9.840169,2.445677
376,1436619025112,-4.4861355,9.731832,-1.0408791
377,1436619025132,-4.4280763,10.970831,-4.152743
378,1436619025152,-4.2778397,12.506711,-0.56682724
379,1436619025172,-2.3666685,14.118009,7.317279
380,1436619025191,-1.2384008,13.304579,-6.120178
381,1436619025211,-0.29927522,13.628395,-7.517793
382,1436619025232,2.2050598,15.976508,1.6238673
383,1436619025252,1.3215994,17.238253,2.271499
384,1436619025271,0.21188685,14.944607,-0.7290344
385,1436619025294,-0.599149,13.12262,2.7060466
386,1436619025311,-3.855862,12.823344,0.8834604
387,1436619025334,-5.9118824,13.175292,-5.382764
388,1436619025351,-4.1581297,12.142194,-3.6104562
389,1436619025375,-4.2383356,9.931747,-1.3305776
390,1436619025401,-3.7978024,9.185953,0.4177882
391,1436619025409,-0.22146365,8.51019,7.3765354
392,1436619025429,2.0111294,8.921992,0.7356185
393,1436619025450,0.17776948,6.941988,-4.3382936
394,1436619025475,0.8194155,8.091804,-4.7818193
395,1436619025519,1.632247,6.0728927,2.7539306
396,1436619025520,-0.0023942017,2.1170728,1.8513165
397,1436619025535,-5.089474,0.6733692,-3.7343562
398,1436619025549,-3.1262288,5.7748146,-2.4211364
399,1436619025569,-2.3636756,3.0951042,-0.5955577
400,1436619025592,-0.84575176,4.778228,-0.9600749
401,1436619025610,-0.6733692,5.7227407,-1.4688427
402,1436619025631,-1.3880384,3.6673183,-3.292626
403,1436619025649,-2.071583,3.152565,-5.0960584
404,1436619025669,-2.806603,3.204639,-4.829105
405,1436619025695,-3.2609026,5.6323595,-1.5741876
