id,attr_time,attr_x,attr_y,attr_z
1,1435993159418,-0.02687807,0.011911872,0.009162978
2,1435993159438,-0.02687807,0.0021380284,0.00580322
3,1435993159460,-0.03023783,-0.011301007,0.009162978
4,1435993159481,-0.02687807,-0.02565634,0.005497787
5,1435993159500,-0.02687807,-0.026572637,0.0027488936
6,1435993159516,-0.03176499,-0.0143553335,0.006414085
7,1435993159541,-0.032986723,0.00580322,0.0030543262
8,1435993159556,-0.040927973,0.009162978,0.007330383
9,1435993159576,-0.036651913,-0.01038471,0.0106901415
10,1435993159599,-0.025961773,-0.019242255,0.004886922
11,1435993159619,-0.035124753,-0.02076942,-0.005497787
12,1435993159639,-0.04550946,-0.016798794,0.0009162979
13,1435993159664,-0.043982297,-0.03390302,0.006414085
14,1435993159677,-0.047647487,-0.021685716,0.004276057
15,1435993159696,-0.044593163,-0.013744468,0.005497787
16,1435993159720,-0.050396383,-0.017715093,0.009162978
17,1435993159736,-0.059253927,-0.03848451,0.0
18,1435993159764,-0.064446285,-0.030848695,-0.004276057
19,1435993159827,-0.076052725,-0.010995574,-0.010079277
20,1435993159828,-0.06963864,0.016493361,-0.014966198
21,1435993159829,-0.05589417,0.028405234,-0.013744468
22,1435993159846,-0.040927973,0.02321288,-0.010995574
23,1435993159856,-0.03268129,0.031154128,-0.008552114
24,1435993159876,-0.042760566,0.04337143,-0.010995574
25,1435993159899,-0.043676864,0.059253927,-0.004886922
26,1435993159919,-0.046731193,0.05955936,-0.0067195175
27,1435993159938,-0.048563786,0.040317107,-0.002443461
28,1435993159961,-0.040317107,0.015271631,-0.0021380284
29,1435993159979,-0.03848451,0.0061086523,-0.004581489
30,1435993159999,-0.033292156,0.002443461,0.0015271631
31,1435993160022,-0.03604105,0.018020526,0.0015271631
32,1435993160039,-0.037873644,0.023823744,0.004886922
33,1435993160059,-0.029626964,0.025350908,0.0076358155
34,1435993160081,-0.027488936,0.010995574,0.00580322
35,1435993160099,-0.022602014,-0.0009162979,0.0009162979
36,1435993160119,-0.02565634,-0.0070249503,0.006414085
37,1435993160141,-0.03176499,-0.008857546,0.007330383
38,1435993160159,-0.035124753,-0.016187929,0.01160644
39,1435993160180,-0.03634648,-0.026572637,0.019547688
40,1435993160202,-0.028710667,-0.036651913,0.015271631
41,1435993160217,-0.021380283,-0.035430185,0.008857546
42,1435993160236,-0.024740042,-0.025961773,0.008552114
43,1435993160259,-0.0290161,-0.031154128,0.018936822
44,1435993160277,-0.029626964,-0.044593163,0.019547688
45,1435993160302,-0.032375857,-0.052839845,0.01740966
46,1435993160331,-0.033292156,-0.041233405,0.013439035
47,1435993160339,-0.033292156,-0.029626964,0.007941248
48,1435993160358,-0.029932396,-0.02687807,0.005497787
49,1435993160382,-0.03726278,-0.038179077,0.004886922
50,1435993160406,-0.032070424,-0.040317107,0.005497787
51,1435993160482,-0.036651913,-0.030848695,-0.00061086525
52,1435993160483,-0.027488936,-0.01038471,-0.0061086523
53,1435993160484,-0.029932396,-0.01038471,-0.005497787
54,1435993160485,-0.029321533,0.014049901,-0.00580322
55,1435993160498,-0.034208454,0.018936822,-0.004886922
56,1435993160517,-0.030848695,0.018020526,-0.0076358155
57,1435993160537,-0.034208454,0.01985312,-0.014049901
58,1435993160559,-0.036651913,0.024740042,-0.016798794
59,1435993160578,-0.03726278,0.018020526,-0.0143553335
60,1435993160599,-0.03604105,0.027183503,-0.01038471
61,1435993160622,-0.034513887,0.035430185,-0.013133603
62,1435993160640,-0.035124753,0.046731193,-0.008857546
63,1435993160671,-0.030848695,0.047647487,-0.006414085
64,1435993160683,-0.029321533,0.044898596,-0.0076358155
65,1435993160697,-0.032070424,0.03268129,-0.009468411
66,1435993160718,-0.03756821,0.014660766,-0.00580322
67,1435993160739,-0.043982297,0.0012217305,-0.0036651916
68,1435993160757,-0.047036625,0.0033597588,0.002443461
69,1435993160781,-0.051618114,0.0033597588,0.004886922
70,1435993160802,-0.0421497,-0.0021380284,0.0070249503
71,1435993160820,-0.036651913,-0.0070249503,0.0021380284
72,1435993160838,-0.03756821,0.0030543262,-0.00580322
73,1435993160860,-0.032070424,0.01985312,-0.00580322
74,1435993160878,-0.0421497,0.017104227,0.0009162979
75,1435993160902,-0.04062254,-0.0143553335,0.009162978
76,1435993160925,-0.039095376,-0.03726278,0.0061086523
77,1435993160940,-0.03970624,-0.04153884,0.007330383
78,1435993160960,-0.0421497,-0.029932396,0.00580322
79,1435993160980,-0.043066,-0.028099801,0.008552114
80,1435993160998,-0.04550946,-0.029321533,0.0067195175
81,1435993161019,-0.040011674,-0.02687807,0.003970624
82,1435993161041,-0.037873644,-0.024129177,-0.0018325958
83,1435993161058,-0.03390302,-0.018020526,-0.0067195175
84,1435993161122,-0.043066,-0.004886922,-0.007941248
85,1435993161123,-0.043982297,-0.0015271631,-0.008552114
86,1435993161124,-0.051618114,-0.008246681,-0.0076358155
87,1435993161145,-0.05009095,-0.01740966,-0.0067195175
88,1435993161158,-0.044898596,-0.024129177,-0.009468411
89,1435993161178,-0.04337143,-0.02321288,-0.0106901415
90,1435993161196,-0.036957346,-0.020463986,-0.011301007
91,1435993161219,-0.032986723,-0.004581489,-0.008552114
92,1435993161236,-0.03848451,-0.004581489,-0.015882496
93,1435993161257,-0.038789943,0.016493361,-0.019547688
94,1435993161282,-0.04520403,0.014049901,-0.013133603
95,1435993161300,-0.051923547,0.0,-0.021380283
96,1435993161319,-0.058948494,-0.010995574,-0.02321288
97,1435993161343,-0.058337633,-0.018936822,-0.025045475
98,1435993161358,-0.06078109,-0.015271631,-0.029932396
99,1435993161380,-0.070554934,0.019547688,-0.029626964
100,1435993161404,-0.071776666,0.044593163,-0.02443461
101,1435993161421,-0.06994407,0.048258353,-0.028405234
102,1435993161439,-0.06658431,0.03481932,-0.029626964
103,1435993161463,-0.057421334,0.022907447,-0.034208454
104,1435993161480,-0.059864793,0.03573562,-0.043066
105,1435993161501,-0.06352998,0.040927973,-0.040011674
106,1435993161523,-0.058337633,0.029321533,-0.027488936
107,1435993161541,-0.05589417,0.03359759,-0.03481932
108,1435993161560,-0.05497787,0.05497787,-0.044898596
109,1435993161582,-0.06536258,0.093767814,-0.04550946
110,1435993161601,-0.06047566,0.119729586,-0.051618114
111,1435993161621,-0.06688975,0.13530666,-0.05100725
112,1435993161642,-0.07391469,0.16157386,-0.052534413
113,1435993161671,-0.07269296,0.17531833,-0.048258353
114,1435993161683,-0.064751714,0.17531833,-0.04734206
115,1435993161702,-0.061086524,0.16279559,-0.04337143
116,1435993161744,-0.04917465,0.15699236,-0.03940081
117,1435993161745,-0.046120327,0.14569137,-0.03940081
118,1435993161767,-0.042760566,0.13103059,-0.01985312
119,1435993161786,-0.047036625,0.10323623,-0.01282817
120,1435993161799,-0.043982297,0.07452556,-0.003970624
121,1435993161822,-0.03756821,0.03023783,-0.0021380284
122,1435993161838,-0.038179077,-0.0009162979,-0.0030543262
123,1435993161859,-0.038179077,-0.0067195175,-0.0027488936
124,1435993161880,-0.035430185,0.004581489,-0.003970624
125,1435993161901,-0.03023783,0.029321533,0.0027488936
126,1435993161921,-0.026572637,0.04734206,0.004276057
127,1435993161943,-0.024129177,0.056199603,-0.0018325958
128,1435993161962,-0.02076942,0.047036625,0.0009162979
129,1435993161981,-0.023518313,0.035430185,0.00061086525
130,1435993162003,-0.021380283,0.022907447,0.003970624
131,1435993162021,-0.020158553,0.0021380284,0.0106901415
132,1435993162041,-0.015882496,-0.01985312,0.0125227375
133,1435993162063,-0.017715093,-0.032986723,0.0106901415
134,1435993162082,-0.021991149,-0.03481932,0.0106901415
135,1435993162099,-0.02687807,-0.0290161,0.0036651916
136,1435993162123,-0.027794369,-0.03390302,0.007941248
137,1435993162141,-0.02107485,-0.062002823,0.011301007
138,1435993162170,-0.021380283,-0.06291912,0.0033597588
139,1435993162183,-0.02321288,-0.047036625,-0.004886922
140,1435993162198,-0.020463986,-0.025961773,-0.0033597588
141,1435993162218,-0.018020526,-0.02107485,0.00580322
142,1435993162242,-0.01038471,-0.022296581,0.0018325958
143,1435993162258,-0.009468411,-0.015882496,0.0076358155
144,1435993162281,-0.010079277,0.0,0.005497787
145,1435993162303,-0.0021380284,0.00580322,-0.0009162979
146,1435993162322,0.0009162979,0.0012217305,-0.0012217305
147,1435993162342,0.010079277,-0.004886922,-0.0009162979
148,1435993162411,0.01740966,-0.016798794,0.0018325958
149,1435993162412,0.01985312,-0.01282817,0.002443461
150,1435993162413,0.017104227,-0.008552114,0.003970624
151,1435993162423,0.01160644,-0.021991149,0.0030543262
152,1435993162440,0.006414085,-0.03756821,0.0125227375
153,1435993162458,0.009468411,-0.058337633,0.018325957
154,1435993162481,0.01160644,-0.07544186,0.01863139
155,1435993162500,0.01282817,-0.07666359,0.022602014
156,1435993162519,0.015577064,-0.07544186,0.021685716
157,1435993162542,0.012217305,-0.07941248,0.03023783
158,1435993162562,0.014660766,-0.09132435,0.038179077
159,1435993162581,0.01160644,-0.12095132,0.04062254
160,1435993162604,0.014966198,-0.16310102,0.047647487
161,1435993162622,0.016187929,-0.18417588,0.047036625
162,1435993162642,0.014966198,-0.20708331,0.05222898
163,1435993162666,0.011911872,-0.22357668,0.050701816
164,1435993162679,0.010995574,-0.21838433,0.04428773
165,1435993162699,0.0076358155,-0.19822577,0.041233405
166,1435993162721,-0.0061086523,-0.1777618,0.04520403
167,1435993162739,-0.01282817,-0.15057829,0.04917465
168,1435993162761,-0.018020526,-0.15454891,0.050701816
169,1435993162783,-0.015882496,-0.14752395,0.043066
170,1435993162804,-0.016187929,-0.12767084,0.034208454
171,1435993162824,-0.02076942,-0.087659165,0.027794369
172,1435993162846,-0.029626964,-0.052839845,0.028099801
173,1435993162863,-0.027794369,-0.04062254,0.021991149
174,1435993162879,-0.028099801,-0.035124753,0.012217305
175,1435993162904,-0.0290161,-0.027183503,0.009162978
176,1435993162920,-0.03573562,0.0027488936,0.0009162979
177,1435993162945,-0.035430185,0.032375857,-0.0012217305
178,1435993162968,-0.032375857,0.049480084,-0.0012217305
179,1435993162986,-0.028099801,0.05681047,-0.0070249503
180,1435993163003,-0.029321533,0.06963864,-0.013133603
181,1435993163024,-0.043066,0.08124508,-0.020158553
182,1435993163080,-0.055283304,0.08368854,-0.018936822
183,1435993163081,-0.05589417,0.067500606,-0.011911872
184,1435993163082,-0.051923547,0.056199603,-0.01282817
185,1435993163099,-0.04886922,0.04734206,-0.008246681
186,1435993163120,-0.036651913,0.04917465,-0.012217305
187,1435993163142,-0.04062254,0.07086037,-0.011301007
188,1435993163160,-0.036957346,0.07849618,-0.009468411
189,1435993163178,-0.034513887,0.08093964,-0.00030543262
190,1435993163200,-0.03145956,0.067500606,0.0061086523
191,1435993163220,-0.029321533,0.050396383,0.010995574
192,1435993163239,-0.039095376,0.022296581,0.015577064
193,1435993163262,-0.041233405,0.005192355,0.018325957
194,1435993163281,-0.05009095,-0.009773844,0.021685716
195,1435993163302,-0.050396383,-0.025961773,0.028099801
196,1435993163322,-0.046731193,-0.023823744,0.029932396
197,1435993163343,-0.03756821,-0.022907447,0.028405234
198,1435993163363,-0.043982297,-0.016798794,0.036651913
199,1435993163403,-0.03940081,-0.034513887,0.03756821
200,1435993163404,-0.030543262,-0.045814894,0.028710667
201,1435993163421,-0.02443461,-0.048563786,0.024740042
202,1435993163444,-0.027183503,-0.042455133,0.023518313
203,1435993163460,-0.023518313,-0.043066,0.019547688
204,1435993163480,-0.025350908,-0.046120327,0.01740966
205,1435993163507,-0.03268129,-0.038789943,0.016493361
206,1435993163607,-0.029932396,-0.009162978,0.017715093
207,1435993163608,-0.029321533,0.0070249503,0.009773844
208,1435993163609,-0.01863139,0.015882496,0.00061086525
209,1435993163610,-0.018020526,0.016187929,-0.005497787
210,1435993163611,-0.025961773,0.019547688,-0.007941248
211,1435993163623,-0.039095376,0.035430185,-0.015882496
212,1435993163641,-0.040927973,0.05497787,-0.013133603
213,1435993163673,-0.03940081,0.059253927,-0.003970624
214,1435993163681,-0.03726278,0.058337633,0.0018325958
215,1435993163699,-0.032986723,0.05467244,-0.0015271631
216,1435993163719,-0.028710667,0.060170226,-0.010995574
217,1435993163741,-0.03145956,0.07147124,-0.015577064
218,1435993163758,-0.0290161,0.099571034,-0.02107485
219,1435993163780,-0.025045475,0.121256754,-0.013133603
220,1435993163807,-0.020463986,0.13713925,0.00030543262
221,1435993163822,-0.01282817,0.16707164,0.0143553335
222,1435993163843,-0.01740966,0.22327125,0.02565634
223,1435993163865,-0.026572637,0.27580565,0.040317107
224,1435993163882,-0.020463986,0.29535335,0.057421334
225,1435993163903,-0.0021380284,0.27855456,0.06658431
226,1435993163925,0.017715093,0.23457226,0.071776666
227,1435993163943,0.030543262,0.21135938,0.06414085
228,1435993163963,0.03573562,0.1994475,0.06414085
229,1435993163984,0.059253927,0.11026118,0.094989546
230,1435993164004,0.10720685,-0.010079277,0.13591751
231,1435993164020,0.15485434,-0.18967366,0.15332718
232,1435993164044,0.18997909,-0.35185838,0.1423316
233,1435993164063,0.19639318,-0.47342056,0.1414153
234,1435993164084,0.19914207,-0.5186246,0.14019357
235,1435993164104,0.19211712,-0.5174029,0.1151481
236,1435993164123,0.18478674,-0.4382958,0.07849618
237,1435993164143,0.17562376,-0.30787608,0.043066
238,1435993164165,0.16829337,-0.16920967,0.015271631
239,1435993164180,0.15974127,-0.07269296,-0.010995574
240,1435993164203,0.14049901,0.04795292,-0.035430185
241,1435993164224,0.12614368,0.16584991,-0.036957346
242,1435993164245,0.12064589,0.21380283,-0.038789943
243,1435993164261,0.12095132,0.22143865,-0.03604105
244,1435993164284,0.11911872,0.19700404,-0.03145956
245,1435993164356,0.112399206,0.18784106,-0.032986723
246,1435993164357,0.100792766,0.23335053,-0.04886922
247,1435993164358,0.09468412,0.34666604,-0.06841691
248,1435993164359,0.09437868,0.46028697,-0.093462385
249,1435993164381,0.11178834,0.63285637,-0.06078109
250,1435993164403,0.14813483,0.7861836,0.03023783
251,1435993164419,0.17898351,0.84757555,0.109650314
252,1435993164441,0.20005837,0.7651087,0.19364429
253,1435993164465,0.21594086,0.46486846,0.2678644
254,1435993164484,0.22021692,-0.030543262,0.31764993
255,1435993164504,0.20647246,-0.634689,0.28313604
256,1435993164528,0.19120082,-1.2400564,0.20922135
257,1435993164543,0.18600847,-1.5940529,0.13255776
258,1435993164563,0.22907446,-1.8008307,0.11301007
259,1435993164586,0.26175576,-1.6737708,0.109650314
260,1435993164603,0.29016098,-1.3875804,0.11209377
261,1435993164624,0.33108896,-1.0552697,0.11911872
262,1435993164648,0.30573806,-0.7690793,0.099571034
263,1435993164665,0.21777347,-0.3817908,0.043676864
264,1435993164681,0.14569137,-0.05131268,0.00030543262
265,1435993164704,0.12950343,0.17898351,-0.004276057
266,1435993164721,0.15027285,0.2773328,0.0067195175
267,1435993164741,0.17715092,0.31429017,0.035124753
268,1435993164764,0.17745635,0.2687807,0.07238753
269,1435993164785,0.1591304,0.15424347,0.10781772
270,1435993164805,0.13988814,0.030543262,0.13255776
271,1435993164827,0.1020145,-0.016187929,0.14263703
272,1435993164843,0.06688975,0.0,0.13408493
273,1435993164863,0.030543262,0.098043874,0.12644911
274,1435993164886,0.010995574,0.22357668,0.12980886
275,1435993164903,-0.02076942,0.32467487,0.14752395
276,1435993164922,-0.08674286,0.43982297,0.16584991
277,1435993164984,-0.172264,0.52106804,0.19853121
278,1435993164985,-0.2919936,0.6411031,0.19517145
279,1435993164986,-0.38453966,0.8344419,0.118507855
280,1435993165002,-0.4297437,0.9984592,-0.24770586
281,1435993165020,-0.41874814,1.2082914,-0.30634892
282,1435993165041,-0.34574974,1.3967434,0.2434298
283,1435993165063,-0.4297437,1.0235047,0.6386596
284,1435993165084,-0.57879484,0.2452624,0.8677341
285,1435993165101,-0.6218608,-0.8011498,0.7687739
286,1435993165126,-0.65179324,-1.5286902,0.5342017
287,1435993165144,-0.571159,-1.6453656,0.31764993
288,1435993165162,-0.45723262,-1.205848,0.13927728
289,1435993165184,-0.31948254,-0.67164636,-0.034513887
290,1435993165202,-0.21319197,0.2180789,-0.056199603
291,1435993165221,-0.09468412,1.0635164,-0.06566802
292,1435993165264,-0.014660766,1.6215417,-0.14477506
293,1435993165265,0.026267206,1.9474384,-0.20219639
294,1435993165283,-0.034208454,2.038152,-0.21471913
295,1435993165308,-0.12889257,1.9779817,-0.13561209
296,1435993165325,-0.129198,1.616044,-0.009468411
297,1435993165348,-0.05681047,0.990518,0.07727446
298,1435993165371,0.050396383,0.39278635,0.18173242
299,1435993165382,0.073303826,-0.36865717,0.22724187
300,1435993165409,0.015271631,-0.8762862,0.21746802
301,1435993165428,-0.064751714,-1.0891727,0.17715092
302,1435993165444,-0.13347405,-0.9828822,0.13744467
303,1435993165462,-0.19730948,-0.7458665,0.08155051
304,1435993165488,-0.22449298,-0.35033122,0.03756821
305,1435993165503,-0.21074851,-0.012217305,0.02687807
306,1435993165522,-0.1826487,0.17715092,0.06872234
307,1435993165549,-0.1133155,0.2489276,0.17715092
308,1435993165563,-0.04337143,0.29229903,0.30848694
309,1435993165588,0.039095376,0.26175576,0.47433686
310,1435993165673,0.14508049,0.12736541,0.6435465
311,1435993165674,0.04795292,-0.0852157,0.68539083
312,1435993165675,-0.63713247,-0.3399465,0.44898596
313,1435993165676,-1.1346822,-0.8848383,-0.19822577
314,1435993165681,-0.8436049,-1.1233811,-0.5674938
315,1435993165700,-0.6200282,-1.2525792,-0.57787853
316,1435993165721,-0.32467487,-1.8270979,-0.39736784
317,1435993165741,-0.0027488936,-2.8661797,-0.18967366
318,1435993165762,0.021685716,-3.3835826,-0.09712757
319,1435993165785,-0.36010507,-3.0207286,0.09040806
320,1435993165805,-0.7602218,-2.2666154,0.38453966
321,1435993165825,-1.1609493,-1.8414533,0.5888741
322,1435993165843,-1.3384057,-1.5922203,0.48502702
323,1435993165863,-1.4697418,-1.6508633,0.2510656
324,1435993165885,-1.5448782,-1.8148806,0.08002335
325,1435993165906,-1.5903877,-1.8606955,0.034513887
326,1435993165923,-1.7599027,-1.5427402,0.015271631
327,1435993165945,-2.025629,-0.7449502,-0.04153884
328,1435993165966,-2.221717,0.24129178,-0.17531833
329,1435993165985,-2.3228152,1.5653422,-0.31887165
330,1435993166005,-2.3362541,2.7748554,-0.5693264
331,1435993166028,-2.2061398,4.3600507,-0.86590147
332,1435993166043,-1.9724839,5.606521,-1.1713341
333,1435993166063,-1.670411,6.3026023,-1.4294246
334,1435993166087,-1.3930782,6.399119,-1.5152513
335,1435993166105,-0.9972375,6.1214805,-1.4132367
336,1435993166128,-0.59742624,5.349958,-1.0913107
337,1435993166154,-0.25442538,4.247346,-0.768163
338,1435993166162,-0.025961773,3.0283644,-0.59681535
339,1435993166182,0.23487769,2.2314909,-0.33292156
340,1435993166203,0.39645153,1.4056009,0.1151481
341,1435993166223,0.4801401,0.81000733,0.58062744
342,1435993166252,0.5589417,0.28619036,0.8445212
343,1435993166311,0.64904433,-0.14905111,0.97249746
344,1435993166312,0.7703011,-0.41050145,1.1023064
345,1435993166313,0.77121735,-0.80756384,1.1612549
346,1435993166325,0.6927212,-1.2064588,1.1588113
347,1435993166344,0.623388,-1.303281,1.0519099
348,1435993166361,0.42302418,-1.1145236,0.6918049
349,1435993166382,0.3005457,-0.8573494,0.2666427
350,1435993166404,0.40469822,-0.40500367,0.03390302
351,1435993166423,0.3378085,0.6774496,0.129198
352,1435993166446,0.37598756,1.897042,0.28496864
353,1435993166463,0.56230146,2.4349089,0.41813725
354,1435993166482,0.5839872,2.4791965,0.50823987
355,1435993166510,0.45814893,2.0977113,0.5531385
356,1435993166525,0.3915646,1.7278323,0.52839845
357,1435993166545,0.35002577,1.5827519,0.4550946
358,1435993166568,0.312763,1.4837917,0.43310347
359,1435993166584,0.31337386,1.5030339,0.4831944
360,1435993166605,0.2733622,1.6698002,0.56291234
361,1435993166628,0.20616703,1.6875153,0.64843345
362,1435993166645,0.15882497,1.5106697,0.7510588
363,1435993166668,0.13255776,1.2867876,0.79534656
364,1435993166685,0.14355333,1.0803152,0.7049385
365,1435993166704,0.09865474,1.0543534,0.62949663
366,1435993166723,0.008246681,0.8371908,0.63041294
367,1435993166745,0.05589417,0.17379116,0.5164866
368,1435993166764,0.06872234,0.009468411,0.47250426
369,1435993166784,0.04886922,0.38545597,0.34513888
370,1435993166811,0.11942416,0.8210029,0.2959642
371,1435993166824,0.22082779,1.1365148,0.20830505
372,1435993166846,0.29901853,1.1591167,0.07238753
373,1435993166867,0.33964106,0.68477994,-0.15943582
374,1435993166885,0.31795537,0.03023783,-0.4822781
