id,attr_time,attr_x,attr_y,attr_z
1,1436166025023,-0.010079277,0.024129177,-0.027794369
2,1436166025042,-0.010995574,0.028405234,-0.028405234
3,1436166025062,-0.0070249503,0.018325957,-0.027488936
4,1436166025085,-0.013133603,0.01985312,-0.02321288
5,1436166025105,-0.012217305,0.017104227,-0.022907447
6,1436166025125,-0.0070249503,0.023823744,-0.024740042
7,1436166025142,-0.008857546,0.023823744,-0.023518313
8,1436166025163,-0.0067195175,0.022907447,-0.02687807
9,1436166025182,-0.006414085,0.022602014,-0.02687807
10,1436166025202,-0.005497787,0.021685716,-0.0290161
11,1436166025225,-0.0018325958,0.017104227,-0.028710667
12,1436166025246,0.00030543262,0.01740966,-0.027488936
13,1436166025266,-0.004276057,0.020158553,-0.02443461
14,1436166025282,-0.0076358155,0.02107485,-0.021685716
15,1436166025310,-0.0018325958,0.023518313,-0.027488936
16,1436166025322,-0.005192355,0.020158553,-0.024129177
17,1436166025358,-0.0061086523,0.021380283,-0.027488936
18,1436166025369,-0.007330383,0.023518313,-0.030543262
19,1436166025382,-0.0070249503,0.021991149,-0.024740042
20,1436166025403,-0.006414085,0.022907447,-0.022907447
21,1436166025424,-0.004581489,0.018936822,-0.029321533
22,1436166025443,0.00061086525,0.02107485,-0.028710667
23,1436166025463,0.0030543262,0.024129177,-0.026267206
24,1436166025489,0.0021380284,0.027183503,-0.03176499
25,1436166025503,-0.0018325958,0.02443461,-0.029932396
26,1436166025524,-0.0021380284,0.019242255,-0.029321533
27,1436166025545,-0.005192355,0.01863139,-0.02687807
28,1436166025564,-0.0125227375,0.01985312,-0.027183503
29,1436166025587,-0.004886922,0.02443461,-0.02687807
30,1436166025606,-0.0015271631,0.024129177,-0.026572637
31,1436166025626,-0.004581489,0.022296581,-0.028405234
32,1436166025646,-0.0061086523,0.02107485,-0.028405234
33,1436166025666,-0.008552114,0.02107485,-0.027183503
34,1436166025685,-0.0012217305,0.015882496,-0.026572637
35,1436166025706,-0.004581489,0.019547688,-0.029321533
36,1436166025726,-0.00580322,0.02107485,-0.023518313
37,1436166025746,-0.005192355,0.022602014,-0.02565634
38,1436166025766,-0.007330383,0.017104227,-0.028099801
39,1436166025785,-0.01160644,0.02321288,-0.029626964
40,1436166025805,-0.007941248,0.026267206,-0.027488936
41,1436166025826,-0.0070249503,0.022296581,-0.025961773
42,1436166025844,-0.008857546,0.019547688,-0.026572637
43,1436166025864,-0.00580322,0.023518313,-0.029932396
44,1436166025885,-0.0012217305,0.013133603,-0.027794369
45,1436166025907,-0.0061086523,0.019242255,-0.028099801
46,1436166025928,-0.01282817,0.020463986,-0.02687807
47,1436166025948,-0.009162978,0.021380283,-0.020158553
48,1436166025967,-0.0125227375,0.021685716,-0.018325957
49,1436166025985,-0.010079277,0.02687807,-0.02107485
50,1436166026005,-0.010079277,0.022602014,-0.022907447
51,1436166026025,-0.0070249503,0.02076942,-0.02443461
52,1436166026045,-0.004581489,0.023518313,-0.027183503
53,1436166026067,-0.01038471,0.022602014,-0.02107485
54,1436166026116,-0.01160644,0.01740966,-0.027183503
55,1436166026117,-0.009162978,0.02076942,-0.02687807
56,1436166026133,-0.0015271631,0.022296581,-0.029626964
57,1436166026144,-0.005192355,0.023518313,-0.03145956
58,1436166026167,-0.003970624,0.023823744,-0.03145956
59,1436166026186,-0.010995574,0.021380283,-0.022296581
60,1436166026203,-0.0106901415,0.022602014,-0.025350908
61,1436166026226,-0.015882496,0.022296581,-0.018936822
62,1436166026244,-0.013133603,0.019242255,-0.020463986
63,1436166026265,-0.0125227375,0.030543262,-0.025045475
64,1436166026285,-0.003970624,0.024740042,-0.02107485
65,1436166026304,-0.0033597588,0.02565634,-0.024129177
66,1436166026323,-0.003970624,0.025045475,-0.029321533
67,1436166026347,-0.004886922,0.021380283,-0.028405234
68,1436166026367,-0.009468411,0.022296581,-0.026572637
69,1436166026387,-0.0018325958,0.021991149,-0.030543262
70,1436166026407,-0.0012217305,0.019547688,-0.029626964
71,1436166026427,-0.006414085,0.022602014,-0.027488936
72,1436166026447,-0.0067195175,0.021380283,-0.02687807
73,1436166026467,0.0021380284,0.01863139,-0.030848695
74,1436166026487,-0.0012217305,0.018936822,-0.0290161
75,1436166026508,-0.00061086525,0.014966198,-0.03176499
76,1436166026526,-0.0012217305,0.016187929,-0.03023783
77,1436166026561,-0.0015271631,0.02076942,-0.028405234
78,1436166026577,-0.0033597588,0.018936822,-0.028710667
79,1436166026584,-0.0061086523,0.020158553,-0.025350908
80,1436166026605,-0.004581489,0.019242255,-0.025350908
81,1436166026624,-0.0018325958,0.022907447,-0.02687807
82,1436166026644,-0.009162978,0.021991149,-0.025961773
83,1436166026669,-0.002443461,0.02565634,-0.0290161
84,1436166026687,-0.00030543262,0.019242255,-0.026572637
85,1436166026705,-0.0027488936,0.01740966,-0.029626964
86,1436166026725,-0.004886922,0.022907447,-0.03023783
87,1436166026746,-0.0033597588,0.020158553,-0.03023783
88,1436166026765,-0.0030543262,0.01740966,-0.026267206
89,1436166026785,-0.004581489,0.016187929,-0.030848695
90,1436166026836,-0.0033597588,0.021991149,-0.028710667
91,1436166026837,-0.005497787,0.018325957,-0.025961773
92,1436166026855,-0.008246681,0.021685716,-0.027183503
93,1436166026864,-0.005497787,0.025350908,-0.028710667
94,1436166026885,-0.002443461,0.022907447,-0.02321288
95,1436166026906,-0.00580322,0.01985312,-0.02321288
96,1436166026924,-0.0033597588,0.02107485,-0.021991149
97,1436166026965,0.0009162979,0.021991149,-0.021991149
98,1436166026966,0.0,0.019547688,-0.021685716
99,1436166026985,-0.0009162979,0.023518313,-0.018325957
100,1436166027005,-0.01038471,0.021685716,-0.015271631
101,1436166027025,-0.0036651916,0.018325957,-0.021380283
102,1436166027048,-0.0106901415,0.016493361,-0.02076942
103,1436166027068,-0.0030543262,0.02687807,-0.022296581
104,1436166027088,-0.005192355,0.025350908,-0.019547688
105,1436166027108,-0.004581489,0.02076942,-0.018936822
106,1436166027128,-0.0033597588,0.01863139,-0.021685716
107,1436166027148,-0.005497787,0.02107485,-0.027794369
108,1436166027168,-0.006414085,0.022907447,-0.026267206
109,1436166027188,-0.009162978,0.021685716,-0.02107485
110,1436166027208,-0.003970624,0.025961773,-0.026572637
111,1436166027228,0.0009162979,0.021991149,-0.0290161
112,1436166027248,-0.0018325958,0.02107485,-0.0290161
113,1436166027265,-0.0033597588,0.023518313,-0.032986723
114,1436166027288,-0.004886922,0.02076942,-0.027488936
115,1436166027308,-0.01038471,0.021380283,-0.026572637
116,1436166027327,-0.005497787,0.022296581,-0.026572637
117,1436166027347,-0.0061086523,0.02321288,-0.024740042
118,1436166027375,-0.008857546,0.02321288,-0.027488936
119,1436166027387,-0.009468411,0.022296581,-0.029626964
120,1436166027408,-0.013133603,0.025961773,-0.033292156
121,1436166027463,-0.017715093,0.023518313,-0.028710667
122,1436166027464,-0.01160644,0.020463986,-0.032375857
123,1436166027465,-0.009468411,0.018325957,-0.029321533
124,1436166027485,-0.016187929,0.021685716,-0.026572637
125,1436166027507,-0.019242255,0.027183503,-0.02321288
126,1436166027533,-0.022296581,0.03023783,-0.019547688
127,1436166027589,-0.025961773,0.022602014,-0.015271631
128,1436166027590,-0.028099801,0.024129177,-0.012217305
129,1436166027591,-0.026267206,0.025961773,-0.015882496
130,1436166027616,-0.024740042,0.029626964,-0.016187929
131,1436166027625,-0.021685716,0.028099801,-0.016187929
132,1436166027652,-0.022602014,0.020463986,-0.018936822
133,1436166027666,-0.022296581,0.025961773,-0.025961773
134,1436166027685,-0.020158553,0.026572637,-0.031154128
135,1436166027707,-0.021685716,0.02443461,-0.034208454
136,1436166027726,-0.015577064,0.022907447,-0.03481932
137,1436166027747,-0.01282817,0.02565634,-0.04062254
138,1436166027769,-0.016493361,0.020158553,-0.040011674
139,1436166027786,-0.021685716,0.018936822,-0.039095376
140,1436166027805,-0.027488936,0.018325957,-0.036957346
141,1436166027827,-0.028099801,0.022602014,-0.03481932
142,1436166027849,-0.02076942,0.022907447,-0.035430185
143,1436166027868,-0.028405234,0.027794369,-0.03145956
144,1436166027889,-0.026572637,0.02687807,-0.030848695
145,1436166027909,-0.026267206,0.023518313,-0.03359759
146,1436166027929,-0.03023783,0.022296581,-0.034208454
147,1436166027948,-0.032070424,0.027488936,-0.041233405
148,1436166027968,-0.029932396,0.03359759,-0.034513887
149,1436166027989,-0.026572637,0.028710667,-0.035430185
150,1436166028006,-0.028405234,0.023823744,-0.038179077
151,1436166028029,-0.027794369,0.022602014,-0.036651913
152,1436166028046,-0.026572637,0.022602014,-0.039095376
153,1436166028066,-0.03023783,0.03176499,-0.03970624
154,1436166028086,-0.0290161,0.02687807,-0.03940081
155,1436166028111,-0.03023783,0.027183503,-0.039095376
156,1436166028131,-0.032070424,0.03268129,-0.03848451
157,1436166028152,-0.03145956,0.033292156,-0.032986723
158,1436166028169,-0.031154128,0.034208454,-0.03023783
159,1436166028185,-0.03573562,0.03604105,-0.031154128
160,1436166028206,-0.038789943,0.028405234,-0.025961773
161,1436166028226,-0.051618114,0.041233405,-0.024129177
162,1436166028246,-0.047647487,0.051618114,-0.018325957
163,1436166028267,-0.05131268,0.042455133,-0.01863139
164,1436166028319,-0.052534413,0.034208454,-0.029626964
165,1436166028320,-0.056199603,0.044898596,-0.03604105
166,1436166028337,-0.049785517,0.047647487,-0.028099801
167,1436166028345,-0.050396383,0.044898596,-0.027488936
168,1436166028366,-0.053450707,0.03848451,-0.027183503
169,1436166028388,-0.05467244,0.03604105,-0.029626964
170,1436166028406,-0.06383542,0.035430185,-0.021380283
171,1436166028429,-0.058948494,0.036651913,-0.026572637
172,1436166028445,-0.0580322,0.03848451,-0.027794369
173,1436166028466,-0.06688975,0.04337143,-0.027183503
174,1436166028487,-0.06872234,0.05222898,-0.035124753
175,1436166028506,-0.06658431,0.0720821,-0.013439035
176,1436166028569,-0.06994407,0.060170226,0.0009162979
177,1436166028570,-0.07880162,0.044593163,0.0036651916
178,1436166028571,-0.08674286,0.049785517,0.01160644
179,1436166028586,-0.09040806,0.04886922,0.012217305
180,1436166028606,-0.09132435,0.05375614,0.015882496
181,1436166028626,-0.098043874,0.057726767,0.021685716
182,1436166028646,-0.09437868,0.06352998,0.026267206
183,1436166028666,-0.09437868,0.065973446,0.043982297
184,1436166028686,-0.09468412,0.056199603,0.038789943
185,1436166028706,-0.098043874,0.067500606,0.0290161
186,1436166028726,-0.099571034,0.076358154,0.02565634
187,1436166028746,-0.099265605,0.083383106,0.020158553
188,1436166028766,-0.09896017,0.06566802,0.017715093
189,1436166028786,-0.09896017,0.04550946,0.01282817
190,1436166028806,-0.089186326,0.029932396,0.009162978
191,1436166028826,-0.08032878,0.02321288,-0.002443461
192,1436166028846,-0.08002335,0.029932396,-0.00580322
193,1436166028866,-0.06994407,0.03573562,-0.028405234
194,1436166028888,-0.055283304,0.03573562,-0.03940081
195,1436166028906,-0.045814894,0.037873644,-0.0580322
196,1436166028931,-0.04184427,0.03848451,-0.07452556
197,1436166028948,-0.032070424,0.04062254,-0.09712757
198,1436166028967,-0.02321288,0.038179077,-0.10629055
199,1436166028988,-0.015882496,0.04428773,-0.122783914
200,1436166029036,-0.010995574,0.038789943,-0.13805555
201,1436166029037,-0.010995574,0.033292156,-0.14660765
202,1436166029050,-0.004886922,0.02321288,-0.1563815
203,1436166029066,-0.00030543262,0.01160644,-0.16401732
204,1436166029086,0.01282817,0.0076358155,-0.15851954
205,1436166029106,0.0125227375,-0.007941248,-0.14538592
206,1436166029128,0.013744468,-0.011301007,-0.1282817
207,1436166029152,0.013439035,-0.014660766,-0.10140363
208,1436166029166,0.014966198,-0.0106901415,-0.0870483
209,1436166029186,0.01740966,-0.0018325958,-0.05681047
210,1436166029206,0.014966198,0.0018325958,-0.033292156
211,1436166029227,0.011911872,0.014966198,-0.01863139
212,1436166029247,0.003970624,0.013744468,0.00061086525
213,1436166029267,0.0033597588,0.02076942,0.009468411
214,1436166029287,0.0009162979,0.021685716,0.013133603
215,1436166029309,0.00580322,0.021380283,0.02107485
216,1436166029330,0.0033597588,0.01863139,0.028710667
217,1436166029350,0.008857546,0.01985312,0.03145956
218,1436166029370,0.01985312,0.018020526,0.03756821
219,1436166029390,0.019242255,0.008246681,0.0290161
220,1436166029408,0.014966198,0.014049901,0.022296581
221,1436166029426,0.022296581,0.01740966,0.013439035
222,1436166029450,0.01740966,0.0021380284,0.0036651916
223,1436166029468,0.017104227,0.0076358155,-0.0015271631
224,1436166029488,0.026572637,0.009162978,0.0027488936
225,1436166029508,0.029626964,-0.0012217305,-0.003970624
226,1436166029529,0.03023783,0.01282817,-0.008857546
227,1436166029550,0.037873644,0.013133603,-0.0067195175
228,1436166029570,0.03756821,0.012217305,0.00030543262
229,1436166029588,0.03970624,0.0018325958,0.0061086523
230,1436166029611,0.043676864,0.00061086525,0.008857546
231,1436166029629,0.039095376,-0.010995574,0.011911872
232,1436166029651,0.042760566,-0.016187929,0.008246681
233,1436166029669,0.03940081,-0.011301007,0.0030543262
234,1436166029736,0.04062254,-0.005497787,0.01282817
235,1436166029737,0.04184427,-0.004886922,0.01863139
236,1436166029738,0.04184427,-0.017104227,0.025350908
237,1436166029748,0.037873644,-0.01985312,0.023518313
238,1436166029767,0.03481932,-0.015882496,0.02565634
239,1436166029787,0.028710667,-0.0076358155,0.024740042
240,1436166029808,0.028099801,0.0018325958,0.026572637
241,1436166029827,0.03268129,0.0027488936,0.027488936
242,1436166029847,0.028710667,0.00061086525,0.029626964
243,1436166029867,0.029932396,-0.0018325958,0.023518313
244,1436166029891,0.02687807,-0.00030543262,0.022296581
245,1436166029911,0.020463986,0.0018325958,0.017715093
246,1436166029928,0.017104227,0.016798794,0.015882496
247,1436166029949,0.02321288,0.01160644,0.02687807
248,1436166029970,0.024129177,0.00061086525,0.02443461
249,1436166029989,0.020463986,-0.007941248,0.019547688
250,1436166030010,0.023823744,-0.00030543262,0.013744468
251,1436166030030,0.02107485,0.0033597588,0.004276057
252,1436166030050,0.01740966,0.008857546,0.0027488936
253,1436166030070,0.015577064,0.009468411,0.004276057
254,1436166030090,0.016493361,0.010079277,0.005497787
255,1436166030109,0.015577064,0.010079277,0.0061086523
256,1436166030129,0.016493361,0.0018325958,0.003970624
257,1436166030149,0.01740966,0.0033597588,0.0033597588
258,1436166030169,0.015577064,0.002443461,-0.0036651916
259,1436166030191,0.016798794,0.002443461,-0.014049901
260,1436166030209,0.014049901,0.012217305,-0.015577064
261,1436166030229,0.016798794,0.011911872,-0.021991149
262,1436166030251,0.018936822,0.009773844,-0.026267206
263,1436166030268,0.016187929,0.004581489,-0.022602014
264,1436166030289,0.01985312,0.0027488936,-0.025350908
265,1436166030310,0.016798794,0.009773844,-0.023823744
266,1436166030329,0.018325957,0.007941248,-0.027794369
267,1436166030351,0.019547688,0.006414085,-0.029626964
268,1436166030369,0.018325957,0.011301007,-0.032375857
269,1436166030389,0.015882496,0.011301007,-0.042760566
270,1436166030415,0.02321288,0.009773844,-0.03970624
271,1436166030496,0.024740042,0.006414085,-0.040011674
272,1436166030497,0.017104227,0.009162978,-0.035430185
273,1436166030498,0.009162978,0.0070249503,-0.03481932
274,1436166030499,0.004581489,0.014966198,-0.029626964
275,1436166030512,0.0009162979,0.023823744,-0.02321288
276,1436166030531,0.004886922,0.024129177,-0.021685716
277,1436166030549,-0.0033597588,0.018020526,-0.015577064
278,1436166030568,-0.0018325958,0.022602014,-0.007941248
279,1436166030591,-0.005192355,0.019547688,0.0015271631
280,1436166030608,-0.009162978,0.02443461,0.020158553
281,1436166030637,-0.004276057,0.016493361,0.0421497
282,1436166030648,-0.0033597588,0.018020526,0.06841691
283,1436166030672,-0.0036651916,0.02107485,0.077579886
284,1436166030688,-0.008246681,0.03848451,0.07544186
285,1436166030711,-0.0012217305,0.04550946,0.07422013
286,1436166030731,-0.0033597588,0.038179077,0.07147124
287,1436166030749,0.00030543262,0.03268129,0.06414085
288,1436166030771,-0.009162978,0.029932396,0.048563786
289,1436166030791,0.0012217305,0.03145956,0.028405234
290,1436166030809,-0.0009162979,0.02687807,0.008246681
291,1436166030831,0.00030543262,0.024740042,-0.014660766
292,1436166030851,0.004886922,0.019242255,-0.028710667
293,1436166030871,0.0030543262,0.015271631,-0.035124753
294,1436166030889,0.009162978,0.016493361,-0.04550946
295,1436166030909,-0.0009162979,0.008857546,-0.05589417
296,1436166030931,-0.0012217305,0.013133603,-0.058337633
297,1436166030948,-0.003970624,0.016493361,-0.051923547
298,1436166030968,-0.010079277,0.013133603,-0.047647487
299,1436166030988,-0.0030543262,0.0125227375,-0.03726278
300,1436166031009,-0.004581489,0.02107485,-0.0290161
301,1436166031033,-0.019547688,0.019242255,-0.017104227
302,1436166031054,-0.026267206,0.022602014,-0.010995574
303,1436166031069,-0.027488936,0.02687807,-0.0015271631
304,1436166031088,-0.03268129,0.025350908,0.017715093
305,1436166031109,-0.030848695,0.02687807,0.03604105
306,1436166031128,-0.02687807,0.02321288,0.042760566
307,1436166031151,-0.026267206,0.02107485,0.04184427
308,1436166031172,-0.024129177,0.029321533,0.04337143
309,1436166031219,-0.0143553335,0.032375857,0.04428773
310,1436166031220,-0.01863139,0.027794369,0.03940081
311,1436166031238,-0.018936822,0.01740966,0.02321288
312,1436166031248,-0.021380283,0.02687807,0.009162978
313,1436166031270,-0.022296581,0.035124753,-0.014049901
314,1436166031288,-0.0070249503,0.030543262,-0.027488936
315,1436166031309,0.002443461,0.02321288,-0.028405234
316,1436166031330,0.009468411,0.02076942,-0.029626964
317,1436166031350,0.0143553335,0.008552114,-0.03940081
318,1436166031370,0.0076358155,0.014966198,-0.054061573
319,1436166031389,0.0030543262,0.014049901,-0.06078109
320,1436166031411,0.004581489,0.015271631,-0.06688975
321,1436166031429,0.007941248,0.018020526,-0.06414085
322,1436166031452,0.010079277,0.0106901415,-0.061391957
323,1436166031472,0.007330383,0.006414085,-0.05955936
324,1436166031492,0.0015271631,0.0070249503,-0.048563786
325,1436166031510,0.0030543262,0.01160644,-0.03756821
326,1436166031532,0.0,0.0125227375,-0.022296581
327,1436166031552,-0.009468411,0.013744468,-0.0106901415
328,1436166031572,-0.016493361,0.018325957,0.00061086525
329,1436166031592,-0.012217305,0.02076942,0.021991149
330,1436166031614,-0.0143553335,0.025961773,0.03970624
331,1436166031630,-0.013439035,0.029626964,0.05467244
332,1436166031653,-0.004886922,0.03390302,0.06627888
333,1436166031671,-0.01282817,0.03970624,0.06963864
334,1436166031691,-0.0125227375,0.03940081,0.0729984
335,1436166031709,-0.008246681,0.036651913,0.06994407
336,1436166031732,-0.002443461,0.03604105,0.061391957
337,1436166031752,-0.006414085,0.034208454,0.05375614
338,1436166031770,-0.007330383,0.03604105,0.033292156
339,1436166031792,-0.0061086523,0.034513887,0.012217305
340,1436166031823,0.0036651916,0.03268129,-0.012217305
341,1436166031831,0.010995574,0.018325957,-0.025045475
342,1436166031849,0.01863139,0.0125227375,-0.043982297
343,1436166031869,0.022296581,0.0,-0.055283304
344,1436166031889,0.025045475,0.004276057,-0.06780604
345,1436166031927,0.028710667,0.0076358155,-0.08277224
346,1436166031931,0.026572637,0.0030543262,-0.099265605
347,1436166031950,0.026572637,-0.002443461,-0.10323623
348,1436166031969,0.027794369,-0.003970624,-0.10629055
349,1436166031989,0.030543262,-0.008552114,-0.10903945
350,1436166032009,0.026267206,-0.008552114,-0.10354166
351,1436166032029,0.025961773,-0.0012217305,-0.101098195
352,1436166032062,0.02565634,0.003970624,-0.093462385
353,1436166032079,0.020463986,0.0070249503,-0.07880162
354,1436166032090,0.008857546,0.0030543262,-0.062002823
355,1436166032117,0.0027488936,0.004581489,-0.046120327
356,1436166032130,-0.009162978,0.0125227375,-0.019547688
357,1436166032149,-0.025350908,0.023518313,0.0
358,1436166032172,-0.020463986,0.032986723,0.029321533
359,1436166032191,-0.019242255,0.035124753,0.05467244
360,1436166032212,-0.021991149,0.032070424,0.0711658
361,1436166032232,-0.024740042,0.038179077,0.082161374
362,1436166032251,-0.024129177,0.05009095,0.09621128
363,1436166032273,-0.019547688,0.051923547,0.09468412
364,1436166032293,-0.02107485,0.04642576,0.096516706
365,1436166032311,-0.023823744,0.043066,0.09162979
