id,attr_time,attr_x,attr_y,attr_z
1,1436380820028,-0.026400004,0.10093885,0.000929581
2,1436380820047,-0.03189779,0.0789477,-0.00090301596
3,1436380820067,-0.027316302,0.07161732,0.0039839074
4,1436380820089,-0.012044668,0.08016943,0.0015404448
5,1436380820108,-0.020902216,0.0929976,-0.004568206
6,1436380820127,-0.030370627,0.10063341,-0.01189859
7,1436380820147,-0.03556298,0.09941169,-0.010982292
8,1436380820167,-0.036173847,0.08383462,-0.01189859
9,1436380820187,-0.035868414,0.0807803,-0.016480079
10,1436380820208,-0.03342495,0.0648978,-0.014952916
11,1436380820227,-0.029454328,0.06581409,-0.017396377
12,1436380820247,-0.039533608,0.076809675,-0.012509455
13,1436380820268,-0.041671634,0.09544106,-0.012814888
14,1436380820288,-0.047474854,0.0929976,-0.013425753
15,1436380820310,-0.041060768,0.07772597,-0.009149697
16,1436380820329,-0.04930745,0.07009015,-0.011593157
17,1436380820348,-0.057859562,0.07283905,-0.007927965
18,1436380820369,-0.05083461,0.06978472,-0.01189859
19,1436380820429,-0.04716942,0.067035824,-0.011287725
20,1436380820440,-0.050529182,0.060010877,-0.010371427
21,1436380820441,-0.049918316,0.066730395,-0.013120321
22,1436380820450,-0.053583506,0.067035824,-0.010371427
23,1436380820469,-0.053278074,0.057261985,-0.015563781
24,1436380820491,-0.053278074,0.04412838,-0.016480079
25,1436380820507,-0.053278074,0.046877276,-0.021367002
26,1436380820537,-0.05083461,0.045655545,-0.014036618
27,1436380820547,-0.054194372,0.044433814,-0.012204022
28,1436380820568,-0.054805234,0.04779357,-0.010065994
29,1436380820587,-0.05877586,0.04626641,-0.015869215
30,1436380820611,-0.05877586,0.03130021,-0.023199597
31,1436380820638,-0.06121932,0.036187135,-0.01892354
32,1436380820647,-0.066106245,0.034965403,-0.019534405
33,1436380820667,-0.057248697,0.03710343,-0.017090945
34,1436380820688,-0.05388894,0.03985232,-0.021367002
35,1436380820708,-0.054194372,0.034659967,-0.021367002
36,1436380820728,-0.059386726,0.032827377,-0.022283299
37,1436380820748,-0.059997592,0.034659967,-0.018312674
38,1436380820770,-0.058164995,0.041684918,-0.016174648
39,1436380820788,-0.055721536,0.039241455,-0.015563781
40,1436380820810,-0.05297264,0.0340491,-0.015258349
41,1436380820831,-0.048391152,0.037408866,-0.014952916
42,1436380820848,-0.054194372,0.041074052,-0.008538831
43,1436380820868,-0.056026965,0.045960978,-0.009760561
44,1436380820890,-0.048696585,0.043212086,-0.008233398
45,1436380820908,-0.04716942,0.04137949,-0.016785512
46,1436380820927,-0.0422825,0.040768623,-0.019839838
47,1436380820948,-0.05083461,0.03130021,-0.015563781
48,1436380820973,-0.048696585,0.034659967,-0.016174648
49,1436380820988,-0.042587932,0.04412838,-0.01189859
50,1436380821010,-0.04350423,0.03710343,-0.013425753
51,1436380821029,-0.04350423,0.034354538,-0.020145271
52,1436380821050,-0.045642257,0.033132806,-0.018007241
53,1436380821070,-0.044725962,0.031911075,-0.019228972
54,1436380821094,-0.050223745,0.028245881,-0.018618107
55,1436380821206,-0.049918316,0.035881698,-0.020756137
56,1436380821209,-0.052361775,0.028245881,-0.014036618
57,1436380821210,-0.048696585,0.034659967,-0.014342051
58,1436380821211,-0.05663783,0.04260122,-0.014036618
59,1436380821212,-0.055721536,0.044739246,-0.017396377
60,1436380821213,-0.052667208,0.036187135,-0.014342051
61,1436380821254,-0.052361775,0.04260122,-0.011593157
62,1436380821255,-0.052667208,0.04718271,-0.01189859
63,1436380821283,-0.054499805,0.054207657,-0.009149697
64,1436380821320,-0.056026965,0.05298593,-0.009760561
65,1436380821321,-0.050223745,0.05451309,-0.011593157
66,1436380821341,-0.0422825,0.049320735,-0.011287725
67,1436380821350,-0.038311876,0.051153332,-0.016174648
68,1436380821371,-0.050223745,0.058483716,-0.010982292
69,1436380821387,-0.050529182,0.056956552,-0.007927965
70,1436380821408,-0.04350423,0.061232608,-0.007927965
71,1436380821428,-0.038922742,0.068257555,-0.008844264
72,1436380821450,-0.042893365,0.067952126,-0.012814888
73,1436380821468,-0.045642257,0.06153804,-0.009760561
74,1436380821488,-0.046253122,0.05573482,-0.0018193126
75,1436380821510,-0.04594769,0.07131188,-0.0039573424
76,1436380821528,-0.046253122,0.08169659,-0.0070116688
77,1436380821549,-0.047474854,0.065203235,-0.012204022
78,1436380821568,-0.053583506,0.06245434,-0.006400803
79,1436380821589,-0.052361775,0.0789477,-0.004262775
80,1436380821608,-0.054194372,0.0929976,-0.0021247454
81,1436380821628,-0.052667208,0.08872154,-0.009149697
82,1436380821647,-0.046863988,0.08261289,-0.010371427
83,1436380821683,-0.045642257,0.0789477,-0.010371427
84,1436380821687,-0.05663783,0.08108573,-0.009760561
85,1436380821708,-0.054499805,0.08780525,-0.008538831
86,1436380821733,-0.048696585,0.09177587,-0.0030410439
87,1436380821752,-0.049918316,0.09238674,-0.0033464767
88,1436380821770,-0.04594769,0.08688895,-0.0036519095
89,1436380821787,-0.044420525,0.08719438,-0.004873639
90,1436380821809,-0.05388894,0.08444549,-0.0076225325
91,1436380821827,-0.060608454,0.091470435,-0.0012084488
92,1436380821851,-0.06244105,0.09238674,-0.0015138816
93,1436380821871,-0.052667208,0.08780525,-0.0024301782
94,1436380821895,-0.04716942,0.09269217,-0.004262775
95,1436380821913,-0.04961288,0.0920813,-0.0012084488
96,1436380821930,-0.04930745,0.089637846,-0.0036519095
97,1436380821947,-0.054499805,0.09757909,-0.0021247454
98,1436380821969,-0.052667208,0.095746495,-0.0024301782
99,1436380821988,-0.05297264,0.09177587,-0.0036519095
100,1436380822009,-0.054499805,0.08200203,-0.0030410439
101,1436380822028,-0.051445477,0.073755346,-0.0094551295
102,1436380822051,-0.047474854,0.08016943,-0.013731185
103,1436380822070,-0.049918316,0.0807803,-0.007927965
104,1436380822090,-0.059081294,0.079863995,-0.005179072
105,1436380822109,-0.054805234,0.07772597,-0.004873639
106,1436380822131,-0.043198794,0.08108573,-0.0057899375
107,1436380822151,-0.045642257,0.078031406,-0.008233398
108,1436380822170,-0.054499805,0.07650424,-0.010982292
109,1436380822192,-0.054499805,0.07406078,-0.011287725
110,1436380822211,-0.051140048,0.07772597,-0.007927965
111,1436380822230,-0.044725962,0.07742053,-0.0060953703
112,1436380822251,-0.042587932,0.07925314,-0.009149697
113,1436380822272,-0.041671634,0.08322376,-0.010982292
114,1436380822291,-0.04380966,0.08597265,-0.010982292
115,1436380822310,-0.041671634,0.08811068,-0.010982292
116,1436380822329,-0.0413662,0.08658352,-0.01189859
117,1436380822349,-0.0422825,0.08108573,-0.004873639
118,1436380822372,-0.042893365,0.088416114,-0.0060953703
119,1436380822393,-0.050529182,0.08780525,-0.006400803
120,1436380822413,-0.048391152,0.08933241,-0.0015138816
121,1436380822432,-0.052361775,0.09330303,-0.005179072
122,1436380822450,-0.049002014,0.09269217,-0.010065994
123,1436380822472,-0.04930745,0.08780525,-0.011287725
124,1436380822489,-0.05388894,0.09177587,-0.008844264
125,1436380822513,-0.053278074,0.09544106,-0.008233398
126,1436380822529,-0.051445477,0.096968226,-0.008844264
127,1436380822571,-0.048391152,0.09635736,-0.013120321
128,1436380822580,-0.039839037,0.091470435,-0.01189859
129,1436380822588,-0.044115096,0.095746495,-0.008844264
130,1436380822610,-0.047780287,0.09757909,-0.008233398
131,1436380822631,-0.05175091,0.10552034,-0.008844264
132,1436380822651,-0.046558555,0.10032798,-0.0073170997
133,1436380822669,-0.0422825,0.09513563,-0.0073170997
134,1436380822690,-0.040449902,0.0929976,-0.0094551295
135,1436380822715,-0.045642257,0.084140055,-0.007927965
136,1436380822733,-0.047780287,0.091165006,-0.0076225325
137,1436380822751,-0.05083461,0.0939139,-0.006706236
138,1436380822769,-0.058470428,0.09330303,-0.01189859
139,1436380822792,-0.06213562,0.08444549,-0.020756137
140,1436380822812,-0.057859562,0.07467164,-0.013731185
141,1436380822830,-0.053278074,0.076809675,-0.004568206
142,1436380822853,-0.049002014,0.0948302,-0.007927965
143,1436380822870,-0.052361775,0.090248704,-0.010676859
144,1436380822893,-0.053583506,0.06153804,-0.014952916
145,1436380822913,-0.05969216,0.058483716,-0.006706236
146,1436380822933,-0.06305192,0.066730395,-0.0070116688
147,1436380822953,-0.06427365,0.06856299,-0.013731185
148,1436380822971,-0.058164995,0.06031631,-0.016785512
149,1436380822992,-0.05755413,0.051764198,-0.026253924
150,1436380823012,-0.053278074,0.037408866,-0.027475653
151,1436380823033,-0.057248697,0.037408866,-0.029002817
152,1436380823052,-0.0563324,0.040157758,-0.028086519
153,1436380823073,-0.058164995,0.04718271,-0.021367002
154,1436380823093,-0.05663783,0.053291358,-0.023810463
155,1436380823112,-0.052361775,0.053291358,-0.025948491
156,1436380823133,-0.04350423,0.043212086,-0.029613681
157,1436380823153,-0.050223745,0.036492564,-0.020450704
158,1436380823173,-0.043198794,0.041684918,-0.015258349
159,1436380823192,-0.037090145,0.044739246,-0.010676859
160,1436380823211,-0.035868414,0.037714295,-0.008844264
161,1436380823231,-0.02853803,0.041074052,-0.008233398
162,1436380823292,-0.027927164,0.04626641,-0.006706236
163,1436380823293,-0.030065194,0.052375063,-0.009760561
164,1436380823294,-0.024261974,0.050237034,-0.014952916
165,1436380823316,-0.023345675,0.045960978,-0.014647484
166,1436380823330,-0.025789138,0.038936026,-0.014952916
167,1436380823351,-0.027621731,0.040463187,-0.012814888
168,1436380823369,-0.038311876,0.03985232,-0.010065994
169,1436380823389,-0.05083461,0.040463187,-0.010065994
170,1436380823412,-0.05388894,0.04137949,-0.0094551295
171,1436380823431,-0.050223745,0.037714295,-0.013120321
172,1436380823451,-0.04350423,0.026107855,-0.021367002
173,1436380823471,-0.041977067,0.02519156,-0.022283299
174,1436380823491,-0.045336828,0.02671872,-0.025948491
175,1436380823510,-0.058470428,0.031911075,-0.027781086
176,1436380823533,-0.061524756,0.021526366,-0.022894165
177,1436380823553,-0.053583506,0.02549699,-0.02472676
178,1436380823576,-0.04808572,0.029773049,-0.022588732
179,1436380823593,-0.052361775,0.029162183,-0.025032192
180,1436380823613,-0.054499805,0.02519156,-0.01770181
181,1436380823633,-0.052667208,0.024580695,-0.015869215
182,1436380823653,-0.047474854,0.03099478,-0.015258349
183,1436380823672,-0.048391152,0.03557627,-0.013120321
184,1436380823692,-0.046253122,0.033132806,-0.013120321
185,1436380823711,-0.054499805,0.035270832,-0.011593157
186,1436380823733,-0.05969216,0.036187135,-0.012204022
187,1436380823753,-0.06091389,0.036187135,-0.01189859
188,1436380823773,-0.0554161,0.039241455,-0.012204022
189,1436380823790,-0.050529182,0.037714295,-0.012814888
190,1436380823814,-0.059386726,0.041684918,-0.0073170997
191,1436380823830,-0.057248697,0.056040253,-0.012204022
192,1436380823853,-0.058470428,0.066730395,-0.010065994
193,1436380823873,-0.053278074,0.0639815,-0.010371427
194,1436380823895,-0.04380966,0.065203235,-0.01189859
195,1436380823913,-0.045336828,0.06031631,-0.011593157
196,1436380823933,-0.050223745,0.067035824,-0.010065994
197,1436380823954,-0.052667208,0.07344991,-0.011287725
198,1436380823973,-0.0554161,0.067952126,-0.008844264
199,1436380824044,-0.050529182,0.06917386,-0.0057899375
200,1436380824045,-0.046863988,0.06856299,-0.004568206
201,1436380824046,-0.05175091,0.07589337,-0.0076225325
202,1436380824056,-0.05511067,0.07650424,-0.004568206
203,1436380824071,-0.05511067,0.07497708,0.0006241482
204,1436380824091,-0.05175091,0.07467164,-0.0015138816
205,1436380824127,-0.052361775,0.07406078,-0.0073170997
206,1436380824130,-0.061524756,0.07497708,-0.007927965
207,1436380824150,-0.067327976,0.07161732,-0.0012084488
208,1436380824171,-0.059081294,0.072533615,-0.0012084488
209,1436380824191,-0.05663783,0.09055414,-0.0033464767
210,1436380824214,-0.056943264,0.09452476,-0.0057899375
211,1436380824236,-0.049918316,0.07497708,-0.012204022
212,1436380824254,-0.051140048,0.07039559,-0.012509455
213,1436380824270,-0.06213562,0.0920813,-0.011287725
214,1436380824293,-0.06824427,0.10399318,-0.006706236
215,1436380824315,-0.05663783,0.09177587,-0.0070116688
216,1436380824333,-0.050223745,0.085361786,-0.0024301782
217,1436380824354,-0.042893365,0.078336835,0.0021513104
218,1436380824374,-0.0422825,0.08383462,-0.0076225325
219,1436380824394,-0.046253122,0.08933241,-0.0018193126
220,1436380824412,-0.04503139,0.0939139,0.0018458776
221,1436380824434,-0.0413662,0.091165006,-0.0018193126
222,1436380824454,-0.04014447,0.08383462,-0.0002921503
223,1436380824474,-0.040755335,0.08016943,-0.00059758313
224,1436380824494,-0.048696585,0.08047486,-0.004568206
225,1436380824514,-0.050529182,0.088416114,-0.0018193126
226,1436380824534,-0.046558555,0.090248704,-0.004873639
227,1436380824553,-0.047474854,0.09177587,-0.004262775
228,1436380824574,-0.044725962,0.08139116,-0.006706236
229,1436380824591,-0.04930745,0.07314448,-0.004568206
230,1436380824614,-0.052056342,0.07192275,-0.0076225325
231,1436380824633,-0.050223745,0.078642264,-0.010676859
232,1436380824652,-0.0554161,0.0807803,-0.010065994
233,1436380824672,-0.05175091,0.07070102,-0.01189859
234,1436380824737,-0.051140048,0.068257555,-0.01189859
235,1436380824748,-0.050529182,0.07344991,-0.016174648
236,1436380824749,-0.055721536,0.07222818,-0.014036618
237,1436380824751,-0.05511067,0.07222818,-0.01189859
238,1436380824773,-0.052056342,0.068257555,-0.009760561
239,1436380824791,-0.04808572,0.07742053,-0.006706236
240,1436380824814,-0.04716942,0.08047486,-0.01189859
241,1436380824831,-0.052361775,0.076809675,-0.014647484
242,1436380824851,-0.052056342,0.07467164,-0.010371427
243,1436380824874,-0.052056342,0.08291832,-0.0054845046
244,1436380824893,-0.04350423,0.078642264,-0.006400803
245,1436380824916,-0.043198794,0.07589337,-0.005179072
246,1436380824931,-0.045642257,0.07528251,-0.009760561
247,1436380824954,-0.052667208,0.0789477,-0.0070116688
248,1436380824974,-0.050529182,0.08108573,-0.008538831
249,1436380824994,-0.05175091,0.085667215,-0.008233398
250,1436380825015,-0.049002014,0.0771151,-0.010676859
251,1436380825034,-0.050223745,0.07161732,-0.015258349
252,1436380825054,-0.05175091,0.07100645,-0.013425753
253,1436380825074,-0.046558555,0.06978472,-0.015563781
254,1436380825094,-0.048391152,0.07161732,-0.011593157
255,1436380825114,-0.046558555,0.06245434,-0.0036519095
256,1436380825136,-0.044115096,0.057567418,-0.0060953703
257,1436380825153,-0.04380966,0.05359679,-0.011593157
258,1436380825174,-0.051445477,0.051153332,-0.014036618
259,1436380825194,-0.050529182,0.050542466,-0.011593157
260,1436380825212,-0.0554161,0.040463187,-0.008233398
261,1436380825233,-0.05083461,0.032827377,-0.015869215
262,1436380825255,-0.04380966,0.035881698,-0.012509455
263,1436380825275,-0.04503139,0.034354538,-0.022894165
264,1436380825295,-0.044725962,0.029467613,-0.021977866
265,1436380825315,-0.044115096,0.027635023,-0.020756137
266,1436380825333,-0.038922742,0.020610072,-0.026864788
267,1436380825354,-0.03770101,0.012057953,-0.028086519
268,1436380825374,-0.043198794,0.015417717,-0.028391952
269,1436380825394,-0.051140048,0.019999206,-0.028086519
270,1436380825413,-0.04930745,0.023664393,-0.032973442
271,1436380825467,-0.05297264,0.024275258,-0.040303823
272,1436380825468,-0.06244105,0.014501415,-0.04671791
273,1436380825474,-0.067327976,0.009614497,-0.041830987
274,1436380825495,-0.057248697,0.016639449,-0.023810463
275,1436380825512,-0.042587932,0.027329586,-0.016480079
276,1436380825544,-0.042893365,0.033743672,-0.015563781
277,1436380825564,-0.049002014,0.02519156,-0.025337625
278,1436380825606,-0.052361775,0.01389055,-0.02106157
279,1436380825607,-0.053583506,0.0209155,-0.013120321
280,1436380825645,-0.059081294,0.04290665,-0.010676859
281,1436380825646,-0.058470428,0.049015302,-0.014036618
282,1436380825651,-0.05083461,0.03801973,-0.011287725
283,1436380825675,-0.0563324,0.033438243,-0.01892354
284,1436380825694,-0.05083461,0.031605646,-0.014647484
285,1436380825713,-0.046863988,0.03985232,-0.010676859
286,1436380825735,-0.042587932,0.045350112,-0.010065994
287,1436380825755,-0.04014447,0.041990355,-0.014036618
288,1436380825775,-0.049002014,0.041990355,-0.012814888
289,1436380825795,-0.05877586,0.051764198,-0.013120321
290,1436380825815,-0.050529182,0.052375063,-0.016480079
291,1436380825835,-0.042587932,0.05665112,-0.013120321
292,1436380825855,-0.0413662,0.05298593,-0.009149697
293,1436380825875,-0.040449902,0.05298593,-0.008844264
294,1436380825895,-0.03922817,0.05359679,-0.013120321
295,1436380825915,-0.04503139,0.057261985,-0.010676859
296,1436380825933,-0.052056342,0.056040253,-0.0070116688
297,1436380825955,-0.052667208,0.058789145,-0.010371427
298,1436380825975,-0.052056342,0.06550866,-0.012204022
299,1436380825995,-0.054499805,0.067952126,-0.012814888
300,1436380826015,-0.05969216,0.068257555,-0.010982292
301,1436380826035,-0.060303025,0.063676074,-0.010065994
302,1436380826054,-0.056943264,0.06153804,-0.014647484
303,1436380826075,-0.052361775,0.063676074,-0.017396377
304,1436380826095,-0.05663783,0.06581409,-0.013120321
305,1436380826114,-0.057248697,0.07283905,-0.012509455
306,1436380826135,-0.05511067,0.07283905,-0.009149697
307,1436380826155,-0.057859562,0.066424966,-0.010371427
308,1436380826173,-0.05511067,0.057261985,-0.013120321
309,1436380826200,-0.054499805,0.059094578,-0.008233398
310,1436380826260,-0.05388894,0.06031631,-0.010676859
311,1436380826261,-0.05511067,0.062148906,-0.007927965
312,1436380826278,-0.053278074,0.06428693,-0.0070116688
313,1436380826279,-0.046558555,0.061843473,-0.006706236
314,1436380826292,-0.04350423,0.06153804,-0.008233398
315,1436380826324,-0.04350423,0.06428693,-0.0073170997
316,1436380826333,-0.045642257,0.06734126,-0.008538831
317,1436380826354,-0.05083461,0.07283905,-0.010065994
318,1436380826374,-0.04930745,0.06581409,-0.014647484
319,1436380826393,-0.040755335,0.06459236,-0.010371427
320,1436380826417,-0.041977067,0.06275977,-0.009760561
321,1436380826433,-0.0422825,0.06978472,-0.012814888
322,1436380826456,-0.046558555,0.07497708,-0.008844264
323,1436380826473,-0.052056342,0.07497708,-0.011593157
324,1436380826536,-0.052056342,0.072533615,-0.009760561
325,1436380826537,-0.054194372,0.07619881,-0.008844264
326,1436380826538,-0.054499805,0.078031406,-0.0073170997
327,1436380826552,-0.05663783,0.078031406,-0.009149697
328,1436380826572,-0.0554161,0.07589337,-0.012814888
329,1436380826593,-0.0554161,0.0789477,-0.012204022
330,1436380826613,-0.055721536,0.07619881,-0.0094551295
331,1436380826633,-0.058164995,0.07283905,-0.008538831
332,1436380826653,-0.05175091,0.06734126,-0.0060953703
333,1436380826673,-0.043198794,0.076809675,-0.0030410439
334,1436380826693,-0.038617305,0.08261289,-0.006706236
335,1436380826713,-0.040449902,0.078336835,-0.008844264
336,1436380826733,-0.05388894,0.07009015,-0.008233398
337,1436380826753,-0.050223745,0.07192275,-0.009149697
338,1436380826773,-0.054194372,0.07589337,-0.008233398
339,1436380826793,-0.05663783,0.078642264,-0.011593157
340,1436380826814,-0.051140048,0.07528251,-0.01189859
341,1436380826833,-0.04808572,0.072533615,-0.0060953703
342,1436380826853,-0.049002014,0.08200203,-0.008538831
343,1436380826873,-0.04808572,0.08688895,-0.009760561
344,1436380826893,-0.049918316,0.0789477,-0.013731185
345,1436380826914,-0.04716942,0.065203235,-0.011287725
346,1436380826960,-0.053278074,0.07497708,-0.0076225325
347,1436380826961,-0.05877586,0.08811068,-0.004568206
348,1436380826980,-0.056943264,0.09513563,-0.0018193126
349,1436380827002,-0.0554161,0.08139116,-0.0030410439
350,1436380827013,-0.049918316,0.07772597,-0.0039573424
351,1436380827034,-0.04961288,0.076809675,-0.006706236
352,1436380827053,-0.052056342,0.084140055,-0.0057899375
353,1436380827073,-0.04961288,0.09177587,-0.0073170997
354,1436380827094,-0.052667208,0.09238674,-0.0076225325
355,1436380827116,-0.054499805,0.089637846,-0.009760561
356,1436380827139,-0.051140048,0.088416114,-0.009149697
357,1436380827152,-0.052667208,0.079863995,-0.01189859
358,1436380827174,-0.046863988,0.08475092,-0.007927965
359,1436380827194,-0.05083461,0.089943275,-0.009760561
360,1436380827214,-0.048391152,0.08872154,-0.0073170997
361,1436380827237,-0.045642257,0.08688895,-0.0033464767
362,1436380827256,-0.047780287,0.085361786,-0.005179072
363,1436380827277,-0.04930745,0.08444549,-0.004873639
364,1436380827293,-0.05511067,0.09360847,-0.0073170997
