id,attr_time,attr_x,attr_y,attr_z
1,1436380820023,-0.03390302,0.005192355,0.022296581
2,1436380820044,-0.034513887,0.016493361,0.01160644
3,1436380820063,-0.032070424,0.02107485,-0.0021380284
4,1436380820083,-0.02107485,-0.005497787,-0.0143553335
5,1436380820100,-0.010995574,-0.009162978,-0.019547688
6,1436380820123,-0.00580322,0.014049901,-0.022296581
7,1436380820143,-0.00580322,0.049785517,-0.018020526
8,1436380820162,-0.016798794,0.058643065,-0.009773844
9,1436380820181,-0.013439035,0.050701816,-0.009773844
10,1436380820203,-0.004276057,0.0106901415,-0.015577064
11,1436380820223,-0.010079277,0.014049901,-0.013133603
12,1436380820243,-0.005192355,0.025045475,-0.008246681
13,1436380820266,-0.008857546,0.03970624,-0.004276057
14,1436380820344,-0.016798794,0.048258353,-0.0027488936
15,1436380820345,-0.018325957,0.03359759,0.008246681
16,1436380820346,-0.01282817,-0.0015271631,0.01740966
17,1436380820347,-0.01863139,-0.034208454,0.0143553335
18,1436380820360,-0.018020526,-0.03176499,-0.0027488936
19,1436380820380,-0.01282817,0.00061086525,0.0018325958
20,1436380820400,-0.0143553335,0.025961773,-0.0027488936
21,1436380820425,-0.009162978,0.017715093,-0.0036651916
22,1436380820441,-0.017104227,0.005497787,-0.0067195175
23,1436380820461,-0.02321288,-0.0009162979,-0.0027488936
24,1436380820482,-0.019547688,-0.004581489,-0.01038471
25,1436380820501,-0.02107485,-0.00580322,-0.009468411
26,1436380820528,-0.021380283,-0.004581489,-0.0106901415
27,1436380820542,-0.019242255,0.0061086523,-0.012217305
28,1436380820564,-0.019547688,0.011911872,-0.014966198
29,1436380820583,-0.024129177,0.017104227,-0.01160644
30,1436380820604,-0.028710667,0.018936822,-0.011911872
31,1436380820623,-0.025961773,0.015882496,-0.013439035
32,1436380820643,-0.026267206,-0.004276057,-0.0061086523
33,1436380820663,-0.032986723,-0.013133603,-0.009773844
34,1436380820683,-0.03023783,-0.008246681,-0.00580322
35,1436380820706,-0.028405234,-0.0021380284,-0.004276057
36,1436380820720,-0.027794369,0.0061086523,-0.019547688
37,1436380820743,-0.025045475,0.013439035,-0.017104227
38,1436380820763,-0.02321288,0.0106901415,-0.009162978
39,1436380820783,-0.028099801,0.016798794,-0.007330383
40,1436380820803,-0.023823744,0.016798794,-0.01038471
41,1436380820824,-0.028710667,-0.00061086525,-0.0076358155
42,1436380820843,-0.022296581,-0.0070249503,-0.005192355
43,1436380820864,-0.025350908,-0.0076358155,-0.00580322
44,1436380820883,-0.023518313,0.0076358155,-0.004886922
45,1436380820904,-0.029321533,0.003970624,-0.010079277
46,1436380820924,-0.025045475,-0.003970624,-0.0125227375
47,1436380820945,-0.024129177,-0.01160644,0.0015271631
48,1436380820964,-0.024740042,-0.015271631,-0.00030543262
49,1436380821104,-0.01985312,0.004276057,-0.0009162979
50,1436380821113,-0.021991149,0.009162978,-0.0015271631
51,1436380821114,-0.018020526,0.017104227,-0.0021380284
52,1436380821115,-0.019547688,0.003970624,-0.0015271631
53,1436380821116,-0.022296581,0.004886922,-0.0027488936
54,1436380821117,-0.02443461,0.010079277,-0.002443461
55,1436380821118,-0.02321288,0.014049901,0.00580322
56,1436380821177,-0.01985312,0.019547688,0.007330383
57,1436380821178,-0.0143553335,0.021991149,0.007330383
58,1436380821179,-0.014966198,0.021991149,0.004276057
59,1436380821181,-0.019242255,0.02565634,0.0033597588
60,1436380821218,-0.017104227,0.021685716,0.0036651916
61,1436380821220,-0.01863139,0.010079277,0.0106901415
62,1436380821242,-0.022907447,-0.0012217305,0.0106901415
63,1436380821261,-0.023823744,-0.0106901415,0.007330383
64,1436380821281,-0.019547688,-0.0036651916,0.015271631
65,1436380821301,-0.02565634,0.002443461,0.01282817
66,1436380821323,-0.027794369,0.0033597588,0.013744468
67,1436380821343,-0.0290161,0.0,0.020158553
68,1436380821365,-0.029932396,-0.003970624,0.01985312
69,1436380821384,-0.027183503,-0.007330383,0.01740966
70,1436380821404,-0.027183503,-0.0030543262,0.014660766
71,1436380821424,-0.025045475,0.012217305,0.0143553335
72,1436380821444,-0.02687807,0.0143553335,0.009162978
73,1436380821465,-0.022907447,0.0125227375,0.0106901415
74,1436380821485,-0.024740042,0.007330383,0.0076358155
75,1436380821502,-0.02321288,0.01282817,0.00030543262
76,1436380821523,-0.021991149,0.026572637,-0.00061086525
77,1436380821543,-0.02076942,0.033292156,0.00061086525
78,1436380821563,-0.028405234,0.03023783,0.005497787
79,1436380821585,-0.032375857,0.004886922,0.009162978
80,1436380821604,-0.037873644,-0.014660766,0.010079277
81,1436380821624,-0.03726278,0.0012217305,0.008552114
82,1436380821644,-0.030848695,0.0033597588,0.015577064
83,1436380821666,-0.03573562,-0.01160644,0.028099801
84,1436380821685,-0.029932396,-0.034208454,0.02107485
85,1436380821704,-0.028710667,-0.03481932,0.01282817
86,1436380821723,-0.022296581,-0.01282817,0.003970624
87,1436380821743,-0.018936822,0.016798794,0.004276057
88,1436380821763,-0.026267206,0.017104227,0.0067195175
89,1436380821833,-0.02687807,-0.00061086525,0.0067195175
90,1436380821846,-0.030848695,-0.021380283,0.0061086523
91,1436380821847,-0.029626964,-0.019242255,0.005497787
92,1436380821848,-0.030848695,-0.0018325958,-0.0021380284
93,1436380821861,-0.028099801,-0.002443461,0.00580322
94,1436380821886,-0.026267206,-0.010995574,0.008857546
95,1436380821903,-0.032986723,-0.018020526,0.0125227375
96,1436380821934,-0.030543262,-0.016187929,0.004276057
97,1436380821942,-0.027183503,0.005497787,0.002443461
98,1436380821962,-0.029321533,0.0012217305,0.0030543262
99,1436380821983,-0.030848695,-0.007330383,0.008552114
100,1436380822003,-0.034208454,-0.013744468,0.020158553
101,1436380822024,-0.03573562,-0.0030543262,0.015577064
102,1436380822043,-0.030848695,-0.002443461,0.0061086523
103,1436380822064,-0.025045475,-0.01038471,0.0009162979
104,1436380822083,-0.028405234,-0.008857546,0.004276057
105,1436380822106,-0.032986723,-0.009162978,0.0012217305
106,1436380822123,-0.026572637,-0.010995574,0.0
107,1436380822143,-0.030848695,-0.0015271631,0.012217305
108,1436380822165,-0.029626964,-0.0036651916,0.014966198
109,1436380822185,-0.032986723,-0.007941248,0.013133603
110,1436380822205,-0.03359759,-0.0143553335,0.01038471
111,1436380822222,-0.029626964,-0.014049901,0.008552114
112,1436380822245,-0.027488936,-0.010995574,0.0067195175
113,1436380822265,-0.025045475,-0.004276057,0.0061086523
114,1436380822284,-0.025045475,-0.0033597588,0.00580322
115,1436380822305,-0.024740042,0.0012217305,0.0070249503
116,1436380822324,-0.027488936,-0.004276057,0.007330383
117,1436380822345,-0.025045475,-0.004886922,0.00580322
118,1436380822366,-0.02076942,-0.0027488936,-0.0018325958
119,1436380822386,-0.015882496,0.0009162979,-0.00580322
120,1436380822405,-0.013439035,0.0076358155,-0.008857546
121,1436380822424,-0.016187929,0.0125227375,-0.008857546
122,1436380822442,-0.016187929,0.009162978,-0.008246681
123,1436380822463,-0.02321288,0.0036651916,-0.0061086523
124,1436380822482,-0.024740042,-0.009468411,-0.0015271631
125,1436380822502,-0.016187929,-0.010079277,-0.008552114
126,1436380822596,-0.015271631,0.0009162979,-0.007941248
127,1436380822597,-0.016187929,0.0036651916,-0.006414085
128,1436380822598,-0.013744468,-0.0009162979,-0.005497787
129,1436380822599,-0.01740966,-0.003970624,-0.008857546
130,1436380822607,-0.01740966,0.0027488936,-0.014966198
131,1436380822622,-0.021685716,-0.0036651916,-0.01160644
132,1436380822642,-0.015271631,0.004581489,-0.01282817
133,1436380822662,-0.01160644,0.027488936,-0.0076358155
134,1436380822685,-0.009773844,0.016493361,-0.016493361
135,1436380822703,-0.0070249503,0.002443461,-0.019547688
136,1436380822725,-0.01282817,0.010079277,-0.025961773
137,1436380822744,-0.016187929,0.008552114,-0.022907447
138,1436380822765,-0.015271631,0.010079277,-0.015882496
139,1436380822785,-0.014049901,0.006414085,-0.013133603
140,1436380822805,-0.02107485,-0.007941248,-0.010995574
141,1436380822825,-0.021991149,-0.013133603,-0.014049901
142,1436380822845,-0.01740966,-0.0030543262,-0.014049901
143,1436380822864,-0.008246681,0.01282817,-0.021380283
144,1436380822885,-0.008552114,0.011301007,-0.015577064
145,1436380822906,-0.02107485,-0.0021380284,-0.0067195175
146,1436380822926,-0.023823744,-0.008857546,0.00061086525
147,1436380822946,-0.02565634,-0.007330383,-0.003970624
148,1436380822966,-0.02443461,0.0009162979,-0.0018325958
149,1436380822984,-0.021991149,-0.005192355,0.0027488936
150,1436380823006,-0.024740042,-0.03268129,0.0015271631
151,1436380823025,-0.03390302,-0.06169739,0.0018325958
152,1436380823047,-0.033292156,-0.043676864,0.004886922
153,1436380823064,-0.020158553,-0.0061086523,-0.0030543262
154,1436380823087,-0.02076942,0.008857546,-0.008857546
155,1436380823107,-0.023518313,0.008857546,-0.013744468
156,1436380823131,-0.018020526,0.003970624,-0.003970624
157,1436380823144,-0.024129177,-0.0018325958,-0.0036651916
158,1436380823164,-0.022296581,-0.0070249503,-0.008552114
159,1436380823184,-0.017104227,0.0012217305,-0.017715093
160,1436380823205,-0.010995574,0.013133603,-0.024129177
161,1436380823224,-0.0125227375,0.036957346,-0.028099801
162,1436380823308,-0.014660766,0.03634648,-0.025961773
163,1436380823309,-0.014049901,0.03604105,-0.025961773
164,1436380823310,-0.01740966,0.0421497,-0.027794369
165,1436380823311,-0.019242255,0.03573562,-0.02565634
166,1436380823323,-0.018936822,0.028099801,-0.023518313
167,1436380823343,-0.013439035,0.012217305,-0.021380283
168,1436380823363,-0.015882496,0.004886922,-0.02107485
169,1436380823383,-0.019242255,0.012217305,-0.01985312
170,1436380823412,-0.02687807,0.017715093,-0.009162978
171,1436380823423,-0.03390302,0.013439035,0.00061086525
172,1436380823444,-0.03756821,-0.009773844,-0.0012217305
173,1436380823468,-0.027794369,-0.021380283,-0.004581489
174,1436380823484,-0.019242255,-0.029321533,0.0
175,1436380823506,-0.025350908,-0.0067195175,-0.0030543262
176,1436380823523,-0.022296581,0.02321288,-0.002443461
177,1436380823544,-0.019242255,0.031154128,0.003970624
178,1436380823565,-0.022907447,0.02443461,0.005192355
179,1436380823588,-0.016187929,0.020158553,0.004276057
180,1436380823605,-0.0125227375,0.007941248,0.0036651916
181,1436380823626,-0.016493361,0.008246681,0.008857546
182,1436380823646,-0.015882496,0.008246681,0.014660766
183,1436380823665,-0.019242255,0.0125227375,0.0106901415
184,1436380823685,-0.019547688,0.009468411,0.0070249503
185,1436380823705,-0.0143553335,0.009468411,0.013133603
186,1436380823725,-0.013744468,0.015882496,0.01985312
187,1436380823746,-0.016798794,0.03023783,0.02687807
188,1436380823765,-0.028710667,0.04337143,0.02443461
189,1436380823785,-0.032375857,0.02687807,0.03481932
190,1436380823806,-0.034208454,-0.016493361,0.046731193
191,1436380823825,-0.039095376,-0.040927973,0.04428773
192,1436380823845,-0.04550946,-0.04642576,0.04886922
193,1436380823867,-0.04153884,-0.03176499,0.04337143
194,1436380823885,-0.04062254,-0.015882496,0.040927973
195,1436380823907,-0.035124753,-0.027183503,0.03359759
196,1436380823925,-0.030848695,-0.025961773,0.032375857
197,1436380823944,-0.03390302,-0.02687807,0.03145956
198,1436380823970,-0.032375857,-0.0143553335,0.03726278
199,1436380824032,-0.032375857,-0.008857546,0.03848451
200,1436380824033,-0.032986723,-0.0070249503,0.032375857
201,1436380824034,-0.029321533,-0.02107485,0.024129177
202,1436380824066,-0.03268129,-0.02076942,0.020463986
203,1436380824067,-0.03023783,-0.020158553,0.025350908
204,1436380824090,-0.03726278,-0.018020526,0.025045475
205,1436380824107,-0.036957346,-0.020158553,0.022907447
206,1436380824130,-0.035124753,-0.01985312,0.025045475
207,1436380824143,-0.032070424,-0.018325957,0.020158553
208,1436380824176,-0.036957346,-0.020463986,0.01740966
209,1436380824184,-0.03940081,-0.021991149,0.022602014
210,1436380824205,-0.035430185,-0.013439035,0.027488936
211,1436380824224,-0.03634648,0.005192355,0.018020526
212,1436380824246,-0.03390302,-0.00580322,0.017715093
213,1436380824266,-0.032375857,-0.022602014,0.021685716
214,1436380824287,-0.033292156,-0.032375857,0.015577064
215,1436380824305,-0.032070424,-0.029321533,0.008857546
216,1436380824327,-0.032375857,-0.021991149,0.0143553335
217,1436380824347,-0.030543262,-0.01863139,0.021380283
218,1436380824364,-0.032375857,-0.031154128,0.015271631
219,1436380824385,-0.036957346,-0.033292156,0.0143553335
220,1436380824407,-0.029932396,-0.010995574,0.014660766
221,1436380824427,-0.028405234,0.014049901,0.010079277
222,1436380824447,-0.025350908,0.014966198,-0.0021380284
223,1436380824466,-0.0290161,-0.0076358155,0.0
224,1436380824487,-0.028099801,-0.014660766,-0.0030543262
225,1436380824504,-0.026572637,-0.0076358155,0.00061086525
226,1436380824525,-0.025045475,0.007941248,0.0012217305
227,1436380824545,-0.02565634,0.015882496,-0.002443461
228,1436380824565,-0.027794369,0.004276057,-0.0036651916
229,1436380824590,-0.025961773,-0.003970624,0.0030543262
230,1436380824607,-0.027488936,-0.004581489,-0.002443461
231,1436380824627,-0.022602014,0.00061086525,0.0027488936
232,1436380824647,-0.022296581,-0.0015271631,0.005497787
233,1436380824664,-0.022602014,0.0033597588,0.01038471
234,1436380824685,-0.025350908,0.01160644,0.003970624
235,1436380824706,-0.028710667,-0.0067195175,-0.00061086525
236,1436380824725,-0.027794369,-0.014660766,0.008552114
237,1436380824805,-0.023518313,-0.006414085,0.010079277
238,1436380824806,-0.026572637,0.004886922,0.0030543262
239,1436380824807,-0.019547688,0.0070249503,-0.0018325958
240,1436380824808,-0.016798794,-0.004886922,-0.0018325958
241,1436380824826,-0.019242255,-0.00580322,0.0021380284
242,1436380824844,-0.021380283,-0.0018325958,0.0009162979
243,1436380824865,-0.02565634,0.0009162979,0.0009162979
244,1436380824896,-0.022907447,0.003970624,0.007941248
245,1436380824904,-0.025961773,0.004581489,0.0009162979
246,1436380824925,-0.023518313,0.00061086525,-0.004276057
247,1436380824947,-0.018020526,-0.0009162979,-0.005192355
248,1436380824966,-0.023518313,0.010079277,-0.0021380284
249,1436380824985,-0.028405234,0.01038471,0.0
250,1436380825008,-0.0290161,0.0030543262,0.002443461
251,1436380825028,-0.027488936,-0.00030543262,0.009162978
252,1436380825048,-0.024740042,0.0018325958,0.00061086525
253,1436380825067,-0.022296581,0.015577064,-0.0027488936
254,1436380825092,-0.017715093,0.018020526,-0.01160644
255,1436380825106,-0.018020526,0.015577064,-0.008552114
256,1436380825128,-0.020158553,0.01038471,-0.0061086523
257,1436380825146,-0.02107485,0.009162978,-0.004886922
258,1436380825165,-0.021380283,0.00580322,-0.012217305
259,1436380825186,-0.02107485,0.003970624,-0.0076358155
260,1436380825206,-0.022602014,0.00030543262,-0.007941248
261,1436380825228,-0.02687807,0.0009162979,-0.002443461
262,1436380825248,-0.030543262,-0.006414085,-0.0018325958
263,1436380825267,-0.025961773,-0.008857546,-0.005192355
264,1436380825288,-0.026572637,0.0018325958,-0.0027488936
265,1436380825308,-0.021380283,0.011301007,0.0021380284
266,1436380825327,-0.025045475,0.01985312,0.0070249503
267,1436380825348,-0.01985312,0.009162978,0.0015271631
268,1436380825366,-0.022296581,-0.005192355,0.002443461
269,1436380825387,-0.024740042,-0.003970624,0.0012217305
270,1436380825405,-0.024129177,0.0036651916,0.0012217305
271,1436380825428,-0.022602014,0.009162978,0.00580322
272,1436380825454,-0.01985312,0.009468411,-0.002443461
273,1436380825513,-0.016798794,0.003970624,0.0
274,1436380825514,-0.017715093,0.010079277,-0.00580322
275,1436380825515,-0.015271631,0.0076358155,0.0015271631
276,1436380825525,-0.021685716,0.01160644,0.0070249503
277,1436380825545,-0.022602014,0.0125227375,0.012217305
278,1436380825570,-0.02687807,0.008246681,0.0125227375
279,1436380825585,-0.033292156,0.0076358155,0.0143553335
280,1436380825605,-0.032986723,-0.008552114,0.013744468
281,1436380825625,-0.029321533,-0.018936822,0.0076358155
282,1436380825646,-0.026572637,-0.010079277,0.0027488936
283,1436380825667,-0.029626964,-0.004276057,0.008246681
284,1436380825685,-0.028405234,-0.0070249503,-0.0027488936
285,1436380825708,-0.02321288,-0.011301007,-0.005497787
286,1436380825725,-0.017715093,0.022602014,-0.0036651916
287,1436380825748,-0.018325957,0.03634648,-0.008246681
288,1436380825766,-0.022602014,0.019547688,-0.013744468
289,1436380825787,-0.026267206,-0.0021380284,-0.013133603
290,1436380825808,-0.019242255,0.00061086525,-0.009162978
291,1436380825827,-0.01985312,0.019242255,-0.011911872
292,1436380825848,-0.021991149,0.02076942,-0.009468411
293,1436380825866,-0.01863139,0.02687807,-0.011911872
294,1436380825887,-0.01863139,0.029321533,-0.021380283
295,1436380825907,-0.0125227375,0.027488936,-0.027488936
296,1436380825929,-0.018936822,0.0290161,-0.02565634
297,1436380825948,-0.020158553,0.032375857,-0.0143553335
298,1436380825968,-0.015271631,0.020158553,-0.01160644
299,1436380825989,-0.021380283,0.0070249503,-0.0106901415
300,1436380826008,-0.021380283,-0.0036651916,-0.014966198
301,1436380826028,-0.01863139,0.007330383,-0.014660766
302,1436380826049,-0.01985312,0.014966198,-0.009162978
303,1436380826072,-0.023518313,0.011301007,-0.0018325958
304,1436380826098,-0.022296581,0.0018325958,0.0
305,1436380826107,-0.023823744,-0.005497787,0.004276057
306,1436380826128,-0.028099801,-0.0015271631,0.004581489
307,1436380826147,-0.02687807,0.004581489,0.009773844
308,1436380826167,-0.025045475,-0.0009162979,0.013439035
309,1436380826232,-0.02687807,0.00030543262,0.008857546
310,1436380826233,-0.027183503,-0.02076942,0.008246681
311,1436380826234,-0.027794369,-0.0106901415,0.013439035
312,1436380826245,-0.03023783,-0.004886922,0.014049901
313,1436380826266,-0.028710667,-0.010995574,0.018936822
314,1436380826290,-0.030848695,-0.008857546,0.016493361
315,1436380826306,-0.028405234,-0.008857546,0.014049901
316,1436380826326,-0.02687807,0.01038471,0.0076358155
317,1436380826346,-0.020158553,0.0106901415,0.004581489
318,1436380826370,-0.025961773,0.004581489,0.007330383
319,1436380826386,-0.028099801,0.009468411,0.0106901415
320,1436380826408,-0.03023783,0.008246681,0.011911872
321,1436380826427,-0.025350908,0.007941248,0.0033597588
322,1436380826452,-0.02321288,0.007330383,0.0021380284
323,1436380826466,-0.019547688,0.002443461,0.0009162979
324,1436380826489,-0.019547688,-0.0009162979,0.00580322
325,1436380826510,-0.028405234,0.0,0.010079277
326,1436380826528,-0.03176499,-0.0027488936,0.016798794
327,1436380826549,-0.029321533,0.00030543262,0.01740966
328,1436380826567,-0.028405234,-0.0036651916,0.015271631
329,1436380826588,-0.035124753,-0.0030543262,0.015882496
330,1436380826610,-0.03268129,-0.010995574,0.013744468
331,1436380826629,-0.032986723,-0.019242255,0.018936822
332,1436380826648,-0.03023783,-0.015882496,0.009162978
333,1436380826668,-0.029932396,-0.01160644,0.015271631
334,1436380826689,-0.030543262,-0.01038471,0.0070249503
335,1436380826710,-0.029932396,-0.013744468,0.0061086523
336,1436380826729,-0.028405234,-0.01863139,0.008246681
337,1436380826749,-0.032375857,-0.018936822,0.007941248
338,1436380826767,-0.039095376,-0.013133603,0.01740966
339,1436380826788,-0.034208454,-0.0015271631,0.016493361
340,1436380826820,-0.033292156,-0.004581489,0.014660766
341,1436380826826,-0.03023783,-0.0143553335,0.005497787
342,1436380826846,-0.03023783,-0.024740042,0.008552114
343,1436380826866,-0.02565634,-0.019547688,0.007330383
344,1436380826887,-0.029626964,0.0015271631,0.010995574
345,1436380826906,-0.029932396,0.018936822,0.015271631
346,1436380826926,-0.03390302,0.004276057,0.01740966
347,1436380826957,-0.03390302,-0.01038471,0.015882496
348,1436380826970,-0.032070424,-0.017104227,0.014966198
349,1436380826989,-0.03176499,-0.01740966,0.018325957
350,1436380827006,-0.029626964,-0.029321533,0.017715093
351,1436380827026,-0.032986723,-0.040927973,0.015577064
352,1436380827058,-0.029626964,-0.03390302,0.016187929
353,1436380827095,-0.027183503,-0.010079277,0.018020526
354,1436380827096,-0.02443461,-0.005192355,0.009468411
355,1436380827107,-0.025045475,-0.003970624,0.0018325958
356,1436380827128,-0.0290161,-0.0033597588,-0.0033597588
357,1436380827147,-0.02443461,-0.0036651916,0.0009162979
358,1436380827169,-0.022602014,-0.0070249503,0.0012217305
359,1436380827187,-0.02107485,-0.01038471,0.004581489
