id,attr_time,attr_x,attr_y,attr_z
1,1436380820029,-0.0145721,-0.00793457,-0.0119629
2,1436380820047,-0.0177765,-0.00686645,-0.0140991
3,1436380820066,-0.0231171,-0.00152588,-0.0183716
4,1436380820086,-0.0167084,0.000610352,-0.0194397
5,1436380820105,-0.0156403,0.00274658,-0.0205078
6,1436380820127,-0.013504,0.00167847,-0.0194397
7,1436380820146,-0.0145721,0.00167847,-0.0194397
8,1436380820163,-0.0145721,0.00595093,-0.0162354
9,1436380820185,-0.0102997,0.0102234,-0.0183716
10,1436380820204,-0.00923157,0.0123596,-0.0173035
11,1436380820227,-0.00175476,0.0102234,-0.0140991
12,1436380820245,-0.00175476,0.0134277,-0.00875854
13,1436380820264,0.00358582,0.0177002,-0.00769043
14,1436380820284,0.00572205,0.0187683,-0.00769043
15,1436380820304,-0.000686646,0.0134277,-0.00769043
16,1436380820326,-0.00495911,0.00595093,-0.00875854
17,1436380820343,-0.00282288,0.00274658,-0.00875854
18,1436380820364,-0.00175476,0.0038147,-0.0055542
19,1436380820382,-0.00175476,0.00488281,-0.00662231
20,1436380820403,0.00144958,0.0038147,-0.00769043
21,1436380820426,0.0025177,0.00274658,-0.00769043
22,1436380820443,-0.000686646,0.00274658,-0.00875854
23,1436380820462,-0.00495911,-0.00152588,-0.0108948
24,1436380820481,-0.00495911,-0.00259399,-0.0140991
25,1436380820502,-0.00816345,-0.00259399,-0.0119629
26,1436380820523,-0.00709534,-0.000457764,-0.0119629
27,1436380820542,-0.00495911,-0.00366211,-0.0119629
28,1436380820561,-0.00389099,-0.00152588,-0.0108948
29,1436380820581,-0.000686646,0.00167847,-0.0108948
30,1436380820600,0.00144958,0.000610352,-0.0108948
31,1436380820623,-0.00175476,-0.000457764,-0.00982666
32,1436380820641,-0.00175476,-0.00259399,-0.00982666
33,1436380820660,-0.00389099,-0.00366211,-0.00662231
34,1436380820679,-0.00282288,-0.00366211,-0.00662231
35,1436380820698,-0.00175476,-0.00473022,-0.0108948
36,1436380820720,-0.000686646,-0.00152588,-0.00982666
37,1436380820739,-0.00175476,0.00167847,-0.0055542
38,1436380820759,0.00144958,0.00167847,-0.00234985
39,1436380820779,0.00144958,-0.000457764,-0.00234985
40,1436380820797,0.00465393,0.000610352,0.00299072
41,1436380820819,0.00465393,0.000610352,0.00299072
42,1436380820837,0.00358582,0.000610352,0.00405884
43,1436380820858,0.00358582,-0.00152588,0.00192261
44,1436380820878,0.00038147,0.00274658,-0.000213623
45,1436380820899,0.0025177,0.00274658,-0.00234985
46,1436380820918,0.00038147,0.00274658,-0.00128174
47,1436380820937,0.00038147,0.0038147,0.000854492
48,1436380820957,-0.00175476,0.000610352,-0.000213623
49,1436380820977,-0.000686646,-0.00152588,0.000854492
50,1436380820999,0.00038147,-0.000457764,0.000854492
51,1436380821016,-0.00389099,0.0038147,-0.000213623
52,1436380821036,-0.00389099,0.00167847,-0.000213623
53,1436380821056,-0.00175476,0.00167847,-0.00341797
54,1436380821076,-0.00389099,0.00274658,-0.000213623
55,1436380821095,-0.00175476,0.000610352,0.00299072
56,1436380821114,0.00144958,0.00274658,0.0083313
57,1436380821136,0.00465393,0.00274658,0.0104675
58,1436380821154,0.00679016,0.00274658,0.00939941
59,1436380821175,0.00572205,0.00167847,0.0104675
60,1436380821198,0.00572205,0.0038147,0.0104675
61,1436380821214,0.00465393,0.00167847,0.00939941
62,1436380821234,0.00572205,0.0038147,0.00939941
63,1436380821253,0.0025177,0.00274658,0.00405884
64,1436380821274,0.00144958,0.0038147,-0.000213623
65,1436380821296,0.00038147,0.00488281,-0.000213623
66,1436380821314,-0.000686646,0.0038147,0.000854492
67,1436380821332,-0.00389099,0.00274658,0.000854492
68,1436380821353,-0.00389099,-0.00152588,-0.000213623
69,1436380821373,-0.00175476,-0.00152588,-0.00128174
70,1436380821393,-0.00602722,-0.00152588,-0.00128174
71,1436380821412,-0.00495911,-0.00259399,0.000854492
72,1436380821430,-0.00495911,-0.00152588,0.000854492
73,1436380821452,-0.00709534,-0.00473022,-0.00128174
74,1436380821471,-0.00816345,-0.00793457,0.00192261
75,1436380821494,-0.00175476,-0.00473022,0.00192261
76,1436380821511,-0.000686646,-0.00259399,0.00192261
77,1436380821531,-0.000686646,-0.00152588,-0.00128174
78,1436380821551,-0.000686646,-0.00259399,-0.000213623
79,1436380821571,0.0025177,0.000610352,-0.000213623
80,1436380821590,0.00572205,0.00488281,-0.00128174
81,1436380821611,0.00999451,0.0102234,-0.00234985
82,1436380821630,0.00465393,0.00808716,-0.00234985
83,1436380821648,-0.000686646,-0.00152588,-0.000213623
84,1436380821670,-0.00389099,-0.00473022,-0.000213623
85,1436380821689,-0.00389099,-0.00579834,-0.000213623
86,1436380821709,0.00144958,-0.00152588,-0.00128174
87,1436380821729,0.00144958,0.000610352,-0.00234985
88,1436380821747,0.00358582,0.00167847,-0.000213623
89,1436380821769,0.00038147,0.00274658,0.00192261
90,1436380821788,0.00038147,-0.000457764,-0.00128174
91,1436380821808,0.00144958,0.000610352,-0.00448608
92,1436380821828,-0.00282288,0.00167847,-0.00662231
93,1436380821848,-0.000686646,0.000610352,-0.00662231
94,1436380821868,-0.00175476,-0.00152588,-0.00448608
95,1436380821890,-0.00282288,-0.00259399,-0.00448608
96,1436380821908,0.0025177,-0.00152588,-0.00662231
97,1436380821926,-0.00602722,0.00167847,-0.0108948
98,1436380821947,0.00038147,0.0038147,-0.0119629
99,1436380821966,-0.000686646,0.00167847,-0.00448608
100,1436380821986,-0.00175476,-0.00259399,0.000854492
101,1436380822006,-0.00175476,-0.00152588,-0.00128174
102,1436380822027,0.00038147,-0.000457764,-0.00128174
103,1436380822046,0.00144958,0.000610352,0.000854492
104,1436380822064,-0.000686646,-0.000457764,-0.000213623
105,1436380822085,0.0025177,0.00167847,0.000854492
106,1436380822104,0.00358582,0.00167847,-0.000213623
107,1436380822127,0.00465393,0.00274658,-0.000213623
108,1436380822145,0.0025177,0.000610352,0.00192261
109,1436380822164,0.00358582,0.000610352,0.00192261
110,1436380822184,0.00038147,0.00167847,0.00405884
111,1436380822204,0.00038147,-0.000457764,-0.000213623
112,1436380822226,0.00038147,0.00167847,-0.000213623
113,1436380822242,0.00038147,0.0038147,-0.00448608
114,1436380822263,0.00038147,0.00488281,-0.00234985
115,1436380822282,-0.000686646,0.00595093,-0.00341797
116,1436380822303,-0.00175476,-0.000457764,-0.000213623
117,1436380822326,-0.00175476,-0.000457764,-0.00234985
118,1436380822343,-0.00495911,0.000610352,-0.00448608
119,1436380822362,-0.00495911,0.00167847,-0.00662231
120,1436380822380,-0.00495911,0.00274658,-0.0055542
121,1436380822402,-0.00389099,0.00488281,-0.00875854
122,1436380822424,-0.000686646,0.000610352,-0.00982666
123,1436380822442,-0.00175476,0.00274658,-0.0108948
124,1436380822461,-0.00389099,0.00274658,-0.013031
125,1436380822481,-0.00709534,0.0038147,-0.0162354
126,1436380822501,-0.00495911,0.00488281,-0.0173035
127,1436380822523,-0.00389099,0.00595093,-0.0194397
128,1436380822540,-0.0102997,0.00488281,-0.0205078
129,1436380822560,-0.00923157,0.00808716,-0.0247803
130,1436380822580,-0.00709534,0.00701904,-0.0269165
131,1436380822598,-0.0124359,0.00274658,-0.0247803
132,1436380822623,-0.013504,0.00274658,-0.0215759
133,1436380822640,-0.00923157,0.00274658,-0.0205078
134,1436380822659,-0.0102997,0.0038147,-0.0194397
135,1436380822678,-0.0102997,0.00274658,-0.0173035
136,1436380822697,-0.00923157,0.00274658,-0.0205078
137,1436380822721,-0.00816345,0.00488281,-0.0237122
138,1436380822738,-0.00602722,0.00488281,-0.0237122
139,1436380822758,-0.00495911,0.0038147,-0.0237122
140,1436380822778,-0.00923157,0.00488281,-0.0205078
141,1436380822798,-0.0102997,0.00167847,-0.0151672
142,1436380822820,-0.00282288,0.00701904,-0.0140991
143,1436380822837,0.00038147,0.0112915,-0.0183716
144,1436380822858,0.00144958,0.0123596,-0.0162354
145,1436380822875,-0.000686646,0.00488281,-0.0151672
146,1436380822897,0.00358582,-0.00259399,-0.0055542
147,1436380822918,0.00892639,0.00167847,-0.00128174
148,1436380822936,0.0174713,0.00808716,0.00192261
149,1436380822956,0.0164032,0.015564,-0.00234985
150,1436380822976,0.0153351,0.0123596,-0.00448608
151,1436380822996,0.00785828,0.00595093,-0.00448608
152,1436380823017,0.00465393,-0.000457764,-0.00448608
153,1436380823036,0.00358582,-0.000457764,-0.0055542
154,1436380823054,0.0025177,-0.000457764,-0.00769043
155,1436380823075,0.00465393,0.0038147,-0.00875854
156,1436380823094,0.00144958,0.00488281,-0.0108948
157,1436380823114,-0.000686646,0.0038147,-0.00875854
158,1436380823134,-0.00389099,-0.00152588,-0.00875854
159,1436380823157,-0.00709534,-0.00686645,-0.0108948
160,1436380823174,-0.00923157,-0.00793457,-0.0119629
161,1436380823192,-0.0102997,-0.00900269,-0.0151672
162,1436380823214,-0.0102997,-0.00793457,-0.0140991
163,1436380823232,-0.00923157,-0.00473022,-0.0140991
164,1436380823253,-0.00816345,-0.00686645,-0.0119629
165,1436380823273,-0.00389099,-0.00579834,-0.0108948
166,1436380823293,-0.00602722,-0.00473022,-0.0119629
167,1436380823312,-0.00816345,-0.00473022,-0.013031
168,1436380823331,-0.00389099,-0.00152588,-0.0151672
169,1436380823355,0.00465393,0.0038147,-0.0119629
170,1436380823373,0.00785828,0.00167847,-0.00769043
171,1436380823392,0.00572205,0.000610352,-0.000213623
172,1436380823411,0.00465393,-0.000457764,-0.000213623
173,1436380823431,0.00144958,-0.00152588,-0.000213623
174,1436380823454,0.00038147,0.000610352,-0.00234985
175,1436380823471,-0.00175476,0.00167847,-0.00234985
176,1436380823490,-0.000686646,0.00274658,-0.000213623
177,1436380823510,0.00038147,-0.000457764,0.00619507
178,1436380823530,-0.000686646,0.000610352,0.0104675
179,1436380823550,0.0025177,0.000610352,0.0115356
180,1436380823570,0.0025177,0.0038147,0.00939941
181,1436380823589,0.00144958,0.00274658,0.0136719
182,1436380823609,0.00038147,0.000610352,0.0136719
183,1436380823630,-0.00495911,-0.000457764,0.00939941
184,1436380823650,-0.00709534,0.000610352,0.00726318
185,1436380823669,-0.00816345,-0.000457764,0.00405884
186,1436380823687,-0.00175476,0.00274658,0.00939941
187,1436380823708,0.00358582,0.00167847,0.0168762
188,1436380823728,0.00892639,0.00167847,0.0211487
189,1436380823749,0.0164032,0.00595093,0.0190125
190,1436380823768,0.0185394,0.0123596,0.0200806
191,1436380823787,0.0196075,0.0123596,0.0179443
192,1436380823807,0.0153351,0.0102234,0.0179443
193,1436380823825,0.0121307,0.00701904,0.0168762
194,1436380823849,0.0110626,0.00488281,0.0158081
195,1436380823866,0.00465393,0.00701904,0.0104675
196,1436380823886,0.00679016,0.00915527,0.00619507
197,1436380823906,0.0110626,0.0134277,0.00405884
198,1436380823926,0.00999451,0.0102234,0.00512695
199,1436380823948,0.00679016,0.00488281,0.0104675
200,1436380823964,0.00679016,0.00274658,0.0126038
201,1436380823986,0.00785828,0.000610352,0.0136719
202,1436380824004,0.00785828,0.00274658,0.0104675
203,1436380824025,0.00572205,0.0038147,0.0104675
204,1436380824048,0.00785828,0.000610352,0.0083313
205,1436380824065,0.00572205,0.000610352,0.00939941
206,1436380824084,0.0025177,0.00167847,0.0083313
207,1436380824104,0.00038147,0.0038147,0.00405884
208,1436380824124,0.0025177,0.00274658,-0.00128174
209,1436380824142,0.00358582,0.000610352,0.000854492
210,1436380824164,0.00572205,0.000610352,0.0083313
211,1436380824182,0.00465393,-0.000457764,0.0104675
212,1436380824203,0.00999451,-0.000457764,0.0083313
213,1436380824223,0.00785828,-0.000457764,0.0115356
214,1436380824241,0.00572205,-0.000457764,0.0136719
215,1436380824262,0.00999451,0.00274658,0.0126038
216,1436380824284,0.0121307,0.00595093,0.0104675
217,1436380824302,0.0110626,0.00488281,0.00619507
218,1436380824321,0.00358582,0.00488281,-0.000213623
219,1436380824342,-0.000686646,-0.00259399,-0.00234985
220,1436380824362,-0.00282288,-0.00579834,-0.00234985
221,1436380824384,-0.00175476,-0.00473022,0.000854492
222,1436380824401,-0.00282288,-0.00473022,-0.00128174
223,1436380824421,-0.00175476,-0.00259399,-0.00341797
224,1436380824440,-0.00282288,0.000610352,-0.00769043
225,1436380824459,-0.00282288,-0.000457764,-0.00769043
226,1436380824483,-0.00282288,-0.000457764,-0.00662231
227,1436380824499,-0.00495911,-0.00473022,-0.00448608
228,1436380824520,-0.00389099,-0.00259399,-0.00448608
229,1436380824539,-0.00175476,0.000610352,-0.00341797
230,1436380824559,-0.00389099,0.00167847,-0.00448608
231,1436380824579,-0.00282288,0.0038147,-0.0055542
232,1436380824598,0.0025177,0.00274658,-0.00234985
233,1436380824619,0.00144958,0.00167847,0.000854492
234,1436380824638,-0.000686646,0.00167847,-0.000213623
235,1436380824658,-0.00175476,0.00167847,-0.00234985
236,1436380824678,-0.00175476,0.0038147,-0.00448608
237,1436380824698,-0.000686646,0.0038147,-0.00128174
238,1436380824718,0.00038147,0.000610352,0.00192261
239,1436380824737,0.0025177,0.00167847,0.00192261
240,1436380824758,0.0025177,0.00167847,-0.00128174
241,1436380824778,-0.00175476,0.00274658,-0.00341797
242,1436380824797,-0.000686646,0.0038147,-0.0055542
243,1436380824816,-0.00495911,0.00595093,-0.00875854
244,1436380824836,-0.00175476,0.0038147,-0.00662231
245,1436380824856,-0.00816345,0.00488281,-0.00662231
246,1436380824879,-0.00602722,0.000610352,-0.0055542
247,1436380824896,-0.00709534,0.00167847,-0.00982666
248,1436380824915,-0.00709534,0.00274658,-0.013031
249,1436380824935,-0.00495911,0.00701904,-0.0173035
250,1436380824955,-0.0188446,0.00274658,-0.0205078
251,1436380824977,-0.00709534,0.00167847,-0.0194397
252,1436380824995,-0.0113678,-0.000457764,-0.0173035
253,1436380825014,-0.0102997,0.00167847,-0.013031
254,1436380825034,-0.00816345,0.00274658,-0.0119629
255,1436380825054,-0.00816345,0.00167847,-0.013031
256,1436380825076,-0.00495911,0.000610352,-0.00982666
257,1436380825092,-0.00602722,0.000610352,-0.00982666
258,1436380825114,-0.000686646,0.00167847,-0.00769043
259,1436380825132,0.00038147,0.00167847,-0.00662231
260,1436380825153,0.00144958,0.00167847,-0.00662231
261,1436380825176,0.0025177,0.00167847,-0.00448608
262,1436380825193,-0.000686646,0.00167847,-0.00662231
263,1436380825212,-0.00389099,-0.000457764,-0.00769043
264,1436380825231,-0.00282288,0.00167847,-0.00769043
265,1436380825251,-0.00175476,0.0038147,-0.0055542
266,1436380825274,-0.000686646,0.00488281,-0.00234985
267,1436380825292,0.00144958,0.00167847,0.00299072
268,1436380825311,0.00144958,0.000610352,0.00405884
269,1436380825331,0.0025177,0.00274658,0.00405884
270,1436380825351,0.00358582,0.000610352,0.00512695
271,1436380825370,0.0025177,-0.000457764,0.00512695
272,1436380825391,0.00358582,0.000610352,0.00726318
273,1436380825409,0.00038147,0.000610352,0.0104675
274,1436380825430,0.0025177,0.000610352,0.0115356
275,1436380825449,0.00358582,-0.000457764,0.00939941
276,1436380825470,0.00465393,0.00488281,0.0083313
277,1436380825490,0.00785828,0.00488281,0.0083313
278,1436380825510,0.00999451,0.00701904,0.00939941
279,1436380825530,0.00892639,0.00167847,0.00726318
280,1436380825549,0.00679016,-0.000457764,0.0083313
281,1436380825568,0.00999451,0.00167847,0.00939941
282,1436380825589,0.00892639,0.00274658,0.00939941
283,1436380825611,0.00999451,0.00595093,0.0083313
284,1436380825628,0.00892639,0.00274658,0.00405884
285,1436380825648,0.00465393,-0.00152588,0.00192261
286,1436380825667,0.0025177,-0.00686645,0.00405884
287,1436380825687,0.0025177,-0.00900269,0.00619507
288,1436380825710,-0.000686646,-0.00793457,0.00512695
289,1436380825726,-0.00282288,-0.00473022,0.000854492
290,1436380825747,-0.00175476,-0.00152588,-0.00448608
291,1436380825765,-0.00602722,-0.000457764,-0.00769043
292,1436380825786,-0.00709534,-0.00259399,-0.0119629
293,1436380825809,-0.0102997,-0.00473022,-0.0108948
294,1436380825826,-0.0113678,-0.00686645,-0.0108948
295,1436380825846,-0.0102997,-0.00579834,-0.0108948
296,1436380825865,-0.0102997,-0.00366211,-0.013031
297,1436380825886,-0.00816345,-0.000457764,-0.013031
298,1436380825907,-0.00602722,-0.00152588,-0.0108948
299,1436380825925,-0.00495911,0.00274658,-0.00875854
300,1436380825945,-0.00175476,0.00167847,-0.0055542
301,1436380825964,-0.00175476,0.000610352,-0.0055542
302,1436380825984,-0.00282288,0.000610352,-0.0055542
303,1436380826007,-0.00175476,0.00274658,-0.00769043
304,1436380826024,-0.000686646,0.00274658,-0.0055542
305,1436380826042,-0.00175476,0.00488281,-0.00662231
306,1436380826063,0.00038147,0.00595093,-0.0055542
307,1436380826082,0.00144958,0.00701904,-0.0055542
308,1436380826103,0.0025177,0.0038147,-0.00234985
309,1436380826123,0.0025177,0.0038147,0.00192261
310,1436380826143,0.00038147,0.00167847,0.00405884
311,1436380826162,0.00038147,0.00167847,0.00192261
312,1436380826182,0.00144958,0.00274658,0.000854492
313,1436380826204,0.0025177,0.00488281,-0.000213623
314,1436380826222,-0.00175476,0.00595093,-0.00234985
315,1436380826241,-0.000686646,0.000610352,-0.00234985
316,1436380826261,-0.00282288,-0.00259399,-0.000213623
317,1436380826281,-0.00495911,-0.00259399,0.00299072
318,1436380826304,-0.00175476,-0.00366211,-0.00128174
319,1436380826321,-0.00709534,-0.00152588,-0.00234985
320,1436380826340,-0.00282288,-0.00152588,-0.00448608
321,1436380826359,-0.000686646,-0.000457764,-0.00128174
322,1436380826380,-0.00389099,-0.00152588,0.00192261
323,1436380826398,-0.00282288,-0.00366211,-0.000213623
324,1436380826420,-0.00175476,0.00167847,-0.00234985
325,1436380826440,-0.00282288,0.00167847,-0.00448608
326,1436380826459,-0.000686646,0.00595093,-0.0055542
327,1436380826480,0.00038147,0.00595093,-0.00448608
328,1436380826499,0.00038147,0.00274658,-0.00234985
329,1436380826519,0.00144958,0.00274658,-0.00128174
330,1436380826538,0.00358582,0.00274658,-0.00128174
331,1436380826558,0.00358582,0.00595093,-0.00128174
332,1436380826578,0.00465393,0.00488281,-0.00128174
333,1436380826598,0.0025177,0.00274658,0.00299072
334,1436380826618,0.00358582,0.00167847,0.00405884
335,1436380826637,0.00572205,-0.00152588,0.00512695
336,1436380826658,0.0025177,0.000610352,0.00405884
337,1436380826678,0.00465393,0.00274658,0.00299072
338,1436380826697,0.0025177,0.00274658,-0.00128174
339,1436380826716,0.00358582,0.0038147,-0.00234985
340,1436380826736,0.00144958,0.000610352,0.00299072
341,1436380826756,0.00358582,-0.00152588,0.00405884
342,1436380826779,0.0025177,-0.00366211,0.00512695
343,1436380826796,-0.000686646,-0.00152588,0.000854492
344,1436380826816,-0.00175476,-0.000457764,-0.00234985
345,1436380826835,-0.000686646,0.00167847,0.00192261
346,1436380826855,0.00144958,0.00167847,0.00299072
347,1436380826877,0.0025177,0.00274658,0.00512695
348,1436380826894,0.0131989,-0.000457764,0.0083313
349,1436380826915,0.0131989,0.0038147,0.0115356
350,1436380826934,0.014267,0.00808716,0.0126038
351,1436380826955,0.0164032,0.00915527,0.00939941
352,1436380826976,0.0110626,0.00595093,0.00405884
353,1436380826993,0.00572205,0.00167847,0.000854492
354,1436380827014,0.0025177,-0.000457764,-0.00234985
355,1436380827032,-0.000686646,-0.000457764,-0.00128174
356,1436380827053,0.00144958,-0.000457764,-0.00341797
357,1436380827074,0.00144958,0.00167847,-0.00128174
358,1436380827092,0.00038147,0.0038147,-0.00448608
359,1436380827113,-0.000686646,0.0038147,-0.00982666
360,1436380827132,-0.00175476,0.00167847,-0.00875854
361,1436380827152,-0.00495911,0.0038147,-0.00875854
362,1436380827174,-0.00602722,0.000610352,-0.00769043
363,1436380827192,-0.00709534,-0.00259399,-0.00982666
364,1436380827212,-0.00495911,-0.000457764,-0.0119629
365,1436380827230,-0.00709534,0.00274658,-0.013031
366,1436380827251,-0.000686646,0.0038147,-0.0119629
367,1436380827271,-0.00602722,0.00167847,-0.00875854
368,1436380827291,-0.00495911,0.000610352,-0.0108948
369,1436380827309,-0.00602722,-0.000457764,-0.013031
370,1436380827329,-0.00709534,0.00274658,-0.0119629
371,1436380827349,-0.00495911,0.000610352,-0.013031
372,1436380827373,-0.00602722,0.00274658,-0.0108948
373,1436380827390,0.00892639,-0.00152588,-0.0119629
374,1436380827409,-0.00923157,0.00167847,-0.0151672
375,1436380827429,0.0025177,0.00274658,-0.0108948
376,1436380827449,0.00144958,0.0038147,-0.0055542
377,1436380827469,-0.000686646,0.00167847,-0.00234985
378,1436380827489,0.00038147,-0.00259399,-0.000213623
379,1436380827508,0.00038147,-0.00686645,-0.000213623
380,1436380827527,0.00038147,-0.00259399,0.000854492
381,1436380827548,0.00144958,-0.00259399,-0.000213623
382,1436380827567,-0.000686646,0.000610352,-0.000213623
383,1436380827588,0.00038147,0.000610352,-0.00128174
384,1436380827608,-0.00175476,0.00167847,-0.00234985
