id,attr_time,attr_x,attr_y,attr_z
1,1436472360024,-0.00061086525,0.042455133,-0.01863139
2,1436472360046,-0.00030543262,0.043066,-0.018325957
3,1436472360067,-0.003970624,0.04184427,-0.008552114
4,1436472360086,-0.0143553335,0.036957346,0.002443461
5,1436472360104,-0.021991149,0.024740042,0.009162978
6,1436472360127,-0.021991149,0.02076942,0.018325957
7,1436472360147,-0.025350908,0.020158553,0.026267206
8,1436472360165,-0.022296581,0.006414085,0.029932396
9,1436472360187,-0.029626964,0.0030543262,0.035430185
10,1436472360207,-0.03145956,0.0021380284,0.03359759
11,1436472360226,-0.029932396,0.0070249503,0.024740042
12,1436472360245,-0.02687807,0.002443461,0.010995574
13,1436472360266,-0.021991149,0.004276057,0.0021380284
14,1436472360288,-0.018936822,0.0143553335,0.005192355
15,1436472360310,-0.016798794,0.013439035,-0.004581489
16,1436472360330,-0.0143553335,0.005497787,-0.004581489
17,1436472360348,-0.0061086523,0.00030543262,-0.01863139
18,1436472360366,0.01282817,0.0061086523,-0.015577064
19,1436472360386,0.0143553335,-0.00061086525,-0.015882496
20,1436472360407,0.02687807,-0.00061086525,-0.028099801
21,1436472360426,0.027794369,0.0125227375,-0.040927973
22,1436472360448,0.027794369,0.028405234,-0.047036625
23,1436472360511,0.029932396,0.03848451,-0.060170226
24,1436472360512,0.024740042,0.054367006,-0.0580322
25,1436472360513,0.01740966,0.061391957,-0.06414085
26,1436472360526,0.004276057,0.06841691,-0.06719518
27,1436472360548,-0.005497787,0.08399397,-0.06566802
28,1436472360565,-0.012217305,0.13439035,-0.06414085
29,1436472360585,-0.011301007,0.2049453,-0.0711658
30,1436472360608,-0.0061086523,0.22876903,-0.07452556
31,1436472360626,-0.004276057,0.21655174,-0.07819075
32,1436472360646,-0.0030543262,0.20189096,-0.073303826
33,1436472360666,0.0033597588,0.18570304,-0.06078109
34,1436472360685,-0.0033597588,0.15668693,-0.049785517
35,1436472360705,0.0027488936,0.1414153,-0.039095376
36,1436472360728,-0.00580322,0.122478485,-0.03359759
37,1436472360748,-0.008246681,0.086132,-0.0290161
38,1436472360768,-0.016798794,0.046731193,-0.024740042
39,1436472360788,-0.02565634,0.0290161,-0.02687807
40,1436472360809,-0.021991149,0.06383542,-0.034513887
41,1436472360828,-0.020158553,0.13255776,-0.040317107
42,1436472360848,-0.029932396,0.15393804,-0.038179077
43,1436472360868,-0.034513887,0.12186762,-0.032986723
44,1436472360888,-0.032070424,0.10140363,-0.025045475
45,1436472360907,-0.04337143,0.084910266,-0.014049901
46,1436472360928,-0.051923547,0.05467244,0.00580322
47,1436472360948,-0.049480084,0.006414085,0.016493361
48,1436472360967,-0.05100725,-0.01740966,0.015577064
49,1436472360990,-0.053450707,-0.0125227375,0.021991149
50,1436472361009,-0.051618114,0.00030543262,0.03176499
51,1436472361031,-0.049785517,0.004276057,0.029321533
52,1436472361055,-0.053145275,-0.0027488936,0.023823744
53,1436472361069,-0.038789943,0.0012217305,0.0106901415
54,1436472361087,-0.029626964,0.018020526,0.0
55,1436472361108,-0.015577064,0.049785517,-0.018936822
56,1436472361127,-0.010995574,0.07513642,-0.028405234
57,1436472361146,-0.017715093,0.07544186,-0.021380283
58,1436472361168,-0.029321533,0.058948494,-0.0143553335
59,1436472361214,-0.039095376,0.02321288,-0.0076358155
60,1436472361215,-0.044593163,0.0033597588,-0.005192355
61,1436472361234,-0.046120327,0.00061086525,0.012217305
62,1436472361245,-0.04642576,-0.015577064,0.02565634
63,1436472361267,-0.053145275,-0.037873644,0.020463986
64,1436472361287,-0.04795292,-0.03848451,0.013744468
65,1436472361306,-0.047647487,-0.017715093,0.007330383
66,1436472361328,-0.03940081,0.005192355,-0.0070249503
67,1436472361347,-0.029932396,0.013439035,-0.017715093
68,1436472361367,-0.018936822,0.03145956,-0.03023783
69,1436472361386,-0.013744468,0.03176499,-0.038789943
70,1436472361409,-0.014049901,0.03756821,-0.04153884
71,1436472361425,-0.009773844,0.04337143,-0.03481932
72,1436472361449,-0.015882496,0.049480084,-0.03145956
73,1436472361469,-0.023823744,0.044898596,-0.03176499
74,1436472361489,-0.037873644,0.05131268,-0.019547688
75,1436472361509,-0.04428773,0.07513642,-0.0106901415
76,1436472361529,-0.046120327,0.08093964,0.00580322
77,1436472361548,-0.05681047,0.053450707,0.024129177
78,1436472361569,-0.06169739,0.013744468,0.01985312
79,1436472361589,-0.06872234,0.0125227375,0.018936822
80,1436472361607,-0.070249505,0.023823744,0.02076942
81,1436472361628,-0.073303826,0.018936822,0.01282817
82,1436472361649,-0.06658431,0.020463986,0.009773844
83,1436472361666,-0.058948494,0.03359759,-0.0033597588
84,1436472361686,-0.05467244,0.04795292,-0.0125227375
85,1436472361708,-0.04520403,0.050396383,-0.021991149
86,1436472361731,-0.048563786,0.05681047,-0.018936822
87,1436472361751,-0.045814894,0.05467244,-0.0076358155
88,1436472361771,-0.054367006,0.0571159,0.002443461
89,1436472361789,-0.06658431,0.046731193,0.007941248
90,1436472361807,-0.07452556,0.031154128,0.008857546
91,1436472361827,-0.06566802,0.017715093,0.016187929
92,1436472361847,-0.069027774,0.009162978,0.024740042
93,1436472361868,-0.058643065,-0.01863139,0.01985312
94,1436472361889,-0.056199603,-0.0421497,0.009162978
95,1436472361952,-0.050701816,-0.051618114,0.002443461
96,1436472361953,-0.03726278,-0.04153884,-0.009773844
97,1436472361954,-0.034513887,-0.02565634,-0.021380283
98,1436472361967,-0.028099801,-0.0067195175,-0.02565634
99,1436472361991,-0.032070424,0.0036651916,-0.020158553
100,1436472362012,-0.03359759,0.01160644,-0.018020526
101,1436472362028,-0.032375857,0.0027488936,-0.020158553
102,1436472362046,-0.030543262,0.008857546,-0.01740966
103,1436472362070,-0.028099801,0.030543262,-0.019547688
104,1436472362088,-0.032986723,0.03970624,-0.019242255
105,1436472362117,-0.03970624,0.04337143,-0.015271631
106,1436472362128,-0.03176499,0.04153884,-0.025045475
107,1436472362154,-0.029321533,0.04550946,-0.027183503
108,1436472362167,-0.02076942,0.041233405,-0.029321533
109,1436472362190,-0.026267206,0.03390302,-0.035124753
110,1436472362209,-0.032375857,0.016493361,-0.033292156
111,1436472362230,-0.027183503,0.017104227,-0.03634648
112,1436472362250,-0.020158553,0.018325957,-0.03573562
113,1436472362270,-0.014966198,0.03023783,-0.03970624
114,1436472362289,-0.013439035,0.038179077,-0.03756821
115,1436472362311,-0.015577064,0.03848451,-0.03940081
116,1436472362330,-0.015271631,0.04642576,-0.044593163
117,1436472362350,-0.013744468,0.0580322,-0.046120327
118,1436472362369,-0.011301007,0.06536258,-0.042455133
119,1436472362387,-0.01740966,0.0571159,-0.03940081
120,1436472362408,-0.023518313,0.04734206,-0.029932396
121,1436472362430,-0.028405234,0.05009095,-0.022296581
122,1436472362450,-0.035124753,0.049480084,-0.018325957
123,1436472362470,-0.044898596,0.05009095,-0.013439035
124,1436472362488,-0.03940081,0.05681047,-0.0033597588
125,1436472362510,-0.024129177,0.059864793,-0.004886922
126,1436472362530,-0.01160644,0.04520403,-0.01985312
127,1436472362574,0.007330383,0.032070424,-0.03268129
128,1436472362575,0.016187929,0.025961773,-0.04550946
129,1436472362630,0.025045475,0.036651913,-0.05589417
130,1436472362631,0.031154128,0.04520403,-0.059864793
131,1436472362632,0.03359759,0.043982297,-0.06688975
132,1436472362669,0.0290161,0.05131268,-0.07452556
133,1436472362670,0.02107485,0.07880162,-0.07574729
134,1436472362687,0.022602014,0.12064589,-0.0870483
135,1436472362724,0.01985312,0.17684549,-0.08979719
136,1436472362794,0.005192355,0.14477506,-0.076358154
137,1436472362795,0.0015271631,0.05589417,-0.0720821
138,1436472362796,0.00030543262,0.02687807,-0.07452556
139,1436472362797,0.008552114,0.050396383,-0.07422013
140,1436472362807,0.009468411,0.052839845,-0.06780604
141,1436472362837,-0.00061086525,0.039095376,-0.06536258
142,1436472362847,-0.0106901415,0.018325957,-0.06078109
143,1436472362867,-0.013439035,0.008246681,-0.05681047
144,1436472362889,-0.0125227375,0.0076358155,-0.049480084
145,1436472362909,-0.0125227375,0.009773844,-0.040011674
146,1436472362927,-0.011301007,-0.00030543262,-0.041233405
147,1436472362947,-0.021991149,0.00061086525,-0.03634648
148,1436472362970,-0.02321288,-0.0015271631,-0.03970624
149,1436472362990,-0.023518313,0.0106901415,-0.040317107
150,1436472363008,-0.027794369,0.018020526,-0.032986723
151,1436472363029,-0.025350908,0.027183503,-0.023823744
152,1436472363047,-0.025350908,0.028405234,-0.020158553
153,1436472363068,-0.0125227375,0.013744468,-0.02321288
154,1436472363088,-0.01282817,0.01282817,-0.028405234
155,1436472363111,-0.020463986,0.04428773,-0.018325957
156,1436472363130,-0.027488936,0.061086524,-0.013133603
157,1436472363150,-0.027488936,0.058948494,-0.0012217305
158,1436472363170,-0.027794369,0.050701816,0.010079277
159,1436472363188,-0.021991149,0.050396383,0.014660766
160,1436472363211,-0.004886922,0.057421334,0.0027488936
161,1436472363230,0.009773844,0.05467244,-0.009468411
162,1436472363250,0.0061086523,0.049785517,-0.018020526
163,1436472363271,0.015882496,0.05222898,-0.032375857
164,1436472363291,0.013744468,0.064446285,-0.015577064
165,1436472363310,0.007330383,0.063224554,0.0030543262
166,1436472363339,0.0143553335,0.052534413,0.015577064
167,1436472363348,0.010079277,0.026572637,0.029321533
168,1436472363371,0.002443461,0.03359759,0.032070424
169,1436472363391,-0.003970624,0.03359759,0.034513887
170,1436472363412,-0.0061086523,0.04062254,0.042455133
171,1436472363431,-0.0033597588,0.03481932,0.046120327
172,1436472363455,0.008857546,0.031154128,0.044593163
173,1436472363516,0.016798794,0.029932396,0.029626964
174,1436472363517,0.0070249503,0.03481932,0.016798794
175,1436472363518,0.005192355,0.03268129,0.006414085
176,1436472363527,0.003970624,0.031154128,-0.0018325958
177,1436472363551,0.013133603,0.049785517,-0.00030543262
178,1436472363567,0.016798794,0.054367006,0.0030543262
179,1436472363588,0.020158553,0.03176499,-0.0012217305
180,1436472363610,0.019242255,0.011911872,-0.014966198
181,1436472363629,0.015882496,0.008552114,-0.018936822
182,1436472363649,0.009773844,0.018325957,-0.018325957
183,1436472363668,0.009773844,0.022907447,-0.008552114
184,1436472363689,0.005497787,0.020463986,-0.0015271631
185,1436472363709,0.0076358155,0.023518313,-0.0012217305
186,1436472363731,0.0021380284,0.021991149,0.0061086523
187,1436472363751,-0.0015271631,0.01282817,0.007941248
188,1436472363771,0.00030543262,0.015577064,0.004276057
189,1436472363791,0.005497787,0.023518313,0.004886922
190,1436472363810,0.007330383,0.014049901,-0.00061086525
191,1436472363831,0.0125227375,0.015577064,-0.008246681
192,1436472363851,0.024740042,0.038179077,-0.021380283
193,1436472363870,0.02687807,0.07391469,-0.02321288
194,1436472363890,0.020463986,0.08735373,-0.021380283
195,1436472363911,0.0061086523,0.076358154,-0.014660766
196,1436472363931,0.004276057,0.06352998,-0.0070249503
197,1436472363951,-0.0033597588,0.04184427,-0.009468411
198,1436472363985,-0.0030543262,0.03604105,-0.0143553335
199,1436472363990,-0.007330383,0.03390302,-0.01160644
200,1436472364012,-0.010995574,0.032070424,-0.008857546
201,1436472364030,-0.013133603,0.026572637,-0.005192355
202,1436472364051,-0.0106901415,0.0106901415,-0.0070249503
203,1436472364068,-0.013439035,-0.0027488936,-0.0076358155
204,1436472364088,-0.0143553335,0.002443461,-0.014049901
205,1436472364108,-0.018936822,0.009162978,-0.013744468
206,1436472364129,-0.023823744,0.011301007,-0.01740966
207,1436472364148,-0.01282817,0.011911872,-0.017715093
208,1436472364201,-0.0018325958,0.018020526,-0.023823744
209,1436472364202,-0.0076358155,0.01985312,-0.019547688
210,1436472364213,-0.016798794,0.027794369,-0.0125227375
211,1436472364234,-0.022602014,0.035124753,0.011301007
212,1436472364248,-0.014049901,0.03634648,0.026267206
213,1436472364271,-0.0070249503,0.026267206,0.024129177
214,1436472364288,-0.002443461,0.014966198,0.011301007
215,1436472364310,0.007330383,0.014660766,-0.013439035
216,1436472364330,0.010995574,0.027183503,-0.023518313
217,1436472364350,0.02076942,0.036651913,-0.02687807
218,1436472364370,0.036651913,0.035430185,-0.030543262
219,1436472364390,0.040927973,0.011911872,-0.033292156
220,1436472364410,0.043066,-0.0018325958,-0.041233405
221,1436472364432,0.041233405,0.0067195175,-0.049480084
222,1436472364452,0.044898596,0.03145956,-0.058948494
223,1436472364472,0.03970624,0.044898596,-0.06414085
224,1436472364492,0.03634648,0.055283304,-0.07422013
225,1436472364510,0.03634648,0.079107046,-0.077579886
226,1436472364530,0.028099801,0.09682214,-0.061086524
227,1436472364552,0.024740042,0.09560041,-0.04917465
228,1436472364572,0.023823744,0.05955936,-0.040317107
229,1436472364592,0.021991149,0.034513887,-0.03481932
230,1436472364610,0.021380283,0.03481932,-0.03970624
231,1436472364630,0.011301007,0.038179077,-0.03023783
232,1436472364652,0.01740966,0.019547688,-0.03573562
233,1436472364671,0.01985312,0.006414085,-0.04550946
234,1436472364691,0.022602014,0.008857546,-0.05222898
235,1436472364709,0.022296581,0.028710667,-0.0571159
236,1436472364731,0.01282817,0.036957346,-0.048563786
237,1436472364752,0.00580322,0.036651913,-0.032375857
238,1436472364772,0.0027488936,0.017104227,-0.023823744
239,1436472364792,0.004276057,0.011301007,-0.025045475
240,1436472364809,0.0012217305,0.017104227,-0.027794369
241,1436472364831,-0.0027488936,0.03268129,-0.03176499
242,1436472364849,-0.0070249503,0.04642576,-0.032375857
243,1436472364868,-0.008857546,0.07238753,-0.03390302
244,1436472364922,-0.011301007,0.09590584,-0.037873644
245,1436472364923,-0.009162978,0.09010262,-0.040011674
246,1436472364938,-0.012217305,0.07971791,-0.032986723
247,1436472364949,-0.015271631,0.082161374,-0.024740042
248,1436472364972,-0.009162978,0.07391469,-0.028405234
249,1436472364989,-0.0012217305,0.05681047,-0.028710667
250,1436472365009,0.002443461,0.040927973,-0.046731193
251,1436472365030,0.0067195175,0.03970624,-0.055283304
252,1436472365053,-0.0015271631,0.06078109,-0.05955936
253,1436472365080,0.0036651916,0.08002335,-0.04917465
254,1436472365089,0.005497787,0.07971791,-0.04153884
255,1436472365110,0.01282817,0.04886922,-0.038789943
256,1436472365130,0.022296581,0.025961773,-0.052839845
257,1436472365152,0.01863139,0.02443461,-0.058337633
258,1436472365172,0.009162978,0.04428773,-0.056505036
259,1436472365192,0.00580322,0.052839845,-0.043982297
260,1436472365210,0.008552114,0.020463986,-0.034513887
261,1436472365231,0.00580322,-0.004886922,-0.032070424
262,1436472365252,-0.006414085,-0.009162978,-0.03176499
263,1436472365272,-0.015577064,0.016187929,-0.024129177
264,1436472365292,-0.029626964,0.021380283,-0.009468411
265,1436472365310,-0.042760566,0.0027488936,0.0061086523
266,1436472365330,-0.04520403,-0.0033597588,0.014966198
267,1436472365351,-0.046731193,-0.01282817,0.024129177
268,1436472365370,-0.044898596,-0.01038471,0.022602014
269,1436472365391,-0.043066,-0.002443461,0.027488936
270,1436472365410,-0.03848451,0.006414085,0.03023783
271,1436472365430,-0.032070424,0.017715093,0.03176499
272,1436472365453,-0.02107485,0.025961773,0.032375857
273,1436472365472,-0.017715093,0.024740042,0.030848695
274,1436472365492,-0.017104227,0.025045475,0.012217305
275,1436472365512,-0.017104227,0.03726278,0.004276057
276,1436472365531,-0.014966198,0.05497787,0.00061086525
277,1436472365553,-0.0125227375,0.06414085,0.00061086525
278,1436472365570,-0.01038471,0.05467244,0.008246681
279,1436472365590,-0.011301007,0.04062254,0.007941248
280,1436472365611,-0.013133603,0.039095376,0.0033597588
281,1436472365630,-0.014660766,0.044593163,0.0
282,1436472365676,-0.01160644,0.057421334,-0.003970624
283,1436472365677,-0.01160644,0.0571159,-0.004581489
284,1436472365695,-0.016493361,0.050396383,-0.00030543262
285,1436472365710,-0.008857546,0.0421497,0.0
286,1436472365730,-0.011301007,0.03848451,-0.005192355
287,1436472365750,-0.010995574,0.04520403,-0.007330383
288,1436472365770,-0.015882496,0.050396383,-0.005192355
289,1436472365790,-0.015271631,0.03940081,-0.0018325958
290,1436472365811,-0.020158553,0.03634648,-0.0033597588
291,1436472365831,-0.018325957,0.018325957,-0.010079277
292,1436472365850,-0.014049901,0.026267206,-0.005497787
293,1436472365871,-0.010995574,0.029932396,-0.013744468
294,1436472365892,-0.019547688,0.030543262,-0.015577064
295,1436472365911,-0.016493361,0.039095376,-0.016187929
296,1436472365933,-0.013744468,0.04153884,-0.017104227
297,1436472365953,-0.00030543262,0.021991149,-0.026572637
298,1436472365973,0.0036651916,0.019242255,-0.039095376
299,1436472365992,0.0036651916,0.0290161,-0.05131268
300,1436472366013,0.009162978,0.04520403,-0.04550946
301,1436472366036,0.01282817,0.04184427,-0.050396383
302,1436472366054,0.016187929,0.028099801,-0.049785517
303,1436472366073,0.016493361,0.01985312,-0.051923547
304,1436472366093,0.013439035,0.022907447,-0.047647487
305,1436472366111,0.011911872,0.034513887,-0.042760566
306,1436472366131,0.00580322,0.032375857,-0.042760566
307,1436472366151,0.0070249503,0.03359759,-0.03726278
308,1436472366171,0.0030543262,0.0290161,-0.040317107
309,1436472366193,-0.00061086525,0.0290161,-0.04153884
310,1436472366213,-0.009773844,0.027183503,-0.038789943
311,1436472366233,-0.010079277,0.025961773,-0.032070424
312,1436472366253,-0.0076358155,0.016187929,-0.02565634
313,1436472366273,-0.016187929,-0.00061086525,-0.02076942
314,1436472366294,-0.025961773,0.021380283,-0.018936822
315,1436472366312,-0.027794369,0.03145956,-0.008246681
316,1436472366341,-0.02687807,0.0290161,-0.0033597588
317,1436472366393,-0.025961773,0.020463986,0.008857546
318,1436472366394,-0.02565634,0.002443461,0.0033597588
319,1436472366395,-0.023518313,0.0027488936,-0.0076358155
320,1436472366414,-0.026267206,0.0143553335,-0.0143553335
321,1436472366431,-0.026572637,0.033292156,-0.016187929
322,1436472366452,-0.02687807,0.019242255,-0.013744468
323,1436472366472,-0.028405234,-0.0012217305,-0.008552114
324,1436472366492,-0.025350908,0.009773844,-0.004276057
325,1436472366513,-0.029321533,0.013133603,-0.004276057
326,1436472366530,-0.029321533,0.014049901,-0.004276057
327,1436472366552,-0.025350908,0.021685716,-0.0061086523
328,1436472366571,-0.015882496,0.03390302,-0.009162978
329,1436472366593,-0.01160644,0.03940081,-0.015882496
330,1436472366614,-0.0027488936,0.04062254,-0.021991149
331,1436472366631,0.0027488936,0.043066,-0.02107485
332,1436472366654,-0.003970624,0.04153884,-0.018936822
333,1436472366674,-0.0067195175,0.04642576,-0.018020526
334,1436472366693,-0.0076358155,0.047036625,-0.020463986
335,1436472366714,-0.007941248,0.04337143,-0.018936822
336,1436472366734,-0.009162978,0.03940081,-0.017104227
337,1436472366753,-0.007941248,0.027488936,-0.013439035
338,1436472366774,-0.025350908,0.01985312,-0.007941248
339,1436472366793,-0.03390302,0.023518313,-0.00061086525
340,1436472366811,-0.03145956,0.028405234,0.0030543262
341,1436472366834,-0.02687807,0.02565634,-0.00030543262
342,1436472366851,-0.021380283,0.013133603,0.0012217305
343,1436472366871,-0.02565634,0.015577064,0.0015271631
344,1436472366891,-0.03481932,0.023518313,0.0018325958
345,1436472366913,-0.032986723,0.019547688,0.0030543262
346,1436472366934,-0.028099801,0.014049901,0.005497787
347,1436472366953,-0.018936822,0.004886922,0.003970624
348,1436472366974,-0.015577064,0.00061086525,-0.005192355
349,1436472366997,-0.022602014,0.011301007,-0.005192355
350,1436472367014,-0.023823744,0.028405234,-0.015271631
351,1436472367032,-0.019547688,0.041233405,-0.014966198
352,1436472367152,-0.0067195175,0.037873644,-0.02076942
353,1436472367153,-0.003970624,0.028405234,-0.026572637
354,1436472367154,-0.006414085,0.01985312,-0.029321533
355,1436472367155,-0.0036651916,0.0290161,-0.036651913
356,1436472367156,-0.0018325958,0.03390302,-0.035124753
357,1436472367157,-0.005497787,0.03023783,-0.027183503
358,1436472367172,-0.0027488936,0.028710667,-0.027488936
359,1436472367196,-0.0033597588,0.028405234,-0.024740042
360,1436472367211,-0.013439035,0.03268129,-0.021380283
361,1436472367231,-0.013439035,0.03268129,-0.019547688
362,1436472367252,-0.008552114,0.03145956,-0.020463986
363,1436472367274,-0.0012217305,0.031154128,-0.021685716
364,1436472367292,-0.0018325958,0.03390302,-0.027488936
