id,attr_time,attr_x,attr_y,attr_z
1,1437232431028,-0.056690946,-0.009070013,0.009574647
2,1437232431049,-0.056385513,-0.014873233,0.009574647
3,1437232431069,-0.05272032,-0.009375446,0.003771427
4,1437232431136,-0.05394205,-0.0057102554,0.0031605624
5,1437232431137,-0.047833398,-0.0032667927,0.0010225335
6,1437232431138,-0.047222532,-0.011208041,0.0043822927
7,1437232431147,-0.047222532,-0.017316693,0.0049931575
8,1437232431168,-0.047833398,-0.013040636,0.0013279663
9,1437232431188,-0.03744869,-0.019760154,-0.00019919686
10,1437232431207,-0.038975853,-0.03350462,0.008963782
11,1437232431228,-0.05852354,-0.037169814,0.024235412
12,1437232431248,-0.039892152,-0.019760154,0.0077420515
13,1437232431268,-0.03439436,-0.023730779,0.000106235966
14,1437232431287,-0.029507441,-0.019760154,-0.0005046297
15,1437232431307,-0.043557342,-0.02159275,-0.0008100625
16,1437232431328,-0.046000805,-0.02159275,0.0077420515
17,1437232431348,-0.047527965,-0.032282893,0.015683299
18,1437232431368,-0.05241489,-0.04938712,0.017515896
19,1437232431387,-0.05119316,-0.049081687,0.020875655
20,1437232431432,-0.048749696,-0.039613273,0.020570222
21,1437232431437,-0.043862775,-0.03900241,0.026373442
22,1437232431448,-0.038975853,-0.037169814,0.029427767
23,1437232431468,-0.041113883,-0.037169814,0.030954931
24,1437232431488,-0.034088932,-0.03197746,0.022097385
25,1437232431508,-0.03867042,-0.033810057,0.017210463
26,1437232431528,-0.037754122,-0.021898182,0.0144615695
27,1437232431548,-0.038364988,-0.022203615,0.013239838
28,1437232431567,-0.039892152,-0.018538423,0.012934406
29,1437232431587,-0.04019758,-0.020065587,0.012934406
30,1437232431608,-0.046000805,-0.031061161,0.020875655
31,1437232431628,-0.045084506,-0.03869698,0.019043058
32,1437232431647,-0.041113883,-0.040835004,0.028816901
33,1437232431668,-0.038059555,-0.04052957,0.019043058
34,1437232431688,-0.020955328,-0.031672027,0.016294165
35,1437232431711,-0.028896576,-0.051525146,0.01812676
36,1437232431732,-0.03867042,-0.050303414,0.018737625
37,1437232431749,-0.03042374,-0.034115486,0.014156137
38,1437232431769,-0.024009654,-0.02983943,0.0019388311
39,1437232431789,-0.017901003,-0.03350462,-0.0032535233
40,1437232431809,-0.03134004,-0.03655895,0.0010225335
41,1437232431827,-0.04538994,-0.04052957,-0.0008100625
42,1437232431852,-0.046306238,-0.035948083,0.003771427
43,1437232431869,-0.045084506,-0.04847082,0.010185512
44,1437232431887,-0.049665995,-0.042973034,0.0074366187
45,1437232431911,-0.05027686,-0.04144587,0.004687725
46,1437232431930,-0.050582293,-0.038391545,0.0077420515
47,1437232431948,-0.045695372,-0.0445002,0.010796377
48,1437232431968,-0.041113883,-0.03655895,0.0065203207
49,1437232431990,-0.03867042,-0.033810057,0.0059094555
50,1437232432011,-0.041113883,-0.04052957,0.0059094555
51,1437232432031,-0.04325191,-0.031061161,0.011712675
52,1437232432050,-0.029812874,-0.03289376,0.008047484
53,1437232432068,-0.030118307,-0.035031784,0.011407243
54,1437232432092,-0.02339879,-0.0286177,0.0068257535
55,1437232432181,-0.019122733,-0.025563374,0.0065203207
56,1437232432182,-0.015762974,-0.028923132,0.0068257535
57,1437232432183,-0.022787925,-0.023119913,0.011407243
58,1437232432184,-0.019428166,-0.02037102,0.007131186
59,1437232432209,-0.0053782645,-0.014262367,-0.0066132816
60,1437232432210,-0.019122733,-0.021287316,0.0025496967
61,1437232432229,-0.028896576,-0.02983943,-0.0008100625
62,1437232432250,-0.012097782,0.0052853227,-0.0050861193
63,1437232432269,-0.010265186,-0.00021246448,-0.003864388
64,1437232432334,-0.015457541,-0.00296136,-0.002031793
65,1437232432335,-0.04019758,-0.010902608,-0.005696985
66,1437232432336,-0.04447364,0.0025364272,-0.005391552
67,1437232432370,-0.046000805,0.0010092631,-0.0032535233
68,1437232432371,-0.05485835,-0.012124339,0.005604023
69,1437232432389,-0.047833398,-0.015484098,0.0025496967
70,1437232432409,-0.050887726,-0.0075428486,0.00407686
71,1437232432431,-0.0469171,-0.00662655,0.0062148883
72,1437232432452,-0.050582293,-0.012124339,0.0074366187
73,1437232432473,-0.059439838,-0.019149289,0.010796377
74,1437232432492,-0.06310503,-0.01578953,0.005604023
75,1437232432513,-0.06402133,-0.016705828,0.003771427
76,1437232432532,-0.0618833,-0.0057102554,0.0068257535
77,1437232432551,-0.05485835,-0.0054048225,0.00988008
78,1437232432569,-0.04019758,-0.0038776584,0.00988008
79,1437232432596,-0.033478066,0.0016201288,0.01690503
80,1437232432612,-0.029812874,-0.007848281,0.02026479
81,1437232432632,-0.03042374,-0.014873233,0.019653924
82,1437232432652,-0.044168208,-0.014262367,0.016599597
83,1437232432673,-0.03744869,-0.01701126,0.012323541
84,1437232432692,-0.026147682,-0.019760154,0.017515896
85,1437232432709,-0.038975853,-0.046638224,0.029122334
86,1437232432730,-0.03867042,-0.039918706,0.025762577
87,1437232432751,-0.023093358,-0.025257941,0.025457144
88,1437232432770,-0.019122733,-0.031672027,0.010185512
89,1437232432789,-0.02217706,-0.025257941,0.008352917
90,1437232432811,-0.034088932,-0.032588325,0.010796377
91,1437232432830,-0.040503018,-0.031366594,0.010490945
92,1437232432860,-0.044779073,-0.041751303,0.019959357
93,1437232432915,-0.0469171,-0.045416493,0.01690503
94,1437232432916,-0.05027686,-0.043889333,0.015988732
95,1437232432917,-0.05241489,-0.03900241,0.016294165
96,1437232432933,-0.04538994,-0.04022414,0.021791952
97,1437232432951,-0.047527965,-0.044194765,0.02392998
98,1437232432969,-0.049360562,-0.03900241,0.01812676
99,1437232432989,-0.049665995,-0.03778068,0.017210463
100,1437232433009,-0.043557342,-0.033810057,0.010185512
101,1437232433029,-0.039892152,-0.025563374,0.010796377
102,1437232433064,-0.037754122,-0.031672027,0.012323541
103,1437232433082,-0.041113883,-0.033810057,0.0065203207
104,1437232433089,-0.046306238,-0.030755728,0.0034659943
105,1437232433109,-0.04661167,-0.024647076,0.0068257535
106,1437232433129,-0.05027686,-0.02281448,0.009574647
107,1437232433149,-0.060356136,-0.013346069,0.008352917
108,1437232433173,-0.048444264,-0.0075428486,0.0019388311
109,1437232433190,-0.0469171,-0.018843856,0.0031605624
110,1437232433210,-0.059439838,-0.034115486,0.011407243
111,1437232433230,-0.05272032,-0.019760154,0.0065203207
112,1437232433253,-0.048444264,-0.017622126,0.0034659943
113,1437232433270,-0.043557342,-0.0115134735,0.0016333992
114,1437232433292,-0.05119316,-0.0020450614,-0.0026426576
115,1437232433316,-0.057912678,-0.009375446,0.003771427
116,1437232433330,-0.06371589,-0.02281448,0.013850704
117,1437232433350,-0.06341046,-0.0426676,0.016294165
118,1437232433374,-0.057301812,-0.04602736,0.024235412
119,1437232433393,-0.054247484,-0.043889333,0.022402817
120,1437232433412,-0.055163782,-0.047859956,0.025151711
121,1437232433430,-0.049665995,-0.04938712,0.027595172
122,1437232433452,-0.048444264,-0.05060885,0.03187123
123,1437232433475,-0.043862775,-0.04602736,0.030344065
124,1437232433494,-0.04447364,-0.058244664,0.028816901
125,1437232433512,-0.049971428,-0.057328366,0.035841852
126,1437232433533,-0.049665995,-0.060382694,0.034009255
127,1437232433550,-0.043862775,-0.063131586,0.028816901
128,1437232433571,-0.026147682,-0.06282616,0.03462012
129,1437232433590,-0.02126076,-0.054884907,0.033703823
130,1437232433611,-0.018511867,-0.05549577,0.03431469
131,1437232433675,-0.020955328,-0.05396861,0.03553642
132,1437232433676,-0.02798028,-0.04724909,0.027595172
133,1437232433677,-0.015762974,-0.04144587,0.025457144
134,1437232433690,-0.02339879,-0.05427404,0.024846278
135,1437232433710,-0.041419312,-0.055801205,0.033703823
136,1437232433730,-0.028285712,-0.042056736,0.028511468
137,1437232433750,-0.02339879,-0.04511106,0.014156137
138,1437232433793,-0.033172633,-0.03289376,0.012628973
139,1437232433794,-0.04447364,-0.0426676,0.010796377
140,1437232433810,-0.05608008,-0.038086113,0.0068257535
141,1437232433832,-0.060356136,-0.030450296,0.009574647
142,1437232433851,-0.058218107,-0.039613273,0.0065203207
143,1437232433870,-0.055774648,-0.037169814,0.00407686
144,1437232433892,-0.04813883,-0.027701402,0.000106235966
145,1437232433913,-0.043862775,-0.025868807,0.0077420515
146,1437232433933,-0.051498592,-0.03900241,0.023319114
147,1437232433953,-0.050887726,-0.03289376,0.028206035
148,1437232433975,-0.050887726,-0.03655895,0.030344065
149,1437232433994,-0.049971428,-0.037169814,0.02270825
150,1437232434012,-0.03439436,-0.026785105,0.028206035
151,1437232434032,-0.029812874,-0.028312268,0.019653924
152,1437232434051,-0.027674846,-0.013346069,0.015988732
153,1437232434073,-0.026147682,-0.009680878,0.015072434
154,1437232434090,-0.02584225,-0.016705828,0.011712675
155,1437232434112,-0.031950902,-0.02281448,0.011407243
156,1437232434133,-0.031034606,-0.017316693,0.011712675
157,1437232434153,-0.02584225,-0.019149289,0.013850704
158,1437232434174,-0.019733597,-0.02037102,0.015377867
159,1437232434193,-0.035005227,-0.03930784,0.01690503
160,1437232434215,-0.037143257,-0.025868807,0.0144615695
161,1437232434234,-0.029202009,-0.027701402,0.015988732
162,1437232434253,-0.022482492,-0.02739597,0.0059094555
163,1437232434274,-0.02584225,-0.011818906,0.0043822927
164,1437232434293,-0.038364988,-0.012735203,0.0028551295
165,1437232434424,-0.035616092,-0.0035722256,0.005604023
166,1437232434425,-0.038364988,-0.004183091,0.0068257535
167,1437232434426,-0.045084506,-0.004793957,0.008963782
168,1437232434427,-0.050582293,0.0013146959,0.010185512
169,1437232434428,-0.052109458,0.0013146959,0.010185512
170,1437232434429,-0.05119316,0.0016201288,0.010796377
171,1437232434480,-0.07440604,-0.010291744,0.016294165
172,1437232434481,-0.06951912,-0.016705828,0.013850704
173,1437232434482,-0.06768652,-0.016705828,0.0010225335
174,1437232434512,-0.076849505,-0.007848281,-0.0023372257
175,1437232434513,-0.081736416,-0.001128763,-0.00019919686
176,1437232434735,-0.07440604,0.0031472929,-0.0066132816
177,1437232434736,-0.06951912,0.010172244,-0.0047806865
178,1437232434737,-0.06585392,0.015670031,-0.0050861193
179,1437232434738,-0.060356136,0.004369024,-0.0050861193
180,1437232434739,-0.062494166,0.0040635914,-0.0014209272
181,1437232434740,-0.05852354,-0.0017396286,0.0031605624
182,1437232434741,-0.038059555,0.0022309944,0.0074366187
183,1437232434742,-0.055774648,-0.013956934,0.018432193
184,1437232434743,-0.06402133,-0.013346069,0.021486519
185,1437232434744,-0.057607245,-0.00662655,0.014156137
186,1437232434745,-0.048749696,-0.008459147,0.0019388311
187,1437232434809,-0.056690946,-0.00021246448,0.003771427
188,1437232434810,-0.062188733,-0.0063211173,0.0016333992
189,1437232434811,-0.06402133,-0.00662655,0.011712675
190,1437232434813,-0.050887726,-0.018843856,0.0144615695
191,1437232434834,-0.04905513,-0.024647076,0.023013681
192,1437232434886,-0.046000805,-0.029228564,0.023319114
193,1437232434887,-0.045084506,-0.027701402,0.023624547
194,1437232434892,-0.052109458,-0.02739597,0.027595172
195,1437232434911,-0.05241489,-0.033810057,0.032787528
196,1437232434931,-0.05394205,-0.03655895,0.03462012
197,1437232434951,-0.04813883,-0.034115486,0.03309296
198,1437232434973,-0.04813883,-0.030450296,0.026984308
199,1437232434992,-0.042946476,-0.021898182,0.026678875
200,1437232435014,-0.038975853,-0.02159275,0.02392998
201,1437232435035,-0.041419312,-0.020676453,0.023624547
202,1437232435056,-0.041419312,-0.013040636,0.024235412
203,1437232435073,-0.04325191,-0.018843856,0.023319114
204,1437232435092,-0.046000805,-0.026479673,0.025151711
205,1437232435112,-0.049360562,-0.022203615,0.026373442
206,1437232435132,-0.048444264,-0.019454721,0.019043058
207,1437232435156,-0.03592153,-0.014262367,0.019653924
208,1437232435170,-0.040503018,-0.028923132,0.034009255
209,1437232435190,-0.05241489,-0.030450296,0.03187123
210,1437232435210,-0.042641044,-0.014262367,0.014767001
211,1437232435232,-0.039281286,-0.020065587,0.010796377
212,1437232435254,-0.039281286,-0.016094962,0.007131186
213,1437232435274,-0.049360562,-0.019149289,0.0062148883
214,1437232435292,-0.055163782,-0.020981885,0.0086583495
215,1437232435312,-0.05974527,-0.032282893,0.014156137
216,1437232435332,-0.060050704,-0.033810057,0.01110181
217,1437232435354,-0.055163782,-0.03197746,0.013850704
218,1437232435372,-0.057912678,-0.031061161,0.015072434
219,1437232435395,-0.06463219,-0.031366594,0.017515896
220,1437232435414,-0.06341046,-0.037475247,0.016294165
221,1437232435434,-0.057607245,-0.03778068,0.014767001
222,1437232435453,-0.050582293,-0.033810057,0.016599597
223,1437232435472,-0.04905513,-0.03900241,0.018432193
224,1437232435495,-0.044779073,-0.041140437,0.01812676
225,1437232435513,-0.040808447,-0.04602736,0.020570222
226,1437232435535,-0.03867042,-0.04480563,0.016294165
227,1437232435553,-0.045084506,-0.047859956,0.0144615695
228,1437232435573,-0.05119316,-0.042056736,0.013850704
229,1437232435592,-0.050582293,-0.05183058,0.01690503
230,1437232435615,-0.045084506,-0.053357743,0.019653924
231,1437232435636,-0.03958672,-0.047859956,0.018737625
232,1437232435658,-0.02798028,-0.044194765,0.011712675
233,1437232435675,-0.021566194,-0.047859956,0.015988732
234,1437232435692,-0.027369414,-0.058550097,0.021181088
235,1437232435715,-0.035616092,-0.046638224,0.021791952
236,1437232435735,-0.020649895,-0.043889333,0.021791952
237,1437232435753,-0.011181485,-0.031061161,-0.00019919686
238,1437232435775,-0.02339879,-0.022509048,-0.002031793
239,1437232435855,-0.046306238,-0.025868807,-0.0069187144
240,1437232435856,-0.048749696,-0.031061161,0.0004116688
241,1437232435857,-0.046000805,-0.032588325,0.0049931575
242,1437232435858,-0.042641044,-0.034115486,0.0049931575
243,1437232435873,-0.036226958,-0.023425346,0.0062148883
244,1437232435894,-0.046306238,-0.020981885,0.0052985903
245,1437232435912,-0.042946476,-0.025563374,0.017515896
246,1437232435941,-0.045084506,-0.03472635,0.015683299
247,1437232435952,-0.035310663,-0.016400395,0.008963782
248,1437232435973,-0.037143257,-0.028312268,0.008047484
249,1437232435997,-0.039892152,-0.023730779,0.00407686
250,1437232436012,-0.043557342,-0.025563374,0.012628973
251,1437232436036,-0.037143257,-0.035031784,0.013545271
252,1437232436054,-0.0337835,-0.02739597,0.009269214
253,1437232436073,-0.033172633,-0.017622126,0.0077420515
254,1437232436092,-0.030118307,-0.009680878,-0.00019919686
255,1437232436112,-0.036226958,-0.014873233,0.0010225335
256,1437232436134,-0.035616092,-0.013346069,0.0086583495
257,1437232436155,-0.029507441,-0.009375446,0.008963782
258,1437232436175,-0.020649895,-0.00296136,0.0062148883
259,1437232436195,-0.021871626,-0.012735203,0.010796377
260,1437232436218,-0.030729173,-0.038086113,0.010796377
261,1437232436235,-0.0469171,-0.038086113,0.019653924
262,1437232436255,-0.032256335,-0.023730779,0.022402817
263,1437232436274,-0.030118307,-0.041140437,0.011407243
264,1437232436293,-0.040808447,-0.03197746,0.014156137
265,1437232436313,-0.052109458,-0.03350462,0.008352917
266,1437232436333,-0.052109458,-0.026479673,0.015072434
267,1437232436352,-0.049360562,-0.03655895,0.02270825
268,1437232436373,-0.057607245,-0.044194765,0.02270825
269,1437232436394,-0.05394205,-0.03869698,0.019959357
270,1437232436413,-0.053331185,-0.031672027,0.019348491
271,1437232436433,-0.055163782,-0.027090538,0.019959357
272,1437232436454,-0.051498592,-0.020981885,0.02026479
273,1437232436473,-0.04538994,-0.01792756,0.022097385
274,1437232436493,-0.027369414,-0.010597177,0.019959357
275,1437232436574,-0.035005227,-0.0057102554,0.014767001
276,1437232436575,-0.039892152,0.0052853227,0.00988008
277,1437232436576,-0.041113883,0.0007038303,0.00988008
278,1437232436577,-0.053331185,-0.0032667927,0.00988008
279,1437232436593,-0.058828972,-0.00876458,0.011407243
280,1437232436614,-0.050887726,-0.0151786655,0.012934406
281,1437232436633,-0.044779073,-0.008153714,0.011407243
282,1437232436660,-0.039281286,-0.008153714,0.015072434
283,1437232436674,-0.037143257,-0.015484098,0.015988732
284,1437232436694,-0.048444264,-0.024341643,0.020570222
285,1437232436719,-0.041419312,-0.028312268,0.015072434
286,1437232436735,-0.04905513,-0.039918706,0.014156137
287,1437232436754,-0.06402133,-0.0445002,0.018432193
288,1437232436775,-0.062188733,-0.02983943,0.013545271
289,1437232436794,-0.042946476,-0.022203615,0.005604023
290,1437232436813,-0.033478066,-0.016705828,-0.0008100625
291,1437232436833,-0.04233561,-0.014262367,0.0010225335
292,1437232436855,-0.052109458,-0.015484098,-0.0014209272
293,1437232436875,-0.049665995,-0.013040636,0.0059094555
294,1437232436896,-0.051804025,-0.020981885,0.00407686
295,1437232436913,-0.05119316,-0.020676453,0.005604023
296,1437232436934,-0.04538994,-0.018843856,0.0049931575
297,1437232436966,-0.046000805,-0.019149289,0.010185512
298,1437232436974,-0.053636618,-0.021898182,0.016599597
299,1437232436993,-0.05699638,-0.030144863,0.020570222
300,1437232437015,-0.057301812,-0.024647076,0.021791952
301,1437232437035,-0.053025752,-0.028312268,0.015683299
302,1437232437055,-0.044168208,-0.025868807,0.015377867
303,1437232437078,-0.041419312,-0.019454721,0.017515896
304,1437232437098,-0.041113883,-0.019149289,0.023319114
305,1437232437118,-0.041419312,-0.02159275,0.019043058
306,1437232437138,-0.04447364,-0.023730779,0.019653924
307,1437232437156,-0.044168208,-0.021898182,0.01690503
308,1437232437175,-0.04538994,-0.022509048,0.019959357
309,1437232437195,-0.043557342,-0.023730779,0.025151711
310,1437232437214,-0.042946476,-0.025563374,0.027289739
311,1437232437287,-0.034699798,-0.02281448,0.025762577
312,1437232437288,-0.029812874,-0.02617424,0.026984308
313,1437232437290,-0.040503018,-0.038391545,0.03309296
314,1437232437307,-0.047527965,-0.03655895,0.041645072
315,1437232437316,-0.036226958,-0.025257941,0.024846278
316,1437232437333,-0.02584225,-0.024647076,0.011712675
317,1437232437354,-0.02217706,-0.016094962,0.0068257535
318,1437232437374,-0.024315087,-0.017622126,-0.0017263601
319,1437232437404,-0.034699798,-0.019149289,-0.0011154944
320,1437232437413,-0.033478066,-0.028312268,0.0086583495
321,1437232437434,-0.033478066,-0.03686438,0.0049931575
322,1437232437460,-0.035616092,-0.03686438,0.007131186
323,1437232437476,-0.03744869,-0.029228564,0.0019388311
324,1437232437497,-0.04233561,-0.02739597,0.0062148883
325,1437232437516,-0.046306238,-0.0286177,0.00988008
326,1437232437535,-0.04661167,-0.026479673,0.003771427
327,1437232437554,-0.038364988,-0.026479673,0.007131186
328,1437232437574,-0.033478066,-0.03472635,0.0025496967
329,1437232437593,-0.026453115,-0.025257941,0.002244264
330,1437232437615,-0.024009654,-0.024647076,0.0034659943
331,1437232437636,-0.021871626,-0.023730779,0.003771427
332,1437232437657,-0.027674846,-0.02403621,0.0062148883
333,1437232437677,-0.036226958,-0.025257941,0.0062148883
334,1437232437695,-0.03958672,-0.030144863,0.0062148883
335,1437232437716,-0.03958672,-0.032588325,0.008352917
336,1437232437737,-0.040808447,-0.030450296,0.011407243
337,1437232437757,-0.039892152,-0.031366594,0.013239838
338,1437232437778,-0.031034606,-0.031061161,0.014156137
339,1437232437797,-0.0062945625,-0.023730779,0.015988732
340,1437232437816,-0.0023239385,-0.03900241,0.019959357
341,1437232437835,-0.021871626,-0.04052957,0.01690503
342,1437232437854,-0.051498592,-0.033810057,0.0059094555
343,1437232437875,-0.04447364,-0.031061161,-0.011500203
344,1437232437897,-0.041113883,-0.017316693,-0.010889339
345,1437232437918,-0.052109458,-0.027701402,-0.005696985
346,1437232437936,-0.061577868,-0.046943657,0.015683299
347,1437232438105,-0.060050704,-0.05396861,0.027289739
348,1437232438106,-0.03867042,-0.063131586,0.03339839
349,1437232438107,-0.020955328,-0.04724909,0.032787528
350,1437232438108,-0.024009654,-0.032282893,0.030344065
351,1437232438109,-0.042946476,-0.035948083,0.025151711
352,1437232438110,-0.047527965,-0.028006835,0.02392998
353,1437232438111,-0.05119316,-0.025868807,0.021181088
354,1437232438112,-0.043557342,-0.025257941,0.020570222
355,1437232438120,-0.046000805,-0.039613273,0.017210463
356,1437232438151,-0.05119316,-0.041140437,0.017210463
357,1437232438154,-0.0469171,-0.037169814,0.017515896
358,1437232438174,-0.036226958,-0.037475247,0.010185512
359,1437232438198,-0.029507441,-0.025563374,0.010185512
360,1437232438214,-0.03592153,-0.02281448,0.0077420515
