id,attr_time,attr_x,attr_y,attr_z
1,1437234488025,9.814431,1.5927427,1.3688848
2,1437234488078,9.804854,1.5490485,1.3533225
3,1437234488079,9.831191,1.5568297,1.328782
4,1437234488080,9.8916445,1.5693992,1.3904326
5,1437234488102,9.873089,1.6190789,1.3706805
6,1437234488116,9.874885,1.6352397,1.352724
7,1437234488138,9.847352,1.6340426,1.3904326
8,1437234488157,9.807249,1.6412252,1.3670892
9,1437234488176,9.829395,1.7010803,1.3736732
10,1437234488197,9.807249,1.6633717,1.4269443
11,1437234488216,9.831191,1.6370354,1.4053963
12,1437234488236,9.846753,1.6741456,1.3802572
13,1437234488256,9.904813,1.6226702,1.3431472
14,1437234488279,9.87668,1.5951369,1.3323733
15,1437234488296,9.862914,1.5496471,1.3551182
16,1437234488318,9.834782,1.543063,1.3587095
17,1437234488336,9.865907,1.5526398,1.3670892
18,1437234488358,9.829395,1.5125369,1.3718776
19,1437234488378,9.853337,1.5280992,1.3790601
20,1437234488399,9.835381,1.5526398,1.3694834
21,1437234488418,9.858126,1.5831659,1.377863
22,1437234488437,9.830592,1.6035166,1.3503298
23,1437234488459,9.827001,1.6154876,1.3874398
24,1437234488478,9.774927,1.6112977,1.3934253
25,1437234488503,9.805453,1.5975311,1.4251486
26,1437234488517,9.813833,1.6543933,1.4036007
27,1437234488537,9.879075,1.6639702,1.3826514
28,1437234488560,9.879673,1.697489,1.4041992
29,1437234488579,9.827001,1.6807296,1.3934253
30,1437234488600,9.746197,1.6358383,1.3994108
31,1437234488617,9.818023,1.5634137,1.4305356
32,1437234488637,9.822212,1.5574282,1.4024036
33,1437234488658,9.832987,1.5286977,1.3575124
34,1437234488680,9.863512,1.5005659,1.3634979
35,1437234488698,9.89763,1.5101427,1.4047978
36,1437234488720,9.894637,1.5442601,1.4095862
37,1437234488737,9.828198,1.5873557,1.3856442
38,1437234488769,9.784504,1.6023195,1.3652935
39,1437234488886,9.795278,1.6184803,1.3640964
40,1437234488887,9.785701,1.6286557,1.4095862
41,1437234488888,9.840169,1.5705963,1.4269443
42,1437234488889,9.873089,1.5514427,1.4460979
43,1437234488890,9.8677025,1.5316905,1.429937
44,1437234488891,9.873089,1.5370775,1.4221559
45,1437234488970,9.854534,1.5586253,1.4311341
46,1437234488971,9.871892,1.5442601,1.423353
47,1437234488972,9.831789,1.5562311,1.3964181
48,1437234488973,9.84795,1.5957354,1.4089876
49,1437234489043,9.862315,1.5652094,1.4251486
50,1437234489044,9.827001,1.5831659,1.4263457
51,1437234489045,9.797672,1.6142905,1.4107834
52,1437234489046,9.818622,1.5957354,1.4634558
53,1437234489066,9.820416,1.5885528,1.4257472
54,1437234489078,9.862914,1.6118963,1.3808558
55,1437234489097,9.834184,1.5747862,1.3700819
56,1437234489117,9.821614,1.5688007,1.3718776
57,1437234489137,9.845556,1.5526398,1.3964181
58,1437234489157,9.830592,1.5460558,1.4197617
59,1437234489177,9.822811,1.5286977,1.4101849
60,1437234489197,9.841965,1.5245079,1.4203602
61,1437234489243,9.85214,1.5801731,1.4341269
62,1437234489244,9.868899,1.5927427,1.4556746
63,1437234489256,9.834184,1.584363,1.4305356
64,1437234489277,9.808446,1.578976,1.4676456
65,1437234489300,9.815628,1.5771804,1.4616601
66,1437234489317,9.808446,1.5801731,1.441908
67,1437234489340,9.762358,1.632247,1.4449008
68,1437234489358,9.813234,1.638831,1.4867992
69,1437234489377,9.818023,1.6627731,1.4933833
70,1437234489399,9.802461,1.6627731,1.501763
71,1437234489421,9.776124,1.6160861,1.459266
72,1437234489440,9.838972,1.6095021,1.4383167
73,1437234489460,9.774927,1.596334,1.4628572
74,1437234489481,9.750985,1.5981296,1.4371196
75,1437234489498,9.835979,1.5915456,1.4347254
76,1437234489519,9.849746,1.6071079,1.460463
77,1437234489539,9.882068,1.6106992,1.4407109
78,1437234489559,9.862914,1.5969325,1.4401124
79,1437234489579,9.815628,1.5999253,1.4047978
80,1437234489598,9.776124,1.5927427,1.4059949
81,1437234489616,9.837775,1.5568297,1.400608
82,1437234489639,9.838972,1.5933412,1.407192
83,1437234489656,9.831789,1.5921441,1.400608
84,1437234489676,9.831191,1.584363,1.435324
85,1437234489700,9.81922,1.6089035,1.3994108
86,1437234489720,9.835979,1.6089035,1.401805
87,1437234489738,9.821614,1.6316484,1.3844471
88,1437234489761,9.808446,1.6190789,1.4036007
89,1437234489782,9.858126,1.6514006,1.3844471
90,1437234489802,9.834782,1.638831,1.3694834
91,1437234489824,9.850943,1.6190789,1.371279
92,1437234489841,9.786898,1.6502035,1.3814543
93,1437234489861,9.861717,1.6226702,1.3880384
94,1437234489882,9.838373,1.602918,1.3922282
95,1437234489902,9.808446,1.6017209,1.3491327
96,1437234489922,9.813833,1.5981296,1.352724
97,1437234489941,9.852738,1.6059108,1.3455414
98,1437234489961,9.830592,1.6017209,1.3335704
99,1437234489982,9.83957,1.5682021,1.3521254
100,1437234490003,9.827001,1.5927427,1.3491327
101,1437234490023,9.831789,1.5921441,1.3329718
102,1437234490043,9.871294,1.6106992,1.3718776
103,1437234490062,9.872491,1.6274586,1.3383588
104,1437234490078,9.855133,1.5957354,1.3299791
105,1437234490098,9.832987,1.6166847,1.3521254
106,1437234490117,9.840768,1.6041151,1.395221
107,1437234490143,9.837176,1.614889,1.3317747
108,1437234490159,9.853935,1.5957354,1.34195
109,1437234490179,9.836577,1.6136919,1.3455414
110,1437234490200,9.865907,1.6184803,1.340753
111,1437234490218,9.861118,1.6567876,1.3575124
112,1437234490273,9.8437605,1.6382325,1.3664906
113,1437234490274,9.752781,1.6364368,1.3670892
114,1437234490286,9.846154,1.6346412,1.3437457
115,1437234490298,9.782708,1.6639702,1.3425486
116,1437234490324,9.822212,1.6340426,1.3293805
117,1437234490340,9.7563715,1.6573862,1.3060371
118,1437234490358,9.793482,1.6274586,1.3760674
119,1437234490379,9.820416,1.6220716,1.3874398
120,1437234490398,9.832388,1.6118963,1.4221559
121,1437234490423,9.843162,1.6172832,1.3263878
122,1437234490445,9.803059,1.590947,1.2910733
123,1437234490459,9.825804,1.5753847,1.3341689
124,1437234490478,9.81084,1.5873557,1.3467385
125,1437234490502,9.878476,1.5849615,1.3790601
126,1437234490522,9.849147,1.6214731,1.376666
127,1437234490543,9.884461,1.614889,1.3850456
128,1437234490561,9.867104,1.5861586,1.3491327
129,1437234490582,9.824008,1.5562311,1.3269863
130,1437234490602,9.832987,1.5179238,1.3551182
131,1437234490622,9.829395,1.520318,1.3551182
132,1437234490642,9.850943,1.553837,1.3311762
133,1437234490665,9.889849,1.5765818,1.359308
134,1437234490679,9.82341,1.6005238,1.3611037
135,1437234490701,9.846154,1.5783775,1.3479356
136,1437234490722,9.829395,1.5526398,1.4024036
137,1437234490741,9.83957,1.5358804,1.3617022
138,1437234490762,9.89344,1.5532384,1.340753
139,1437234490782,9.885659,1.5616181,1.3383588
140,1437234490802,9.907805,1.5915456,1.3120226
141,1437234490821,9.865907,1.5879543,1.3365631
142,1437234490842,9.844957,1.5699978,1.3461399
143,1437234490863,9.8042555,1.5442601,1.3611037
144,1437234490882,9.837775,1.5310919,1.3587095
145,1437234490902,9.870096,1.5394717,1.3700819
146,1437234490922,9.891046,1.5520413,1.3467385
147,1437234490942,9.859921,1.5478514,1.3623008
148,1437234490996,9.840169,1.5310919,1.3628993
149,1437234490997,9.837775,1.4927847,1.3623008
150,1437234491015,9.867104,1.4993688,1.3880384
151,1437234491021,9.889849,1.4856021,1.3910311
152,1437234491041,9.888053,1.496376,1.3904326
153,1437234491065,9.890448,1.5460558,1.3718776
154,1437234491079,9.850943,1.5490485,1.4053963
155,1437234491099,9.797672,1.5717934,1.38325
156,1437234491121,9.75697,1.5496471,1.4197617
157,1437234491140,9.830592,1.5358804,1.4185646
158,1437234491161,9.838972,1.5394717,1.4083891
159,1437234491179,9.885659,1.5514427,1.3844471
160,1437234491204,9.883265,1.5478514,1.423353
161,1437234491222,9.890448,1.4945804,1.3934253
162,1437234491242,9.870096,1.4796166,1.3928268
163,1437234491262,9.824607,1.5292963,1.3868413
164,1437234491282,9.840169,1.5131354,1.4341269
165,1437234491302,9.855133,1.5574282,1.4107834
166,1437234491323,9.857527,1.5556326,1.3874398
167,1437234491342,9.854534,1.5412674,1.3928268
168,1437234491362,9.822811,1.4993688,1.3946224
169,1437234491382,9.824008,1.4873978,1.4478935
170,1437234491402,9.846753,1.5065514,1.4449008
171,1437234491420,9.837176,1.5340848,1.4359225
172,1437234491442,9.846154,1.5472529,1.3982137
173,1437234491462,9.850345,1.553837,1.3934253
174,1437234491482,9.832987,1.5646108,1.42455
175,1437234491502,9.808446,1.5915456,1.4514848
176,1437234491523,9.868899,1.5927427,1.4395138
177,1437234491543,9.8276,1.5885528,1.4981717
178,1437234491563,9.829395,1.5807717,1.436521
179,1437234491583,9.8198185,1.5813702,1.3730747
180,1437234491603,9.81084,1.5705963,1.4119805
181,1437234491623,9.816826,1.5771804,1.4347254
182,1437234491643,9.801862,1.5957354,1.4413095
183,1437234491662,9.810242,1.5622166,1.3982137
184,1437234491685,9.83957,1.5400703,1.4024036
185,1437234491755,9.827001,1.5263035,1.4036007
186,1437234491757,9.837176,1.5496471,1.4287399
187,1437234491759,9.845556,1.5741876,1.4239515
188,1437234491760,9.846154,1.5903485,1.4197617
189,1437234491783,9.8515415,1.555034,1.4101849
190,1437234491806,9.825205,1.5628152,1.4221559
191,1437234491821,9.808446,1.5837644,1.3988123
192,1437234491842,9.8276,1.5837644,1.401805
193,1437234491861,9.818622,1.5975311,1.3796587
194,1437234491881,9.831191,1.5849615,1.3940239
195,1437234491900,9.877877,1.5855601,1.3922282
196,1437234491922,9.829993,1.6106992,1.4311341
197,1437234491944,9.838373,1.5921441,1.4341269
198,1437234491963,9.816227,1.5646108,1.3988123
199,1437234491986,9.855133,1.5807717,1.3652935
200,1437234492000,9.855133,1.6118963,1.3551182
201,1437234492023,9.841965,1.5855601,1.3545196
202,1437234492043,9.849746,1.5957354,1.3748703
203,1437234492063,9.838972,1.5921441,1.3706805
204,1437234492083,9.852738,1.6041151,1.3497312
205,1437234492103,9.822212,1.6041151,1.3323733
206,1437234492123,9.837775,1.596334,1.2982559
207,1437234492142,9.8515415,1.602918,1.311424
208,1437234492161,9.864111,1.5819688,1.3293805
209,1437234492181,9.853935,1.6047137,1.3269863
210,1437234492204,9.841366,1.5939398,1.3162124
211,1437234492220,9.853337,1.5837644,1.3024458
212,1437234492242,9.855731,1.5837644,1.3395559
213,1437234492266,9.8515415,1.5801731,1.340753
214,1437234492286,9.831191,1.6041151,1.352724
215,1437234492317,9.846154,1.608305,1.3227965
216,1437234492320,9.831789,1.6190789,1.3449428
217,1437234492340,9.867104,1.6543933,1.2964603
218,1437234492360,9.832987,1.6250644,1.3826514
219,1437234492380,9.821015,1.632247,1.3575124
220,1437234492408,9.807847,1.5801731,1.3509283
221,1437234492420,9.829395,1.6047137,1.3096284
222,1437234492441,9.876082,1.6190789,1.3251907
223,1437234492468,9.872491,1.6118963,1.3545196
224,1437234492484,9.8515415,1.6106992,1.3634979
225,1437234492501,9.824607,1.5927427,1.3910311
226,1437234492521,9.824008,1.6531962,1.359308
227,1437234492542,9.793482,1.6657659,1.3533225
228,1437234492560,9.7958765,1.661576,1.3706805
229,1437234492582,9.806051,1.666963,1.3557167
230,1437234492602,9.816826,1.6849195,1.3934253
231,1437234492622,9.826403,1.6621746,1.4077905
232,1437234492640,9.858724,1.6412252,1.3988123
233,1437234492664,9.841965,1.6537948,1.4173675
234,1437234492680,9.8437605,1.6292542,1.3730747
235,1437234492700,9.829993,1.6490064,1.3599066
236,1437234492732,9.832388,1.6687586,1.3347675
237,1437234492748,9.8437605,1.661576,1.34195
238,1437234492764,9.770737,1.6579847,1.3485341
239,1437234492784,9.836577,1.6603789,1.299453
240,1437234492804,9.788693,1.6525977,1.3078327
241,1437234492824,9.785701,1.6304513,1.3042414
242,1437234492843,9.802461,1.6514006,1.3012487
243,1437234492865,9.824008,1.6478093,1.292869
244,1437234492883,9.854534,1.6418238,1.3078327
245,1437234492904,9.861118,1.6496049,1.3018472
246,1437234492921,9.831191,1.5891514,1.2838906
247,1437234492941,9.795278,1.5400703,1.2916719
248,1437234492961,9.787497,1.560421,1.2785037
249,1437234492986,9.849746,1.5993267,1.316811
250,1437234493006,9.924564,1.6681601,1.3305776
251,1437234493027,9.91798,1.6783354,1.3293805
252,1437234493042,9.863512,1.620276,1.2940661
253,1437234493061,9.824607,1.5717934,1.2731167
254,1437234493081,9.809045,1.5610195,1.2880806
255,1437234493104,9.785701,1.5801731,1.3036429
256,1437234493122,9.865907,1.5598224,1.3323733
257,1437234493143,9.920375,1.5328877,1.3162124
258,1437234493213,9.9233675,1.5436616,1.3293805
259,1437234493214,9.872491,1.5394717,1.3491327
260,1437234493215,9.8042555,1.6005238,1.3670892
261,1437234493225,9.859323,1.6089035,1.38325
262,1437234493244,9.82341,1.6220716,1.4377182
263,1437234493264,9.818023,1.5711949,1.3700819
264,1437234493281,9.892242,1.6065093,1.3563153
265,1437234493306,9.90601,1.6106992,1.3066356
266,1437234493322,9.866506,1.6178818,1.3138182
267,1437234493342,9.849147,1.6071079,1.3401544
268,1437234493366,9.805453,1.5885528,1.34195
269,1437234493382,9.822212,1.5658079,1.3575124
270,1437234493404,9.846154,1.5143325,1.3509283
271,1437234493424,9.877877,1.4969746,1.3437457
272,1437234493445,9.880272,1.5119383,1.3317747
273,1437234493464,9.849746,1.5119383,1.3192052
274,1437234493484,9.847352,1.5442601,1.3305776
275,1437234493504,9.833585,1.5185224,1.3575124
276,1437234493524,9.862914,1.525705,1.3724761
277,1437234493544,9.872491,1.4927847,1.3784616
278,1437234493565,9.871892,1.5328877,1.3994108
279,1437234493585,9.885659,1.5394717,1.364695
280,1437234493602,9.8916445,1.567005,1.3383588
281,1437234493625,9.834782,1.5646108,1.3838485
282,1437234493647,9.762358,1.541866,1.3838485
283,1437234493666,9.818023,1.5149311,1.4185646
284,1437234493681,9.834782,1.5251064,1.4347254
285,1437234493704,9.885659,1.5119383,1.3994108
286,1437234493723,9.881469,1.5197195,1.3790601
287,1437234493743,9.8437605,1.532289,1.411382
288,1437234493796,9.828796,1.5556326,1.423353
289,1437234493797,9.816227,1.5598224,1.4407109
290,1437234493845,9.806051,1.5921441,1.4209588
291,1437234493846,9.832388,1.596334,1.4311341
292,1437234493847,9.8683,1.5873557,1.4508862
293,1437234493942,9.848549,1.5831659,1.448492
294,1437234493943,9.822811,1.5699978,1.4562732
295,1437234493944,9.840768,1.5292963,1.4443022
296,1437234493945,9.825804,1.483208,1.4251486
297,1437234493946,9.8198185,1.484405,1.3994108
298,1437234493991,9.841366,1.4903905,1.4257472
299,1437234493992,9.855133,1.5215151,1.429937
300,1437234494002,9.864111,1.5424645,1.483208
301,1437234494032,9.862315,1.5586253,1.4460979
302,1437234494042,9.829395,1.5747862,1.4107834
303,1437234494062,9.751583,1.6023195,1.4293385
304,1437234494082,9.781511,1.5891514,1.4736311
305,1437234494102,9.800066,1.6095021,1.4335283
306,1437234494122,9.835979,1.6053122,1.4036007
307,1437234494142,9.868899,1.596334,1.3772645
308,1437234494162,9.838373,1.584363,1.4077905
309,1437234494182,9.854534,1.5825673,1.4329298
310,1437234494202,9.824607,1.5729905,1.4257472
311,1437234494222,9.796474,1.543063,1.4173675
312,1437234494242,9.834184,1.536479,1.3724761
313,1437234494262,9.837176,1.5568297,1.3700819
314,1437234494282,9.840169,1.5735891,1.4059949
315,1437234494302,9.846753,1.560421,1.4089876
316,1437234494322,9.828198,1.5676036,1.435324
317,1437234494343,9.824008,1.5676036,1.417966
318,1437234494365,9.841965,1.5544355,1.4024036
319,1437234494385,9.850345,1.5406688,1.3916297
320,1437234494405,9.841366,1.5699978,1.4083891
321,1437234494423,9.831191,1.6142905,1.4036007
322,1437234494442,9.85214,1.5825673,1.3892355
323,1437234494463,9.828198,1.5855601,1.4107834
324,1437234494485,9.761759,1.5855601,1.412579
325,1437234494505,9.862914,1.6244658,1.3676877
326,1437234494525,9.822212,1.5921441,1.4203602
327,1437234494543,9.785102,1.5532384,1.3802572
328,1437234494562,9.836577,1.5628152,1.3730747
329,1437234494583,9.85214,1.5837644,1.3802572
330,1437234494601,9.859921,1.5999253,1.395221
331,1437234494622,9.863512,1.5819688,1.3964181
332,1437234494642,9.830592,1.5693992,1.3437457
333,1437234494662,9.81503,1.5765818,1.3371617
334,1437234494684,9.824607,1.5777789,1.3563153
335,1437234494702,9.855133,1.5915456,1.3581109
336,1437234494724,9.864111,1.590947,1.3694834
337,1437234494743,9.831789,1.5783775,1.3868413
338,1437234494763,9.85214,1.553837,1.359308
339,1437234494783,9.840169,1.5400703,1.3389573
340,1437234494802,9.846154,1.5574282,1.3730747
341,1437234494822,9.866506,1.5693992,1.3664906
342,1437234494844,9.865907,1.578976,1.3796587
343,1437234494866,9.8437605,1.5933412,1.347337
344,1437234494884,9.85214,1.5478514,1.3311762
345,1437234494907,9.832987,1.5658079,1.323395
346,1437234494924,9.76954,1.5969325,1.3862427
347,1437234494946,9.894038,1.62686,1.3820529
348,1437234494965,9.845556,1.5969325,1.3395559
349,1437234494984,9.840768,1.5376761,1.3443443
350,1437234495005,9.832987,1.5705963,1.3198037
351,1437234495026,9.850345,1.5717934,1.3138182
352,1437234495046,9.848549,1.5921441,1.3305776
353,1437234495066,9.8677025,1.5676036,1.3515269
354,1437234495087,9.871294,1.5664065,1.3425486
355,1437234495106,9.844957,1.5849615,1.3640964
356,1437234495125,9.826403,1.5867572,1.3575124
357,1437234495145,9.843162,1.5759833,1.3311762
358,1437234495165,9.879673,1.5777789,1.3359646
359,1437234495183,9.871892,1.5795746,1.365892
360,1437234495241,9.869498,1.5849615,1.3305776
361,1437234495253,9.827001,1.5993267,1.3461399
362,1437234495254,9.831789,1.5933412,1.352724
363,1437234495263,9.862315,1.6053122,1.3497312
364,1437234495293,9.832388,1.6101006,1.3305776
365,1437234495305,9.844957,1.6196774,1.3664906
366,1437234495323,9.8437605,1.608305,1.3664906
367,1437234495344,9.831191,1.5933412,1.340753
368,1437234495363,9.774927,1.5987282,1.3533225
369,1437234495385,9.872491,1.6340426,1.323395
370,1437234495403,9.827001,1.6220716,1.3988123
371,1437234495425,9.811439,1.6178818,1.3880384
372,1437234495446,9.807847,1.6053122,1.3551182
373,1437234495466,9.803658,1.6035166,1.3970166
374,1437234495486,9.904813,1.6831238,1.4119805
375,1437234495504,9.86471,1.6525977,1.3928268
376,1437234495526,9.830592,1.6232687,1.3850456
377,1437234495546,9.822811,1.62686,1.3700819
378,1437234495566,9.815628,1.6190789,1.3485341
379,1437234495586,9.817424,1.6172832,1.3491327
380,1437234495604,9.831191,1.6226702,1.3293805
381,1437234495625,9.822811,1.6286557,1.3389573
382,1437234495643,9.822811,1.6166847,1.2958617
383,1437234495666,9.799467,1.6346412,1.3150153
384,1437234495686,9.807249,1.6220716,1.3359646
385,1437234495711,9.81922,1.6071079,1.3563153
386,1437234495727,9.803059,1.6274586,1.3359646
387,1437234495743,9.813833,1.6184803,1.3467385
388,1437234495769,9.840768,1.6376339,1.3012487
389,1437234495784,9.854534,1.6226702,1.2976574
390,1437234495805,9.836577,1.6256629,1.2964603
391,1437234495826,9.848549,1.5987282,1.271321
392,1437234495846,9.780912,1.5717934,1.3263878
393,1437234495866,9.776124,1.5640123,1.3581109
394,1437234495886,9.90601,1.6154876,1.3874398
395,1437234495910,9.957485,1.6519991,1.3329718
396,1437234495979,9.964069,1.6292542,1.3916297
397,1437234495980,9.905411,1.6412252,1.3988123
398,1437234495982,9.897031,1.6675615,1.3581109
399,1437234495986,9.818622,1.6382325,1.2898762
400,1437234496004,9.81084,1.543063,1.2791022
401,1437234496027,9.7863,1.5286977,1.2425907
402,1437234496043,9.858724,1.5125369,1.2587515
403,1437234496064,9.856929,1.5328877,1.3084313
404,1437234496086,9.869498,1.5520413,1.3138182
405,1437234496105,9.85214,1.5711949,1.3227965
406,1437234496124,9.849147,1.5334862,1.3132197
407,1437234496145,9.865907,1.532289,1.3467385
408,1437234496166,9.882666,1.5370775,1.3628993
409,1437234496185,9.895236,1.4951789,1.3485341
410,1437234496205,9.865907,1.5275006,1.2850877
411,1437234496224,9.80665,1.5125369,1.2755109
412,1437234496246,9.760562,1.5532384,1.3575124
413,1437234496267,9.86471,1.6035166,1.3856442
414,1437234496287,9.845556,1.5598224,1.4425066
415,1437234496307,9.852738,1.5352819,1.3670892
416,1437234496327,9.900024,1.5304934,1.3431472
417,1437234496346,9.904214,1.5227122,1.3072342
418,1437234496365,9.895236,1.5472529,1.3413515
419,1437234496387,9.83957,1.5089456,1.3688848
420,1437234496407,9.82341,1.5011644,1.3790601
421,1437234496427,9.803658,1.484405,1.3700819
422,1437234496446,9.8276,1.46585,1.3676877
423,1437234496467,9.88506,1.4856021,1.3605051
424,1437234496486,9.895236,1.4939818,1.3706805
425,1437234496506,9.900024,1.4754268,1.4155718
426,1437234496527,9.861717,1.4808137,1.395221
427,1437234496546,9.862315,1.4676456,1.4359225
428,1437234496567,9.894038,1.4838065,1.4401124
429,1437234496585,9.89344,1.508347,1.4580688
430,1437234496604,9.90601,1.508347,1.4143747
