id,attr_time,attr_x,attr_y,attr_z
1,1437152993055,0.08792476,0.012456343,-0.084007256
2,1437152993056,0.10350183,0.03902898,-0.059878074
3,1437152993057,0.10655615,0.053995177,-0.026891354
4,1437152993072,0.11480284,0.058576666,-0.023531593
5,1437152993093,0.11846803,0.054300614,-0.042468414
6,1437152993112,0.10686159,0.042388737,-0.06904106
7,1437152993132,0.090673655,0.029866003,-0.09347566
8,1437152993150,0.076012895,0.03200403,-0.12340806
9,1437152993171,0.06807165,0.03200403,-0.13959599
10,1437152993191,0.06410102,0.036890954,-0.14967528
11,1437152993210,0.0723477,0.054606043,-0.15700564
12,1437152993230,0.067155346,0.058271237,-0.16800123
13,1437152993262,0.06776621,0.06590705,-0.12127004
14,1437152993270,0.054632608,0.05918754,-0.12493523
15,1437152993290,0.061352126,0.059798397,-0.1866326
16,1437152993310,0.05951953,0.07659719,-0.2266443
17,1437152993330,0.06257386,0.09950464,-0.23458555
18,1437152993350,0.061962992,0.11447085,-0.2614636
19,1437152993370,0.06532275,0.1254664,-0.29109058
20,1437152993392,0.053105444,0.12516099,-0.34240326
21,1437152993412,0.039055545,0.12424468,-0.37966603
22,1437152993431,0.018591559,0.09461772,-0.35064995
23,1437152993451,0.012788339,0.05491148,-0.28620365
24,1437152993471,0.020729586,0.026200809,-0.2229791
25,1437152993491,0.030503431,0.0048205256,-0.1875489
26,1437152993511,0.031419728,-0.029693358,-0.15517306
27,1437152993531,0.036612086,-0.058709458,-0.11791027
28,1437152993552,0.037222948,-0.07672998,-0.053463988
29,1437152993572,0.036612086,-0.07611912,0.015563781
30,1437152993592,0.05005112,-0.067567006,0.047328774
31,1437152993612,0.056159772,-0.045575857,0.030835412
32,1437152993636,0.046691358,-0.046797585,0.015258349
33,1437152993652,0.036917515,-0.05321167,-0.034527168
34,1437152993673,0.027143672,-0.055960566,-0.08889417
35,1437152993717,0.021340452,-0.056265995,-0.11424508
36,1437152993718,0.011566608,-0.066345274,-0.09927888
37,1437152993732,0.02011872,-0.0843658,-0.110579886
38,1437152993752,0.015231799,-0.10452435,-0.1432612
39,1437152993772,0.020729586,-0.14606318,-0.16280887
40,1437152993792,0.049440254,-0.19981933,-0.14142859
41,1437152993812,0.09617144,-0.2865622,-0.0928648
42,1437152993832,0.14748412,-0.3445944,-0.06018351
43,1437152993852,0.17741652,-0.3641421,-0.03238914
44,1437152993872,0.19849136,-0.36566925,-0.028418515
45,1437152993892,0.2146793,-0.37025073,-0.005205637
46,1437152993913,0.2100978,-0.37666482,0.020756137
47,1437152993932,0.1969642,-0.37666482,0.05252113
48,1437152993952,0.19665878,-0.36261493,0.05740805
49,1437152993973,0.1847469,-0.33176622,0.041830987
50,1437152994003,0.17039157,-0.31618917,0.039387524
51,1437152994022,0.13954288,-0.29908493,0.03388974
52,1437152994032,0.12824187,-0.30824792,0.027781086
53,1437152994053,0.124271244,-0.30610988,0.025032192
54,1437152994072,0.12488212,-0.29816863,0.029919114
55,1437152994092,0.13557225,-0.28992194,0.029919114
56,1437152994112,0.13496138,-0.27465034,0.011287725
57,1437152994133,0.14076461,-0.26151672,-0.017117508
58,1437152994154,0.138932,-0.26273844,-0.028418515
59,1437152994173,0.13832115,-0.25357547,-0.037886925
60,1437152994193,0.13251793,-0.24105275,-0.03605433
61,1437152994213,0.13465595,-0.22150505,-0.038803227
62,1437152994234,0.14229177,-0.20989859,-0.03116741
63,1437152994253,0.15817426,-0.21722898,-0.034527168
64,1437152994273,0.1725296,-0.23311147,-0.03238914
65,1437152994296,0.19146642,-0.24960485,-0.034527168
66,1437152994313,0.2155956,-0.26334932,-0.012230586
67,1437152994335,0.2409465,-0.29267085,0.02106157
68,1437152994356,0.27576584,-0.33482057,0.029613681
69,1437152994376,0.28828856,-0.3671964,0.022894165
70,1437152994396,0.32768938,-0.40476462,0.010065994
71,1437152994412,0.40588012,-0.44355458,0.0060953703
72,1437152994434,0.49812078,-0.518691,0.0060953703
73,1437152994458,0.5686757,-0.5681711,0.03419517
74,1437152994473,0.612658,-0.58985674,0.08520242
75,1437152994492,0.63281655,-0.5880242,0.12735212
76,1437152994514,0.61693406,-0.575196,0.15820083
77,1437152994533,0.5692866,-0.54434735,0.18966037
78,1437152994559,0.49292845,-0.5012813,0.19882336
79,1437152994574,0.39519,-0.42858836,0.1701127
80,1437152994593,0.31241775,-0.31893805,0.13346078
81,1437152994614,0.1575634,-0.22272676,0.103222944
82,1437152994633,-0.01836579,-0.11857425,0.075428575
83,1437152994683,-0.15581048,-0.03916177,0.050993964
84,1437152994684,-0.23277949,0.03444749,0.010065994
85,1437152994694,-0.25690866,0.08117869,-0.010397993
86,1437152994713,-0.24469136,0.09675575,-0.014979482
87,1437152994734,-0.22544912,0.103475265,-0.0039839055
88,1437152994754,-0.19429499,0.10805676,0.011593157
89,1437152994773,-0.14634205,0.08911993,0.029002817
90,1437152994794,-0.10388692,0.057354935,0.043969013
91,1437152994813,-0.046771023,0.02131389,0.045190744
92,1437152994835,-0.00034526363,-0.0263336,0.038165797
93,1437152994857,0.031419728,-0.06451268,0.0363332
94,1437152994875,0.052189145,-0.09322335,0.046107046
95,1437152994894,0.06807165,-0.10513522,0.06473844
96,1437152994914,0.067155346,-0.10788411,0.06870906
97,1437152994935,0.05951953,-0.0965831,0.06748733
98,1437152994956,0.038750112,-0.08803099,0.058935214
99,1437152994974,0.02683824,-0.081006035,0.053131994
100,1437152994994,0.021645885,-0.06268008,0.050688535
101,1437152995016,0.0057633882,-0.04954648,0.0512994
102,1437152995034,-0.01500603,-0.022362974,0.048855938
103,1437152995056,-0.036691748,-0.012589131,0.02717022
104,1437152995076,-0.04982535,-0.009229373,-0.01009256
105,1437152995096,-0.05349054,0.0066531226,-0.04155212
106,1437152995117,-0.06723501,0.046970233,-0.059572645
107,1437152995134,-0.10480322,0.14348695,-0.07514971
108,1437152995154,-0.18482657,0.26840886,-0.117299415
109,1437152995174,-0.24621852,0.38783303,-0.08706158
110,1437152995199,-0.29875293,0.49106923,-0.052853122
111,1437152995220,-0.35434166,0.567122,-0.11180162
112,1437152995234,-0.4135956,0.65355945,-0.14478835
113,1437152995258,-0.5241622,0.71831113,-0.10172235
114,1437152995274,-0.6020475,0.7757325,-0.09317023
115,1437152995295,-0.672297,0.83620816,-0.044606447
116,1437152995314,-0.8024113,0.90095985,0.02350503
117,1437152995334,-0.917254,1.0194677,0.004568208
118,1437152995368,-1.105095,1.2543454,-0.16158715
119,1437152995437,-1.377541,1.562527,-0.30697307
120,1437152995438,-1.5137639,1.8120654,-0.28528735
121,1437152995448,-1.6029502,1.9766936,-0.30269703
122,1437152995449,-1.6151675,2.1636183,-0.4682415
123,1437152995465,-1.601423,2.2720468,-0.63073164
124,1437152995476,-1.56752,2.2430308,-0.61820894
125,1437152995499,-1.4908564,2.10131,-0.44625035
126,1437152995514,-1.3448596,1.9437068,-0.06904106
127,1437152995534,-1.132584,1.7082183,0.11574568
128,1437152995562,-0.87938035,1.4351615,0.12551953
129,1437152995576,-0.6206789,1.1248419,0.12643582
130,1437152995598,-0.42184228,0.81818765,0.2638805
131,1437152995615,-0.20498513,0.6132423,0.4688258
132,1437152995645,-0.007064782,0.34049097,0.49845275
133,1437152995654,0.14595696,0.07690262,0.40773925
134,1437152995677,0.26660287,-0.12590463,0.3127497
135,1437152995695,0.34570992,-0.23830384,0.26540768
136,1437152995715,0.43062016,-0.3006121,0.22203624
137,1437152995735,0.47032642,-0.3876604,0.20126683
138,1437152995757,0.4840709,-0.46768373,0.15606278
139,1437152995778,0.48101655,-0.5467908,0.09467083
140,1437152995797,0.4822383,-0.5877187,0.08275896
141,1437152995817,0.4898741,-0.5974926,0.0934491
142,1437152995840,0.47887853,-0.57305795,0.09833602
143,1437152995857,0.4400886,-0.5217453,0.07878833
144,1437152995880,0.40068778,-0.48600972,0.13712597
145,1437152995901,0.33593607,-0.43194813,0.12674126
146,1437152995917,0.23453242,-0.40690264,0.083980694
147,1437152995938,0.19452074,-0.42095256,0.053131994
148,1437152995954,0.21590103,-0.36994532,0.07084709
149,1437152995975,0.19910224,-0.30122295,0.028697385
150,1437152995994,0.20337829,-0.24196902,-0.046439044
151,1437152996017,0.1716133,-0.2117312,-0.06415413
152,1437152996041,0.14229177,-0.19859761,-0.046133608
153,1437152996057,0.14198634,-0.18882376,-0.018339239
154,1437152996076,0.1312962,-0.18210423,0.08367526
155,1437152996104,0.122438654,-0.1546153,0.1429292
156,1437152996167,0.103807256,-0.13018069,0.13804227
157,1437152996178,0.09128453,-0.1255992,0.12124347
158,1437152996179,0.09617144,-0.1283481,0.07176338
159,1437152996180,0.09983663,-0.13323501,0.05618632
160,1437152996196,0.09678231,-0.15675333,0.09222737
161,1437152996215,0.09281169,-0.17171952,0.100168616
162,1437152996236,0.08181611,-0.17599559,0.031446278
163,1437152996255,0.0995312,-0.19279438,-0.056518316
164,1437152996276,0.11785716,-0.22150505,-0.04399558
165,1437152996295,0.11480284,-0.22914085,0.0073171016
166,1437152996318,0.1257984,-0.21203664,0.042747285
167,1437152996336,0.109305054,-0.19951388,0.074206844
168,1437152996362,0.08303784,-0.2040954,0.06290583
169,1437152996378,0.06257386,-0.21936703,0.008233398
170,1437152996398,0.049745686,-0.22425395,-0.021699
171,1437152996416,0.059824962,-0.20989859,-0.008259963
172,1437152996439,0.073264,-0.2108149,0.0503831
173,1437152996459,0.090979084,-0.20562255,0.080010064
174,1437152996478,0.08364871,-0.20959318,0.092532806
175,1437152996498,0.07540202,-0.2117312,0.08153723
176,1437152996516,0.052494578,-0.20837143,0.08520242
177,1437152996566,0.03264146,-0.20562255,0.09070021
178,1437152996567,0.024089346,-0.18790746,0.086729586
179,1437152996579,0.033252325,-0.16347285,0.10536097
180,1437152996607,0.045469627,-0.14453602,0.13559881
181,1437152996619,0.054021742,-0.12651551,0.15300846
182,1437152996638,0.071736835,-0.113992766,0.16858554
183,1437152996656,0.089146495,-0.10208089,0.1768322
184,1437152996678,0.077845484,-0.07153763,0.19576904
185,1437152996698,0.07967809,-0.057182293,0.20004508
186,1437152996719,0.07540202,-0.046492152,0.19699076
187,1437152996738,0.047302224,-0.0394672,0.1795811
188,1437152996757,0.023783913,-0.026028167,0.14995414
189,1437152996778,0.0027090618,-0.012283698,0.14384548
190,1437152996796,-0.009813676,0.0017662048,0.12918472
191,1437152996889,-0.018060356,0.019481294,0.10200121
192,1437152996890,-0.036386315,0.036585517,0.0934491
193,1437152996891,-0.04860362,0.04177788,0.09497626
194,1437152996892,-0.07059477,0.037196383,0.08367526
195,1437152996899,-0.10327606,0.033531196,0.08306439
196,1437152996920,-0.12740524,0.015510671,0.0784829
197,1437152996936,-0.14909096,-0.0052587464,0.068403624
198,1437152996955,-0.15733764,-0.028166194,0.08245353
199,1437152996976,-0.15275614,-0.05901489,0.09833602
200,1437152996996,-0.1325976,-0.08589296,0.09192194
201,1437152997021,-0.11732596,-0.091085315,0.08520242
202,1437152997036,-0.09319678,-0.09413964,0.06687646
203,1437152997060,-0.065096974,-0.09505594,0.022283299
204,1437152997076,-0.042189535,-0.09352878,0.00059758313
205,1437152997099,-0.008591944,-0.09444507,-0.021699
206,1437152997119,-0.0009561293,-0.09047445,-0.031472843
207,1437152997139,-0.00065069646,-0.10085916,-0.026280489
208,1437152997159,0.009123147,-0.11796339,-0.022309862
209,1437152997178,0.0051525235,-0.15278271,-0.036665197
210,1437152997199,0.0109557435,-0.18363139,-0.044606447
211,1437152997219,0.018286126,-0.2144801,-0.045522742
212,1437152997239,0.027449105,-0.22944629,-0.033916302
213,1437152997262,0.031114295,-0.2492994,-0.017728373
214,1437152997276,0.03600122,-0.26426563,0.002735611
215,1437152997299,0.04638593,-0.26457104,0.012814888
216,1437152997320,0.05127285,-0.25998956,0.019534405
217,1437152997339,0.05493804,-0.26426563,0.006400803
218,1437152997389,0.067155346,-0.2783155,-0.00092957914
219,1437152997390,0.08853562,-0.28167528,-0.006732799
220,1437152997471,0.10961048,-0.26915252,-0.008259963
221,1437152997472,0.11816259,-0.25265917,-0.021088134
222,1437152997484,0.13862658,-0.23769298,-0.0357489
223,1437152997485,0.16183946,-0.21814528,-0.053769425
224,1437152997486,0.17130786,-0.20348454,-0.0629324
225,1437152997499,0.1874958,-0.18088251,-0.07331711
226,1437152997516,0.2015457,-0.1509501,-0.0788149
227,1437152997550,0.19757508,-0.12590463,-0.06629216
228,1437152997556,0.19574247,-0.103913486,-0.038803227
229,1437152997590,0.18963382,-0.09383421,-0.0076490976
230,1437152997638,0.16642095,-0.095361374,0.024421327
231,1437152997639,0.16000687,-0.095361374,0.026559357
232,1437152997640,0.15084387,-0.0984157,0.011287725
233,1437152997681,0.13832115,-0.10513522,-0.0064273663
234,1437152997682,0.13373965,-0.117352515,-0.013452318
235,1437152997696,0.13190706,-0.12498833,-0.012536019
236,1437152997721,0.1257984,-0.12773722,-0.001235012
237,1437152997736,0.11602457,-0.12529376,0.007927965
238,1437152997756,0.10594529,-0.11979598,0.006400803
239,1437152997790,0.102280095,-0.115519926,0.0073171016
240,1437152997796,0.09617144,-0.10605151,0.01648008
241,1437152997818,0.09311712,-0.09719397,0.037860364
242,1437152997836,0.09678231,-0.07642455,0.054659158
243,1437152997856,0.10289097,-0.061763786,0.065349296
244,1437152997877,0.09586601,-0.03580201,0.072374254
245,1437152997897,0.08517587,-0.015948892,0.075734004
246,1437152997916,0.059214097,0.009096585,0.07206882
247,1437152997937,0.042720735,0.028949708,0.07726117
248,1437152997956,0.02317305,0.028644271,0.07481771
249,1437152997976,-0.0067593493,0.026811674,0.061378676
250,1437152997997,-0.0101191085,0.028644271,0.04213642
251,1437152998016,-0.0140897315,0.04361047,0.04916137
252,1437152998036,-0.0043158885,0.052162588,0.055270024
253,1437152998056,0.01767526,0.052773453,0.07054165
254,1437152998077,0.039666407,0.04910826,0.091311075
255,1437152998097,0.05585434,0.03750182,0.11849458
256,1437152998117,0.076012895,0.025284514,0.14598352
257,1437152998137,0.08823019,0.00848572,0.13834769
258,1437152998157,0.10136379,0.006042257,0.12399236
259,1437152998175,0.1031964,0.0066531226,0.12735212
260,1437152998195,0.11938432,-0.016254324,0.1224652
261,1437152998220,0.123660386,-0.029387925,0.120327175
262,1437152998240,0.138932,-0.047103018,0.13926399
263,1437152998256,0.1416809,-0.047103018,0.2394459
264,1437152998278,0.12702014,-0.06420724,0.29411831
265,1437152998296,0.1312962,-0.09780483,0.27640325
266,1437152998319,0.16122858,-0.12254488,0.23608613
267,1437152998336,0.16183946,-0.13812193,0.2131787
268,1437152998356,0.1734459,-0.142398,0.1600334
269,1437152998375,0.17497306,-0.14697948,0.046107046
270,1437152998395,0.17955455,-0.18088251,-0.062016107
271,1437152998416,0.213763,-0.23005715,-0.060794376
272,1437152998441,0.22231512,-0.27312315,0.042441852
273,1437152998457,0.2577453,-0.2996958,0.08978391
274,1437152998477,0.30050588,-0.33848575,0.110247895
275,1437152998499,0.32463506,-0.3821626,0.11146963
276,1437152998518,0.3924411,-0.41178957,0.14598352
277,1437152998541,0.43581253,-0.42370144,0.24433282
278,1437152998559,0.46879926,-0.42003626,0.3726145
279,1437152998580,0.46146888,-0.40965155,0.36894932
280,1437152998602,0.45474935,-0.4035429,0.30358675
281,1437152998621,0.4513896,-0.40842983,0.24860889
282,1437152998639,0.44802985,-0.3934636,0.20065594
283,1437152998660,0.4568874,-0.3849115,0.15270302
284,1437152998679,0.43123105,-0.38246804,0.09650343
285,1437152998702,0.41259965,-0.37941372,0.13162819
286,1437152998748,0.36770105,-0.35620084,0.1420129
287,1437152998749,0.3127232,-0.34795415,0.05618632
288,1437152998790,0.28523424,-0.34612155,0.020145271
289,1437152998791,0.26813003,-0.34673244,0.054659158
290,1437152998797,0.24064107,-0.3390966,0.07909377
291,1437152998818,0.21895535,-0.3549791,0.05832435
292,1437152998837,0.21131954,-0.36689097,0.03755493
293,1437152998883,0.22445314,-0.37941372,0.00090301596
294,1437152998884,0.24033564,-0.40415376,-0.034527168
295,1437152998908,0.2687409,-0.43775135,0.002735611
296,1437152998930,0.28615054,-0.4823445,0.100168616
297,1437152998938,0.28065276,-0.49456182,0.12765756
298,1437152998999,0.25591272,-0.5171638,0.085507855
299,1437152999000,0.27698758,-0.57183623,0.0793992
300,1437152999001,0.2800419,-0.59627086,0.123381495
301,1437152999030,0.27943102,-0.59993607,0.15820083
302,1437152999045,0.2687409,-0.59810346,0.16766924
303,1437152999059,0.2962298,-0.6081827,0.18904951
304,1437152999079,0.28340167,-0.62803584,0.20432115
305,1437152999131,0.286456,-0.6549139,0.19485274
306,1437152999132,0.27118436,-0.6472781,0.17530504
307,1437152999149,0.26751915,-0.5974926,0.12765756
308,1437152999159,0.26018876,-0.5452636,0.14079115
309,1437152999179,0.22200969,-0.4624914,0.28312275
310,1437152999198,0.17130786,-0.37299964,0.33413
311,1437152999221,0.12182778,-0.3192435,0.29808894
312,1437152999240,0.08975735,-0.30458272,0.23578072
313,1437152999258,0.07020967,-0.29847407,0.16614208
314,1437152999278,0.029892566,-0.27770466,0.13498794
315,1437152999300,0.014315502,-0.2416636,0.13162819
316,1437152999321,0.0020981971,-0.20592797,0.12002174
317,1437152999342,0.004236225,-0.1668326,0.07145795
318,1437152999361,-0.009508243,-0.12804267,0.042441852
319,1437152999381,-0.01500603,-0.10727324,0.10536097
320,1437152999401,-0.03119396,-0.07611912,0.14537264
321,1437152999417,-0.007064782,-0.06023662,0.064433
322,1437152999442,-0.011646271,-0.072148494,0.09650343
323,1437152999460,-0.036691748,-0.11093844,0.19271469
324,1437152999480,-0.012868002,-0.114298195,0.23150465
325,1437152999500,-0.0269179,-0.09444507,0.21256784
326,1437152999518,-0.050436217,-0.073675655,0.17499962
327,1437152999542,-0.028445065,-0.060847484,0.13315535
328,1437152999562,-0.025696173,-0.06695614,0.11208049
329,1437152999582,-0.0030941572,-0.0816169,0.08825675
330,1437152999600,0.011872041,-0.10085916,0.058935214
331,1437152999620,0.03600122,-0.08039518,0.0073171016
332,1437152999640,0.026227374,-0.07184306,0.03999839
333,1437152999659,0.00820685,-0.06359638,0.06321127
334,1437152999684,0.0069851186,-0.055960566,0.07115252
335,1437152999765,0.032030594,-0.045881286,0.08092636
336,1437152999766,0.07265313,-0.05687686,0.0934491
337,1437152999767,0.103807256,-0.06970503,0.07481771
338,1437152999768,0.11602457,-0.08680926,0.09955775
339,1437152999811,0.11846803,-0.08558753,0.1224652
340,1437152999812,0.1416809,-0.09475051,0.14934327
341,1437152999840,0.102280095,-0.10880041,0.15942255
342,1437152999841,0.11999519,-0.12621006,0.11971631
343,1437152999883,0.11144307,-0.11979598,0.075428575
344,1437152999884,0.0714314,-0.11643623,0.018312674
345,1437152999900,0.058908664,-0.15644789,0.056797184
346,1437152999919,0.06074126,-0.18821289,0.088562176
347,1437152999938,0.065933615,-0.18607485,-0.033305436
348,1437152999963,0.058908664,-0.20226279,-0.025975056
349,1437152999980,0.04058271,-0.20378995,0.0073171016
350,1437153000000,0.030808862,-0.21814528,-0.0033730417
351,1437153000019,-0.0030941572,-0.22975174,-0.021699
352,1437153000042,-0.03577545,-0.20592797,-0.03116741
353,1437153000062,-0.049214486,-0.1509501,-0.0629324
354,1437153000082,-0.08708812,-0.10055373,-0.091337636
355,1437153000102,-0.19215696,0.011845477,-0.12432436
356,1437153000122,-0.32532555,0.17433563,-0.20740202
357,1437153000144,-0.46490827,0.3276628,-0.27123746
358,1437153000161,-0.55378914,0.44281092,-0.31796864
359,1437153000182,-0.66343945,0.52436143,-0.3286588
360,1437153000200,-0.7281912,0.63706607,-0.30941653
361,1437153000219,-0.7828636,0.74060774,-0.27459723
362,1437153000239,-0.79355377,0.791615,-0.23550186
363,1437153000265,-0.7795039,0.76320976,-0.19701731
364,1437153000284,-0.72116625,0.7186166,-0.1527296
365,1437153000304,-0.6237332,0.63309544,-0.119437434
366,1437153000323,-0.5036982,0.5268049,-0.084312685
367,1437153000339,-0.37785998,0.40402097,-0.08309095
368,1437153000360,-0.28928453,0.29437065,-0.104471244
369,1437153000380,-0.21964589,0.22687003,-0.09958432
370,1437153000401,-0.16650061,0.15600967,-0.072706245
371,1437153000419,-0.12160201,0.112027384,-0.097446285
372,1437153000563,-0.10602495,0.08728733,-0.09225393
373,1437153000564,-0.095029384,0.070488535,-0.058045484
374,1437153000565,-0.09411308,0.070183106,-0.047966205
375,1437153000566,-0.09197505,0.08240042,-0.04002496
376,1437153000567,-0.087698996,0.105002426,-0.031778276
377,1437153000568,-0.08067404,0.11050021,-0.022615295
378,1437153000569,-0.06570785,0.103169836,-0.010703422
379,1437153000580,-0.052268807,0.100420944,0.015258349
380,1437153000605,-0.035164583,0.090036236,0.06748733
