id,attr_time,attr_x,attr_y,attr_z
1,1435990454119,-9.57434,-2.02733,1.34506
2,1435990454139,-9.56479,-1.99597,1.39345
3,1435990454159,-9.55122,-1.98445,1.41139
4,1435990454178,-9.51335,-1.97557,1.42615
5,1435990454198,-9.52959,-1.98187,1.45395
6,1435990454218,-9.55446,-2.00818,1.40735
7,1435990454238,-9.53834,-2.00737,1.37628
8,1435990454257,-9.53804,-2.01022,1.39708
9,1435990454277,-9.54524,-2.00552,1.33041
10,1435990454297,-9.52776,-2.00702,1.34845
11,1435990454316,-9.55386,-2.02527,1.35837
12,1435990454336,-9.52835,-2.03238,1.38365
13,1435990454356,-9.56699,-1.99843,1.39401
14,1435990454374,-9.56685,-2.00259,1.39221
15,1435990454396,-9.52701,-2.00899,1.43456
16,1435990454415,-9.5379,-1.98004,1.41574
17,1435990454435,-9.5269,-2.00275,1.39914
18,1435990454455,-9.53383,-2.01756,1.39552
19,1435990454474,-9.52927,-2.04524,1.39505
20,1435990454494,-9.54939,-2.06349,1.35515
21,1435990454514,-9.57919,-2.05342,1.30473
22,1435990454533,-9.54581,-2.00975,1.40678
23,1435990454553,-9.55437,-1.97728,1.37785
24,1435990454573,-9.53853,-1.91187,1.42242
25,1435990454593,-9.54269,-1.93948,1.38406
26,1435990454612,-9.55089,-1.94292,1.35092
27,1435990454632,-9.55858,-1.92409,1.37088
28,1435990454652,-9.58437,-1.9384,1.30769
29,1435990454672,-9.60376,-1.9664,1.30066
30,1435990454691,-9.57201,-1.937,1.37991
31,1435990454711,-9.48825,-1.94637,1.41388
32,1435990454730,-9.50738,-1.98032,1.39027
33,1435990454751,-9.50343,-1.9859,1.43124
34,1435990454770,-9.51437,-2.00862,1.39946
35,1435990454790,-9.60202,-2.0014,1.37727
36,1435990454810,-9.59247,-1.99593,1.33881
37,1435990454830,-9.54808,-2.01442,1.33626
38,1435990454849,-9.53618,-1.96252,1.39854
39,1435990454869,-9.49696,-1.96182,1.40451
40,1435990454889,-9.54164,-1.99272,1.42386
41,1435990454908,-9.54819,-2.03534,1.40292
42,1435990454928,-9.53156,-2.03748,1.4025
43,1435990454968,-9.56239,-2.03786,1.37531
44,1435990454987,-9.53401,-1.9895,1.36824
45,1435990455007,-9.54245,-2.00624,1.36913
46,1435990455027,-9.53153,-2.01468,1.35768
47,1435990455046,-9.52769,-2.04039,1.38901
48,1435990455066,-9.53714,-1.98903,1.3676
49,1435990455086,-9.53729,-2.00072,1.38795
50,1435990455106,-9.56065,-2.00671,1.36797
51,1435990455126,-9.53923,-1.98451,1.40778
52,1435990455145,-9.54686,-1.99846,1.39595
53,1435990455165,-9.54067,-1.9949,1.38991
54,1435990455184,-9.55211,-2.03433,1.37581
55,1435990455207,-9.5605,-2.02248,1.34822
56,1435990455225,-9.5572,-1.98334,1.36485
57,1435990455246,-9.53024,-1.99268,1.38704
58,1435990455265,-9.52623,-1.9971,1.35849
59,1435990455286,-9.5197,-1.99419,1.41997
60,1435990455305,-9.56703,-2.01167,1.36169
61,1435990455325,-9.57712,-2.0105,1.37529
62,1435990455345,-9.53651,-1.99554,1.28723
63,1435990455365,-9.57671,-1.98624,1.3004
64,1435990455384,-9.59233,-1.97415,1.3421
65,1435990455403,-9.51952,-1.96303,1.4254
66,1435990455423,-9.51927,-1.96407,1.40817
67,1435990455443,-9.52806,-1.99628,1.37447
68,1435990455462,-9.51862,-2.03751,1.39439
69,1435990455483,-9.55586,-2.04478,1.3385
70,1435990455501,-9.56255,-2.04832,1.31299
71,1435990455522,-9.56233,-1.98579,1.30225
72,1435990455541,-9.55365,-1.97885,1.37724
73,1435990455561,-9.53552,-1.98027,1.39236
74,1435990455581,-9.58125,-1.95444,1.44051
75,1435990455601,-9.57291,-2.01328,1.39828
76,1435990455621,-9.55646,-2.01436,1.3744
77,1435990455641,-9.52835,-2.01096,1.34441
78,1435990455660,-9.5558,-2.00215,1.32759
79,1435990455679,-9.51975,-1.99797,1.37598
80,1435990455700,-9.52168,-2.02998,1.34213
81,1435990455717,-9.55077,-2.00726,1.34149
82,1435990455739,-9.56644,-2.04855,1.3988
83,1435990455756,-9.54649,-2.03125,1.41132
84,1435990455777,-9.55216,-1.98485,1.44388
85,1435990455794,-9.54489,-1.97496,1.45764
86,1435990455816,-9.55424,-1.97469,1.43362
87,1435990455836,-9.53337,-2.00058,1.42389
88,1435990455854,-9.55183,-2.00632,1.37601
89,1435990455875,-9.55583,-2.0061,1.37352
90,1435990455895,-9.55884,-2.03387,1.36136
91,1435990455934,-9.54465,-1.98581,1.42012
92,1435990455954,-9.50615,-1.9633,1.38219
93,1435990455974,-9.54141,-1.94768,1.36845
94,1435990455993,-9.55809,-2.01511,1.31859
95,1435990456013,-9.5717,-1.98106,1.38014
96,1435990456033,-9.57861,-1.94254,1.39775
97,1435990456053,-9.52849,-1.92653,1.32771
98,1435990456072,-9.55745,-1.96399,1.37877
99,1435990456092,-9.51877,-1.95482,1.36098
100,1435990456112,-9.4998,-1.95235,1.38393
101,1435990456132,-9.53818,-1.97842,1.35527
102,1435990456151,-9.55541,-1.99011,1.38329
103,1435990456171,-9.55444,-2.01822,1.37442
104,1435990456190,-9.58168,-2.00415,1.38243
105,1435990456211,-9.56036,-1.9678,1.37677
106,1435990456230,-9.55768,-1.96609,1.36855
107,1435990456250,-9.55041,-1.96704,1.40529
108,1435990456270,-9.54102,-1.9295,1.42049
109,1435990456289,-9.54724,-1.95462,1.39369
110,1435990456309,-9.57547,-1.97562,1.37558
111,1435990456329,-9.55875,-1.97667,1.32074
112,1435990456349,-9.54071,-1.964,1.338
113,1435990456368,-9.54292,-1.97333,1.3231
114,1435990456388,-9.55872,-1.99097,1.37607
115,1435990456408,-9.55923,-2.00047,1.40692
116,1435990456428,-9.53548,-1.99826,1.42157
117,1435990456448,-9.55188,-2.02225,1.45485
118,1435990456467,-9.54919,-1.99272,1.41888
119,1435990456486,-9.53741,-1.96883,1.42165
120,1435990456507,-9.5248,-1.95915,1.40262
121,1435990456526,-9.54665,-2.00162,1.39125
122,1435990456546,-9.54784,-2.01511,1.34653
123,1435990456566,-9.57137,-2.00644,1.34082
124,1435990456585,-9.56711,-2.00064,1.32977
125,1435990456605,-9.54979,-1.96202,1.34334
126,1435990456625,-9.5323,-1.95335,1.39072
127,1435990456645,-9.52127,-1.92509,1.37119
128,1435990456664,-9.58585,-1.94069,1.34943
129,1435990456684,-9.60998,-1.96834,1.39442
130,1435990456704,-9.54887,-1.96033,1.36716
131,1435990456724,-9.55167,-1.93576,1.34491
132,1435990456744,-9.57913,-1.98508,1.35181
133,1435990456763,-9.54732,-1.91499,1.34976
134,1435990456782,-9.52058,-1.91344,1.35863
135,1435990456803,-9.53886,-1.93465,1.35716
136,1435990456822,-9.53844,-1.96609,1.36548
137,1435990456842,-9.57817,-1.95216,1.32487
138,1435990456861,-9.59976,-1.95036,1.32596
139,1435990456901,-9.57819,-1.95953,1.33214
140,1435990456921,-9.53429,-1.91629,1.30426
141,1435990456941,-9.54575,-1.9173,1.3452
142,1435990456962,-9.56014,-1.92392,1.38324
143,1435990456979,-9.58142,-1.92552,1.38475
144,1435990457000,-9.59383,-1.9437,1.36551
145,1435990457019,-9.57039,-1.91058,1.3656
146,1435990457039,-9.58414,-1.90535,1.34541
147,1435990457058,-9.58043,-1.92795,1.34166
148,1435990457079,-9.54648,-1.93227,1.30714
149,1435990457098,-9.54053,-1.93379,1.30399
150,1435990457119,-9.55112,-1.96564,1.31543
151,1435990457138,-9.54892,-1.96014,1.3613
152,1435990457157,-9.53847,-1.9352,1.35541
153,1435990457178,-9.54144,-1.95879,1.39413
154,1435990457197,-9.54987,-1.93614,1.39148
155,1435990457217,-9.56302,-1.96257,1.33255
156,1435990457237,-9.54761,-1.98297,1.34145
157,1435990457256,-9.55075,-1.98807,1.37326
158,1435990457276,-9.56888,-1.95668,1.35533
159,1435990457296,-9.56284,-1.96944,1.39702
160,1435990457315,-9.56496,-1.92725,1.37668
161,1435990457335,-9.53561,-1.94664,1.38455
162,1435990457355,-9.56035,-1.94843,1.38512
163,1435990457375,-9.58736,-1.95834,1.37071
164,1435990457394,-9.55966,-1.93433,1.36951
165,1435990457414,-9.55884,-1.92575,1.2686
166,1435990457434,-9.61723,-1.9379,1.33461
167,1435990457454,-9.56455,-1.88316,1.39664
168,1435990457472,-9.5155,-1.87924,1.39893
169,1435990457493,-9.54605,-1.89653,1.36281
170,1435990457513,-9.53522,-1.93372,1.33939
171,1435990457533,-9.54987,-1.96002,1.32242
172,1435990457552,-9.58989,-1.95584,1.28944
173,1435990457572,-9.59863,-1.91585,1.30266
174,1435990457592,-9.60194,-1.91657,1.35315
175,1435990457611,-9.55179,-1.90424,1.39778
176,1435990457631,-9.54314,-1.92372,1.4032
177,1435990457651,-9.57375,-1.9189,1.36624
178,1435990457671,-9.55817,-1.90593,1.36221
179,1435990457690,-9.57335,-1.92299,1.30421
180,1435990457710,-9.57785,-1.91164,1.31406
181,1435990457730,-9.56329,-1.90784,1.29504
182,1435990457750,-9.55267,-1.92616,1.35054
183,1435990457772,-9.52512,-1.9261,1.33888
184,1435990457789,-9.52557,-1.95485,1.38104
185,1435990457811,-9.57579,-1.94264,1.33319
186,1435990457829,-9.56027,-1.94131,1.3333
187,1435990457851,-9.58078,-1.9632,1.3979
188,1435990457890,-9.55676,-1.95297,1.37154
189,1435990457891,-9.55595,-1.97794,1.37721
190,1435990457929,-9.56001,-1.94084,1.40363
191,1435990457949,-9.55786,-1.95602,1.41507
192,1435990457967,-9.56331,-1.95299,1.32494
193,1435990457988,-9.50522,-1.90846,1.38239
194,1435990458007,-9.51486,-1.95279,1.34543
195,1435990458028,-9.57005,-1.96982,1.35416
196,1435990458048,-9.54894,-1.94449,1.3573
197,1435990458068,-9.58638,-1.94012,1.32663
198,1435990458087,-9.58464,-1.94733,1.33284
199,1435990458106,-9.59326,-1.89732,1.36391
200,1435990458127,-9.52341,-1.86139,1.37479
201,1435990458146,-9.53749,-1.87585,1.3685
202,1435990458165,-9.52722,-1.88872,1.35052
203,1435990458183,-9.53833,-1.90715,1.36089
204,1435990458204,-9.5679,-1.93207,1.31429
205,1435990458223,-9.58607,-1.9422,1.31616
206,1435990458243,-9.563,-1.93947,1.3299
207,1435990458263,-9.57201,-1.92311,1.39906
208,1435990458282,-9.54536,-1.88708,1.42612
209,1435990458302,-9.57365,-1.918,1.37488
210,1435990458322,-9.58527,-1.93375,1.37766
211,1435990458342,-9.58498,-1.9437,1.33827
212,1435990458361,-9.56441,-1.91681,1.30795
213,1435990458381,-9.58974,-1.9136,1.33191
214,1435990458400,-9.57242,-1.91974,1.31425
215,1435990458421,-9.55089,-1.94748,1.3172
216,1435990458439,-9.55304,-1.97331,1.31818
217,1435990458459,-9.55339,-2.0011,1.37506
218,1435990458479,-9.53903,-1.95244,1.34164
219,1435990458499,-9.57857,-1.94635,1.35287
220,1435990458519,-9.54625,-1.95624,1.38959
221,1435990458539,-9.51907,-1.98094,1.37801
222,1435990458559,-9.54578,-1.97466,1.41743
223,1435990458578,-9.5723,-1.99568,1.35019
224,1435990458598,-9.56667,-1.97983,1.3813
225,1435990458617,-9.54246,-1.98293,1.37892
226,1435990458639,-9.53224,-1.96503,1.37428
227,1435990458657,-9.54507,-1.97192,1.33679
228,1435990458676,-9.53047,-1.98296,1.31551
229,1435990458697,-9.55998,-1.99303,1.36838
230,1435990458716,-9.58003,-1.94618,1.39514
231,1435990458736,-9.577,-1.96964,1.32492
232,1435990458756,-9.60411,-1.98358,1.40788
233,1435990458775,-9.54532,-1.94754,1.40466
234,1435990458795,-9.52556,-1.97128,1.42355
235,1435990458835,-9.53638,-1.98573,1.33478
236,1435990458855,-9.51428,-1.9735,1.39886
237,1435990458875,-9.5439,-2.0159,1.36168
238,1435990458894,-9.59839,-1.96964,1.30984
239,1435990458914,-9.57512,-1.96379,1.33464
240,1435990458934,-9.58209,-1.97021,1.38037
241,1435990458952,-9.54948,-1.94856,1.43312
242,1435990458973,-9.56198,-1.93343,1.40642
243,1435990458993,-9.57663,-1.93848,1.41235
244,1435990459012,-9.57245,-1.96448,1.39693
245,1435990459032,-9.53453,-1.95491,1.3811
246,1435990459052,-9.51126,-1.97197,1.34367
247,1435990459072,-9.55045,-1.96442,1.34285
248,1435990459091,-9.54616,-2.02866,1.37526
249,1435990459111,-9.54842,-2.03912,1.35838
250,1435990459131,-9.54919,-2.00859,1.3822
251,1435990459151,-9.56702,-1.95038,1.40675
252,1435990459169,-9.56149,-1.92915,1.42606
253,1435990459190,-9.55417,-1.92915,1.37581
254,1435990459209,-9.54897,-1.94968,1.38118
255,1435990459230,-9.55603,-1.97894,1.36321
256,1435990459249,-9.5663,-1.96983,1.34218
257,1435990459269,-9.55376,-1.98074,1.37547
258,1435990459289,-9.5404,-1.97444,1.36105
259,1435990459308,-9.52954,-1.9879,1.39383
260,1435990459327,-9.5479,-1.96486,1.37036
261,1435990459346,-9.54185,-2.00627,1.39444
262,1435990459366,-9.58513,-1.94713,1.43121
263,1435990459386,-9.58054,-1.93634,1.41335
264,1435990459408,-9.55437,-1.94708,1.38988
265,1435990459427,-9.59718,-1.95354,1.42236
266,1435990459446,-9.55164,-1.93677,1.45952
267,1435990459466,-9.51741,-1.95425,1.37669
268,1435990459486,-9.51238,-1.99304,1.37874
269,1435990459506,-9.52524,-1.97063,1.37201
270,1435990459526,-9.55249,-1.98322,1.3481
271,1435990459545,-9.55695,-1.97255,1.37985
272,1435990459565,-9.55881,-1.9973,1.3419
273,1435990459584,-9.57855,-1.9857,1.40985
274,1435990459604,-9.56981,-1.96877,1.4496
275,1435990459624,-9.56,-1.93834,1.47125
276,1435990459644,-9.57159,-1.95164,1.40797
277,1435990459664,-9.56633,-1.94698,1.3952
278,1435990459683,-9.53897,-1.93758,1.39316
279,1435990459703,-9.53575,-1.98093,1.34265
280,1435990459723,-9.53834,-1.96791,1.38417
281,1435990459742,-9.53171,-1.99167,1.38188
282,1435990459762,-9.56447,-2.01079,1.35924
283,1435990459782,-9.5473,-1.98705,1.39781
284,1435990459821,-9.55797,-1.99261,1.39424
285,1435990459841,-9.55186,-1.94894,1.39137
286,1435990459861,-9.55507,-1.93269,1.42201
287,1435990459881,-9.52663,-1.93343,1.4216
288,1435990459901,-9.52971,-1.9408,1.42648
289,1435990459920,-9.54756,-1.98766,1.37653
290,1435990459940,-9.56244,-1.98228,1.39388
291,1435990459964,-9.54098,-1.93214,1.51407
292,1435990459979,-9.55788,-1.85669,1.62569
293,1435990459999,-9.56776,-1.81503,1.69772
294,1435990460019,-9.62138,-1.81824,1.6636
295,1435990460038,-9.70747,-1.88982,1.66684
296,1435990460058,-9.67766,-1.8783,1.66017
297,1435990460077,-9.50153,-1.87186,1.48647
298,1435990460098,-9.45578,-1.91104,1.45596
299,1435990460117,-9.50238,-1.91411,1.51025
300,1435990460137,-9.45149,-1.91713,1.45714
301,1435990460157,-9.44736,-1.88206,1.43117
302,1435990460176,-9.48537,-1.66988,1.53984
303,1435990460198,-9.50363,-1.43971,1.5807
304,1435990460218,-9.52794,-1.44664,1.52071
305,1435990460237,-9.54735,-1.53474,1.46844
306,1435990460257,-9.58748,-1.4942,1.49277
307,1435990460278,-9.61386,-1.53885,1.44444
308,1435990460296,-9.60805,-1.58403,1.38466
309,1435990460317,-9.586,-1.6366,1.24634
310,1435990460336,-9.6093,-1.73804,1.12202
311,1435990460356,-9.74516,-1.82982,1.09282
312,1435990460376,-9.6687,-1.84335,1.07413
313,1435990460394,-9.49948,-1.87697,1.15657
314,1435990460415,-9.38875,-1.97246,1.21524
315,1435990460436,-9.31685,-2.08627,1.26331
316,1435990460455,-9.34796,-2.15878,1.23235
317,1435990460475,-9.4809,-2.14992,1.23119
318,1435990460494,-9.543,-2.13647,1.28116
319,1435990460513,-9.55672,-2.13989,1.25316
320,1435990460534,-9.52995,-2.18559,1.2968
321,1435990460554,-9.52547,-2.20911,1.15627
322,1435990460572,-9.60243,-2.23328,1.11452
323,1435990460593,-9.65079,-2.22833,1.07272
324,1435990460612,-9.6136,-2.26688,0.966538
325,1435990460632,-9.56451,-2.28714,0.932739
326,1435990460652,-9.54315,-2.23228,0.872955
327,1435990460671,-9.5228,-2.2588,0.848419
328,1435990460692,-9.56163,-2.24579,0.824173
329,1435990460709,-9.55328,-2.22772,0.792801
330,1435990460731,-9.58441,-2.2141,0.849838
331,1435990460749,-9.6407,-2.16327,0.847122
332,1435990460788,-9.59618,-2.14436,0.798508
333,1435990460807,-9.62572,-2.16232,0.817444
334,1435990460826,-9.61833,-2.05141,0.903992
335,1435990460846,-9.61859,-1.8844,0.965729
336,1435990460865,-9.63091,-1.86778,0.991074
337,1435990460885,-9.62424,-1.92114,0.999191
338,1435990460907,-9.62705,-2.01968,1.0314
339,1435990460926,-9.64996,-2.15532,0.978165
340,1435990460946,-9.62454,-2.25623,0.92894
341,1435990460966,-9.5959,-2.27608,0.910706
342,1435990460985,-9.55902,-2.27681,0.976334
343,1435990461005,-9.56029,-2.32773,0.939575
344,1435990461025,-9.59582,-2.31741,0.922165
345,1435990461044,-9.54672,-2.25618,0.927002
346,1435990461063,-9.5669,-2.17986,0.973785
347,1435990461085,-9.62309,-2.14674,0.958557
348,1435990461105,-9.6425,-2.07729,0.951035
349,1435990461125,-9.64763,-2.026,0.952087
350,1435990461145,-9.61449,-1.9726,0.922195
351,1435990461164,-9.5526,-1.92435,0.958908
352,1435990461184,-9.57007,-1.93362,0.963669
353,1435990461205,-9.5898,-1.92912,0.9366
354,1435990461224,-9.52876,-1.97147,0.937988
355,1435990461244,-9.58215,-2.04372,0.946213
356,1435990461264,-9.60358,-2.09779,0.960312
357,1435990461284,-9.62213,-2.10292,0.994186
358,1435990461303,-9.60506,-2.11943,1.03917
359,1435990461323,-9.61107,-2.17632,1.11305
360,1435990461343,-9.64867,-2.21031,1.18295
361,1435990461362,-9.63148,-2.31741,1.26224
362,1435990461381,-9.60333,-2.33469,1.2917
363,1435990461402,-9.5674,-2.2677,1.31148
364,1435990461420,-9.5811,-2.2028,1.36658
365,1435990461441,-9.5755,-2.21539,1.28497
366,1435990461461,-9.58441,-2.22986,1.27904
367,1435990461481,-9.54407,-2.15463,1.28035
368,1435990461501,-9.48906,-2.04834,1.31943
369,1435990461519,-9.46527,-2.05701,1.32777
370,1435990461540,-9.46188,-2.04599,1.25299
371,1435990461560,-9.47217,-2.03574,1.2847
372,1435990461580,-9.4993,-2.05513,1.14502
373,1435990461598,-9.53926,-2.07321,1.10977
374,1435990461619,-9.54784,-2.10539,1.08812
375,1435990461639,-9.53879,-2.09247,1.08424
376,1435990461658,-9.53395,-2.0799,1.12141
377,1435990461678,-9.50856,-1.99217,1.16885
378,1435990461697,-9.43384,-1.9225,1.21437
379,1435990461717,-9.38925,-1.84323,1.2561
380,1435990461737,-9.44199,-1.81615,1.26495
381,1435990461757,-9.5479,-1.8201,1.23975
382,1435990461777,-9.67503,-1.85107,1.12827
383,1435990461816,-9.68385,-1.85739,1.16472
384,1435990461836,-9.65379,-1.88356,1.21703
385,1435990461855,-9.59933,-1.86543,1.27655
386,1435990461874,-9.56905,-1.93623,1.29056
387,1435990461895,-9.54179,-1.91074,1.29565
388,1435990461914,-9.51154,-1.90202,1.2793
389,1435990461935,-9.47661,-1.93275,1.28032
390,1435990461954,-9.49516,-1.96623,1.20586
391,1435990461974,-9.53168,-1.9752,1.24886
392,1435990461994,-9.57869,-1.98514,1.29034
393,1435990462014,-9.55931,-1.94455,1.37022
394,1435990462033,-9.53807,-1.89246,1.36288
395,1435990462053,-9.53987,-1.8688,1.38869
396,1435990462073,-9.56259,-1.8588,1.3765
397,1435990462091,-9.59509,-1.7982,1.38676
398,1435990462112,-9.6026,-1.59747,1.52399
399,1435990462132,-9.61617,-1.46892,1.50549
400,1435990462152,-9.59715,-1.51093,1.40639
401,1435990462171,-9.56898,-1.63814,1.32808
402,1435990462190,-9.51674,-1.66042,1.19575
403,1435990462211,-9.57349,-1.71872,1.10335
404,1435990462231,-9.62587,-1.82169,1.02965
405,1435990462250,-9.60197,-1.81682,1.13892
406,1435990462270,-9.52757,-1.76376,1.20093
407,1435990462289,-9.50346,-1.78055,1.17986
408,1435990462310,-9.45595,-1.81763,1.16995
409,1435990462329,-9.48875,-1.77003,1.16469
410,1435990462349,-9.52389,-1.69312,1.12303
411,1435990462367,-9.51935,-1.71086,1.13113
412,1435990462388,-9.53052,-1.74821,1.02032
413,1435990462407,-9.46149,-1.74146,1.00737
414,1435990462427,-9.40063,-1.80563,0.890808
415,1435990462447,-9.37201,-1.87608,0.812042
416,1435990462467,-9.33775,-1.99857,0.810364
417,1435990462487,-9.29297,-2.11006,0.763931
418,1435990462506,-9.28481,-2.23283,0.759735
419,1435990462527,-9.42433,-2.32825,0.705475
420,1435990462546,-9.71812,-2.43945,0.65358
421,1435990462566,-9.96994,-2.49634,0.595886
422,1435990462583,-10.1066,-2.55774,0.481018
423,1435990462606,-9.83287,-2.6149,0.454361
424,1435990462625,-9.27931,-2.7429,0.446426
425,1435990462645,-9.24795,-2.69852,0.411407
426,1435990462665,-9.66832,-2.69481,0.326202
427,1435990462682,-10.0806,-2.63739,0.377808
428,1435990462704,-10.1523,-2.47333,0.435028
429,1435990462744,-9.97002,-2.47476,0.435364
430,1435990462745,-9.82178,-2.52971,0.384796
431,1435990462783,-9.75423,-2.59752,0.31778
432,1435990462802,-9.73377,-2.5732,0.274551
433,1435990462823,-9.60327,-2.44194,0.393539
434,1435990462842,-9.50024,-2.38182,0.214142
435,1435990462863,-9.4613,-2.34706,0.223373
436,1435990462882,-9.3046,-2.28096,0.245728
437,1435990462901,-9.20178,-2.23923,0.184265
438,1435990462921,-9.28642,-2.27148,0.304245
439,1435990462941,-9.36589,-2.295,0.441803
440,1435990462961,-9.36285,-2.25555,0.494614
441,1435990462981,-9.28693,-2.17426,0.622894
442,1435990462999,-9.24802,-2.09256,0.723831
443,1435990463020,-9.32192,-2.06133,0.789902
444,1435990463039,-9.51697,-2.08716,0.863205
445,1435990463059,-9.86824,-2.14864,0.808121
446,1435990463079,-10.2353,-2.14265,0.739533
447,1435990463099,-10.5703,-2.18324,0.800659
448,1435990463119,-11.3482,-2.23064,0.828934
449,1435990463138,-12.791,-2.16438,0.698639
450,1435990463158,-14.2706,-1.96127,0.38974
451,1435990463177,-14.7799,-1.94728,-0.0765076
452,1435990463198,-14.1712,-2.08345,-0.354645
453,1435990463216,-13.7872,-2.57433,-0.612518
454,1435990463237,-14.1687,-2.80925,-0.644165
455,1435990463257,-14.3844,-2.43387,-0.22258
456,1435990463288,-13.5026,-1.27243,0.131393
457,1435990463292,-11.1293,-0.618027,-0.275391
