id,attr_time,attr_x,attr_y,attr_z
1,1436798088018,-1.5089456,9.935937,-0.60333884
2,1436798088037,-1.5185224,9.933543,-0.5967548
3,1436798088055,-1.5292963,9.936536,-0.6075287
4,1436798088077,-1.508347,9.93893,-0.6206968
5,1436798088140,-1.5239093,9.9233675,-0.59615624
6,1436798088141,-1.525705,9.930551,-0.5979519
7,1436798088142,-1.5472529,9.925163,-0.5931635
8,1436798088158,-1.5155296,9.924564,-0.60693014
9,1436798088175,-1.525705,9.931149,-0.58418524
10,1436798088196,-1.5263035,9.927557,-0.61770403
11,1436798088216,-1.501763,9.929952,-0.6159084
12,1436798088237,-1.5095441,9.93893,-0.5883751
13,1436798088256,-1.5233108,9.921572,-0.5805939
14,1436798088279,-1.5340848,9.935339,-0.57999533
15,1436798088299,-1.4856021,9.940725,-0.62728083
16,1436798088319,-1.4784195,9.940127,-0.6218939
17,1436798088336,-1.513734,9.927557,-0.59495914
18,1436798088359,-1.5107412,9.944916,-0.5883751
19,1436798088379,-1.5346833,9.932345,-0.6003461
20,1436798088399,-1.5221137,9.928156,-0.6194997
21,1436798088419,-1.5029601,9.940127,-0.62728083
22,1436798088439,-1.5155296,9.917382,-0.6135142
23,1436798088459,-1.5161282,9.919178,-0.5943606
24,1436798088476,-1.4969746,9.919178,-0.62009823
25,1436798088500,-1.4856021,9.949704,-0.641646
26,1436798088519,-1.5047557,9.93474,-0.62009823
27,1436798088539,-1.5071499,9.929353,-0.6194997
28,1436798088559,-1.5029601,9.943718,-0.6380547
29,1436798088578,-1.5041572,9.940127,-0.62847793
30,1436798088598,-1.4862007,9.916184,-0.6338649
31,1436798088619,-1.536479,9.916783,-0.6410475
32,1436798088639,-1.4951789,9.930551,-0.61112
33,1436798088659,-1.4873978,9.952098,-0.62009823
34,1436798088679,-1.4802152,9.943718,-0.6338649
35,1436798088699,-1.5095441,9.941324,-0.6344634
36,1436798088717,-1.5023615,9.91798,-0.62728083
37,1436798088737,-1.4873978,9.922171,-0.62488663
38,1436798088810,-1.4891934,9.937134,-0.6332663
39,1436798088811,-1.508347,9.940127,-0.6464345
40,1436798088824,-1.4879963,9.948506,-0.65780693
41,1436798088825,-1.471237,9.940725,-0.6464345
42,1436798088836,-1.5209166,9.952098,-0.65421563
43,1436798088857,-1.5125369,9.940725,-0.6452374
44,1436798088877,-1.4862007,9.937733,-0.623091
45,1436798088897,-1.5191209,9.920973,-0.6500258
46,1436798088917,-1.496376,9.935339,-0.6584055
47,1436798088937,-1.4838065,9.936536,-0.6536171
48,1436798088958,-1.4921862,9.932944,-0.641646
49,1436798088978,-1.4939818,9.93893,-0.6242881
50,1436798088998,-1.5065514,9.950901,-0.6548142
51,1436798089017,-1.5071499,9.929952,-0.65780693
52,1436798089037,-1.508347,9.926959,-0.6452374
53,1436798089060,-1.42455,9.944317,-0.6488287
54,1436798089080,-1.4646529,9.944317,-0.6290765
55,1436798089100,-1.5149311,9.914988,-0.6536171
56,1436798089120,-1.5131354,9.925163,-0.66498953
57,1436798089140,-1.5011644,9.937134,-0.66139823
58,1436798089160,-1.501763,9.935339,-0.6775591
59,1436798089180,-1.5011644,9.928755,-0.66259533
60,1436798089201,-1.484405,9.940725,-0.66498953
61,1436798089217,-1.5041572,9.915586,-0.6404489
62,1436798089240,-1.4580688,9.940127,-0.6440403
63,1436798089260,-1.5041572,9.931149,-0.6374562
64,1436798089280,-1.4915876,9.926959,-0.6326678
65,1436798089301,-1.5412674,9.916783,-0.5758055
66,1436798089320,-1.5340848,9.907805,-0.599149
67,1436798089340,-1.4981717,9.945514,-0.6991069
68,1436798089359,-1.4083891,9.978435,-0.74639237
69,1436798089392,-1.3497312,9.973047,-0.7140707
70,1436798089400,-1.4933833,9.93474,-0.6823475
71,1436798089420,-1.5029601,9.93893,-0.7044938
72,1436798089440,-1.5023615,9.940127,-0.6757634
73,1436798089458,-1.5149311,9.925163,-0.6667852
74,1436798089483,-1.5107412,9.926959,-0.64583594
75,1436798089543,-1.5155296,9.928755,-0.65660983
76,1436798089544,-1.5251064,9.928755,-0.6721721
77,1436798089545,-1.4909891,9.950302,-0.6805518
78,1436798089557,-1.5095441,9.937134,-0.6697779
79,1436798089577,-1.4933833,9.927557,-0.6206968
80,1436798089602,-1.496376,9.925163,-0.6500258
81,1436798089619,-1.4634558,9.941324,-0.6452374
82,1436798089639,-1.4933833,9.932944,-0.66379243
83,1436798089659,-1.5005659,9.932345,-0.65182143
84,1436798089678,-1.5239093,9.919178,-0.62728083
85,1436798089699,-1.4784195,9.960478,-0.6655881
86,1436798089719,-1.5041572,9.915586,-0.66379243
87,1436798089738,-1.4772224,9.928755,-0.65182143
88,1436798089759,-1.5089456,9.931149,-0.6410475
89,1436798089780,-1.5161282,9.911995,-0.6302736
90,1436798089800,-1.5053543,9.932345,-0.62249243
91,1436798089821,-1.5251064,9.92636,-0.6500258
92,1436798089841,-1.4915876,9.934141,-0.65242
93,1436798089861,-1.483208,9.929952,-0.61171854
94,1436798089881,-1.4873978,9.919776,-0.599149
95,1436798089901,-1.5209166,9.922171,-0.6344634
96,1436798089921,-1.5556326,9.910798,-0.61411273
97,1436798089941,-1.4748282,9.945514,-0.65301853
98,1436798089958,-1.4796166,9.927557,-0.62129533
99,1436798089981,-1.4646529,9.940725,-0.6218939
100,1436798089999,-1.4772224,9.950901,-0.65182143
101,1436798090018,-1.5263035,9.920973,-0.6171055
102,1436798090038,-1.4766239,9.94312,-0.66139823
103,1436798090062,-1.489792,9.935339,-0.63087213
104,1436798090082,-1.4736311,9.940725,-0.62488663
105,1436798090102,-1.4802152,9.942521,-0.62488663
106,1436798090121,-1.501763,9.921572,-0.6344634
107,1436798090139,-1.5035586,9.926959,-0.6596026
108,1436798090158,-1.4664485,9.945514,-0.6422446
109,1436798090178,-1.4820108,9.940127,-0.6242881
110,1436798090199,-1.4909891,9.937733,-0.623091
111,1436798090218,-1.477821,9.935339,-0.62009823
112,1436798090290,-1.4838065,9.932345,-0.5955577
113,1436798090291,-1.4718355,9.922769,-0.6619968
114,1436798090292,-1.4873978,9.9473095,-0.6428431
115,1436798090298,-1.483208,9.941922,-0.6392518
116,1436798090319,-1.5125369,9.920375,-0.599149
117,1436798090341,-1.4802152,9.93893,-0.6242881
118,1436798090358,-1.4921862,9.953295,-0.6781576
119,1436798090378,-1.4802152,9.941324,-0.641646
120,1436798090400,-1.4945804,9.944317,-0.6338649
121,1436798090419,-1.4933833,9.944317,-0.6356605
122,1436798090439,-1.477821,9.929353,-0.6398504
123,1436798090459,-1.4646529,9.93893,-0.6302736
124,1436798090480,-1.4532804,9.932944,-0.6218939
125,1436798090501,-1.471237,9.938332,-0.64942724
126,1436798090521,-1.489792,9.933543,-0.65660983
127,1436798090541,-1.4814123,9.937134,-0.6679823
128,1436798090561,-1.4820108,9.937134,-0.62009823
129,1436798090581,-1.4586674,9.958083,-0.6476316
130,1436798090601,-1.4939818,9.940127,-0.6560113
131,1436798090621,-1.4951789,9.94312,-0.6428431
132,1436798090641,-1.4317327,9.937134,-0.65242
133,1436798090660,-1.4867992,9.936536,-0.6434417
134,1436798090682,-1.5161282,9.930551,-0.64583594
135,1436798090702,-1.4706384,9.944317,-0.65780693
136,1436798090722,-1.4850036,9.935339,-0.6512229
137,1436798090741,-1.4622587,9.944317,-0.66139823
138,1436798090762,-1.4425066,9.937134,-0.65242
139,1436798090779,-1.496376,9.931149,-0.65301853
140,1436798090801,-1.4945804,9.931747,-0.62728083
141,1436798090822,-1.508347,9.939528,-0.66259533
142,1436798090842,-1.4628572,9.950901,-0.64823014
143,1436798090862,-1.4425066,9.943718,-0.65242
144,1436798090880,-1.4939818,9.932944,-0.65242
145,1436798090899,-1.4748282,9.935937,-0.6278794
146,1436798090921,-1.4951789,9.94312,-0.64823014
147,1436798090939,-1.4652514,9.935339,-0.62249243
148,1436798091007,-1.4550761,9.93474,-0.6362591
149,1436798091008,-1.4790181,9.916783,-0.6452374
150,1436798091009,-1.4688427,9.941324,-0.6488287
151,1436798091029,-1.5179238,9.952098,-0.6332663
152,1436798091038,-1.4526819,9.932345,-0.6362591
153,1436798091059,-1.4329298,9.941922,-0.6667852
154,1436798091079,-1.4652514,9.937733,-0.6536171
155,1436798091099,-1.4598645,9.938332,-0.6290765
156,1436798091119,-1.4808137,9.911995,-0.6584055
157,1436798091142,-1.4802152,9.944317,-0.6392518
158,1436798091160,-1.4574703,9.946711,-0.64703304
159,1436798091185,-1.4437037,9.932345,-0.6368576
160,1436798091200,-1.4670471,9.952098,-0.6386533
161,1436798091221,-1.4532804,9.930551,-0.64942724
162,1436798091242,-1.5047557,9.925163,-0.6380547
163,1436798091262,-1.4251486,9.953295,-0.6338649
164,1436798091282,-1.4766239,9.945514,-0.6703765
165,1436798091302,-1.472434,9.940127,-0.6572084
166,1436798091322,-1.4754268,9.922171,-0.6500258
167,1436798091342,-1.4718355,9.94312,-0.6422446
168,1436798091362,-1.489792,9.922769,-0.62967503
169,1436798091382,-1.4454993,9.93474,-0.6584055
170,1436798091402,-1.4443022,9.9473095,-0.6619968
171,1436798091421,-1.4694413,9.950302,-0.6266823
172,1436798091442,-1.441908,9.935339,-0.6344634
173,1436798091462,-1.4718355,9.929952,-0.6410475
174,1436798091482,-1.4580688,9.941324,-0.6476316
175,1436798091502,-1.4574703,9.946711,-0.64942724
176,1436798091520,-1.453879,9.928156,-0.64823014
177,1436798091542,-1.4772224,9.950302,-0.6607997
178,1436798091562,-1.4610616,9.936536,-0.62009823
179,1436798091582,-1.453879,9.940127,-0.6326678
180,1436798091602,-1.4502877,9.941922,-0.66858083
181,1436798091622,-1.4449008,9.935339,-0.6476316
182,1436798091639,-1.4634558,9.946711,-0.6548142
183,1436798091659,-1.4562732,9.949105,-0.65242
184,1436798091681,-1.4520833,9.951499,-0.63206923
185,1436798091768,-1.4305356,9.944317,-0.66020113
186,1436798091769,-1.4532804,9.941922,-0.6607997
187,1436798091770,-1.472434,9.929353,-0.6452374
188,1436798091771,-1.4490906,9.94312,-0.66020113
189,1436798091802,-1.4502877,9.959879,-0.64823014
190,1436798091803,-1.4688427,9.939528,-0.6404489
191,1436798091823,-1.4879963,9.944317,-0.65182143
192,1436798091839,-1.5005659,9.939528,-0.60453594
193,1436798091859,-1.4628572,9.942521,-0.6332663
194,1436798091893,-1.4449008,9.932944,-0.635062
195,1436798091911,-1.4706384,9.955689,-0.64942724
196,1436798091919,-1.4796166,9.932944,-0.6560113
197,1436798091939,-1.4993688,9.929353,-0.6368576
198,1436798091959,-1.460463,9.929952,-0.6584055
199,1436798091981,-1.4634558,9.939528,-0.6739678
200,1436798092000,-1.4652514,9.94312,-0.664391
201,1436798092020,-1.4927847,9.932944,-0.635062
202,1436798092040,-1.5239093,9.920973,-0.6434417
203,1436798092060,-1.447295,9.936536,-0.66020113
204,1436798092079,-1.460463,9.952098,-0.6326678
205,1436798092100,-1.471237,9.939528,-0.65062433
206,1436798092120,-1.471237,9.964667,-0.64583594
207,1436798092141,-1.4873978,9.931747,-0.65541273
208,1436798092161,-1.4700398,9.958682,-0.64463884
209,1436798092180,-1.4796166,9.946711,-0.62368953
210,1436798092203,-1.4622587,9.93474,-0.6362591
211,1436798092221,-1.4490906,9.946113,-0.66498953
212,1436798092242,-1.4790181,9.935937,-0.6440403
213,1436798092261,-1.4706384,9.949704,-0.66139823
214,1436798092283,-1.4802152,9.940725,-0.6242881
215,1436798092303,-1.4556746,9.944916,-0.641646
216,1436798092324,-1.459266,9.93893,-0.6332663
217,1436798092340,-1.459266,9.94312,-0.65182143
218,1436798092362,-1.4808137,9.953295,-0.65421563
219,1436798092381,-1.472434,9.940127,-0.61171854
220,1436798092401,-1.447295,9.930551,-0.6051345
221,1436798092421,-1.484405,9.932944,-0.6410475
222,1436798092491,-1.4694413,9.93474,-0.61890113
223,1436798092521,-1.4760253,9.950901,-0.65660983
224,1436798092522,-1.4550761,9.93474,-0.62009823
225,1436798092523,-1.46585,9.93893,-0.6314707
226,1436798092524,-1.4520833,9.937733,-0.64583594
227,1436798092542,-1.4933833,9.929353,-0.6619968
228,1436798092560,-1.46585,9.929353,-0.6123171
229,1436798092580,-1.4580688,9.948506,-0.6332663
230,1436798092600,-1.489792,9.941324,-0.6015432
231,1436798092634,-1.4550761,9.948506,-0.6206968
232,1436798092642,-1.4544775,9.936536,-0.6194997
233,1436798092662,-1.460463,9.940127,-0.6332663
234,1436798092681,-1.4706384,9.936536,-0.635062
235,1436798092700,-1.483208,9.93474,-0.6374562
236,1436798092721,-1.4676456,9.932944,-0.60932434
237,1436798092744,-1.4323312,9.937733,-0.62249243
238,1436798092761,-1.46585,9.920375,-0.6254852
239,1436798092783,-1.4640543,9.932345,-0.62249243
240,1436798092804,-1.4640543,9.936536,-0.61890113
241,1436798092821,-1.4933833,9.938332,-0.63087213
242,1436798092844,-1.508347,9.925761,-0.6087258
243,1436798092864,-1.4706384,9.933543,-0.6159084
244,1436798092881,-1.4802152,9.919178,-0.6302736
245,1436798092902,-1.5239093,9.9233675,-0.62009823
246,1436798092921,-1.5520413,9.913192,-0.61052144
247,1436798092941,-1.4772224,9.954493,-0.6278794
248,1436798092962,-1.4957775,9.937733,-0.6404489
249,1436798092982,-1.4951789,9.946113,-0.61052144
250,1436798093001,-1.5065514,9.935937,-0.59735334
251,1436798093021,-1.5089456,9.937134,-0.62608373
252,1436798093041,-1.5221137,9.935937,-0.599149
253,1436798093064,-1.4574703,9.954493,-0.65660983
254,1436798093082,-1.4568717,9.9473095,-0.6422446
255,1436798093101,-1.4802152,9.932345,-0.61530983
256,1436798093122,-1.5095441,9.938332,-0.6368576
257,1436798093141,-1.4993688,9.935937,-0.60453594
258,1436798093165,-1.4760253,9.927557,-0.63087213
259,1436798093183,-1.4808137,9.930551,-0.62728083
260,1436798093259,-1.4999673,9.934141,-0.61291564
261,1436798093261,-1.4957775,9.93474,-0.62249243
262,1436798093262,-1.5179238,9.916184,-0.62368953
263,1436798093263,-1.5011644,9.941922,-0.60932434
264,1436798093283,-1.5747862,9.920973,-0.62608373
265,1436798093303,-1.4191631,9.949704,-0.5919664
266,1436798093321,-1.4389153,9.960478,-0.599149
267,1436798093341,-1.4191631,9.949105,-0.6051345
268,1436798093362,-1.4520833,9.928156,-0.599149
269,1436798093383,-1.4766239,9.942521,-0.6332663
270,1436798093403,-1.4969746,9.930551,-0.63206923
271,1436798093421,-1.483208,9.942521,-0.61411273
272,1436798093448,-1.4562732,9.944916,-0.61171854
273,1436798093463,-1.4814123,9.941324,-0.61650693
274,1436798093484,-1.5005659,9.929353,-0.61112
275,1436798093505,-1.4915876,9.920375,-0.63087213
276,1436798093523,-1.4574703,9.944916,-0.62368953
277,1436798093544,-1.4514848,9.950901,-0.6278794
278,1436798093565,-1.4640543,9.943718,-0.61650693
279,1436798093583,-1.4568717,9.962872,-0.61291564
280,1436798093604,-1.4760253,9.9233675,-0.60333884
281,1436798093625,-1.4909891,9.928755,-0.61291564
282,1436798093643,-1.4377182,9.948506,-0.5979519
283,1436798093662,-1.417966,9.9473095,-0.62608373
284,1436798093685,-1.4407109,9.93893,-0.6218939
285,1436798093701,-1.4185646,9.959879,-0.623091
286,1436798093722,-1.4856021,9.941922,-0.59855044
287,1436798093741,-1.5191209,9.928156,-0.5805939
288,1436798093763,-1.4688427,9.949105,-0.6404489
289,1436798093788,-1.453879,9.946113,-0.61171854
290,1436798093803,-1.4329298,9.949704,-0.6404489
291,1436798093825,-1.4903905,9.922171,-0.6290765
292,1436798093843,-1.4359225,9.948506,-0.6428431
293,1436798093863,-1.4526819,9.940725,-0.60094464
294,1436798093881,-1.4784195,9.946113,-0.6123171
295,1436798093905,-1.4377182,9.9550905,-0.6326678
296,1436798093925,-1.4808137,9.937134,-0.6362591
297,1436798093996,-1.4885949,9.940725,-0.62488663
298,1436798093997,-1.4754268,9.939528,-0.65660983
299,1436798093998,-1.4628572,9.944317,-0.6368576
300,1436798094003,-1.4664485,9.937134,-0.61171854
301,1436798094023,-1.4706384,9.929952,-0.6374562
302,1436798094043,-1.4993688,9.92636,-0.635062
303,1436798094061,-1.4532804,9.937733,-0.61291564
304,1436798094088,-1.4425066,9.945514,-0.6440403
305,1436798094101,-1.4490906,9.942521,-0.65242
306,1436798094128,-1.4443022,9.941324,-0.62368953
307,1436798094142,-1.4700398,9.921572,-0.6392518
308,1436798094164,-1.4640543,9.945514,-0.6099229
309,1436798094188,-1.4646529,9.945514,-0.6428431
310,1436798094205,-1.4490906,9.944317,-0.61112
311,1436798094225,-1.4688427,9.949704,-0.6434417
312,1436798094246,-1.4562732,9.935339,-0.6183026
313,1436798094264,-1.4395138,9.946113,-0.599149
314,1436798094285,-1.4335283,9.943718,-0.6290765
315,1436798094306,-1.4359225,9.946113,-0.65421563
316,1436798094325,-1.460463,9.940127,-0.62368953
317,1436798094345,-1.4490906,9.935937,-0.60812724
318,1436798094366,-1.4227544,9.946711,-0.6344634
319,1436798094384,-1.4119805,9.964069,-0.6368576
320,1436798094405,-1.4341269,9.962872,-0.62129533
321,1436798094428,-1.436521,9.932345,-0.61890113
322,1436798094444,-1.4311341,9.944317,-0.623091
323,1436798094467,-1.4191631,9.950901,-0.6404489
324,1436798094484,-1.3814543,9.959281,-0.62967503
325,1436798094551,-1.4305356,9.954493,-0.6206968
326,1436798094552,-1.4586674,9.947908,-0.6027403
327,1436798094553,-1.3976152,9.941922,-0.6290765
328,1436798094565,-1.4269443,9.953894,-0.6171055
329,1436798094585,-1.4359225,9.938332,-0.6422446
330,1436798094605,-1.4431051,9.941324,-0.641646
331,1436798094623,-1.4227544,9.9550905,-0.61650693
332,1436798094642,-1.4137762,9.964069,-0.62488663
333,1436798094685,-1.353921,9.959281,-0.6398504
334,1436798094686,-1.3868413,9.962274,-0.6302736
335,1436798094702,-1.3724761,9.946711,-0.6374562
336,1436798094722,-1.3850456,9.940127,-0.6356605
337,1436798094742,-1.447295,9.949704,-0.6147113
338,1436798094762,-1.407192,9.972448,-0.6488287
339,1436798094782,-1.3730747,9.950901,-0.61291564
340,1436798094813,-1.3652935,9.962274,-0.62488663
341,1436798094832,-1.3479356,9.953295,-0.63206923
342,1436798094842,-1.3623008,9.953295,-0.6488287
343,1436798094863,-1.4047978,9.947908,-0.6206968
344,1436798094882,-1.3491327,9.968858,-0.6206968
345,1436798094902,-1.3521254,9.964667,-0.61650693
346,1436798094922,-1.3623008,9.954493,-0.6410475
347,1436798094942,-1.411382,9.955689,-0.6266823
348,1436798094961,-1.4083891,9.96347,-0.61291564
349,1436798094982,-1.3371617,9.962274,-0.6147113
350,1436798095006,-1.3497312,9.953295,-0.6476316
351,1436798095026,-1.3838485,9.956886,-0.6344634
352,1436798095043,-1.4215573,9.944916,-0.64703304
353,1436798095063,-1.3982137,9.939528,-0.60453594
354,1436798095083,-1.3892355,9.956287,-0.61291564
355,1436798095106,-1.3341689,9.964667,-0.6422446
356,1436798095126,-1.335366,9.961675,-0.65062433
357,1436798095146,-1.3263878,9.968858,-0.6374562
358,1436798095163,-1.3431472,9.949704,-0.6356605
359,1436798095182,-1.4012065,9.944916,-0.6440403
360,1436798095205,-1.3239936,9.975441,-0.64703304
361,1436798095226,-1.3652935,9.959281,-0.6428431
362,1436798095243,-1.3425486,9.974843,-0.6607997
363,1436798095265,-1.3634979,9.957485,-0.6536171
364,1436798095286,-1.3503298,9.946113,-0.6548142
365,1436798095303,-1.3874398,9.949105,-0.6410475
366,1436798095322,-1.3341689,9.957485,-0.670975
367,1436798095347,-1.359308,9.961675,-0.6290765
368,1436798095368,-1.3221979,9.9790325,-0.61890113
369,1436798095384,-1.3431472,9.954493,-0.66379243
370,1436798095402,-1.3964181,9.957485,-0.65062433
371,1436798095421,-1.3814543,9.942521,-0.5746084
372,1436798095447,-1.3802572,9.940127,-0.61291564
373,1436798095464,-1.3575124,9.977237,-0.6338649
374,1436798095483,-1.3359646,9.968259,-0.6619968
375,1436798095504,-1.38325,9.952697,-0.6254852
376,1436798095526,-1.4466964,9.925761,-0.5955577
377,1436798095545,-1.3958195,9.937733,-0.62488663
378,1436798095563,-1.4628572,9.897031,-0.6655881
379,1436798095585,-1.4796166,9.946113,-0.6859388
380,1436798095603,-1.3694834,9.990405,-0.7188591
381,1436798095626,-1.4030021,9.964069,-0.6386533
382,1436798095643,-1.3964181,9.949105,-0.6368576
383,1436798095666,-1.359308,9.952697,-0.65660983
384,1436798095686,-1.3754689,9.932345,-0.6835446
385,1436798095708,-1.4269443,9.933543,-0.6787562
386,1436798095724,-1.3874398,9.967062,-0.6183026
387,1436798095746,-1.316811,9.959281,-0.63206923
388,1436798095763,-1.3395559,9.965864,-0.6679823
389,1436798095784,-1.3988123,9.939528,-0.64463884
390,1436798095806,-1.3982137,9.962872,-0.6727707
391,1436798095827,-1.3706805,9.965864,-0.676362
392,1436798095848,-1.3329718,9.953894,-0.6488287
393,1436798095868,-1.3323733,9.941922,-0.64703304
394,1436798095887,-1.3634979,9.953894,-0.64583594
395,1436798095908,-1.3904326,9.9473095,-0.66020113
396,1436798095923,-1.3808558,9.953295,-0.6536171
397,1436798095945,-1.3545196,9.974244,-0.6302736
398,1436798095964,-1.3856442,9.956287,-0.66139823
399,1436798096032,-1.3617022,9.965864,-0.6194997
400,1436798096033,-1.3293805,9.961076,-0.6266823
401,1436798096034,-1.3545196,9.96347,-0.6434417
402,1436798096048,-1.3449428,9.96766,-0.65242
403,1436798096064,-1.3790601,9.943718,-0.635062
404,1436798096087,-1.3533225,9.959879,-0.6745663
405,1436798096103,-1.3682863,9.957485,-0.6512229
406,1436798096123,-1.3395559,9.964069,-0.6596026
407,1436798096146,-1.3700819,9.952697,-0.6452374
408,1436798096165,-1.3670892,9.956886,-0.65242
409,1436798096187,-1.376666,9.964667,-0.6428431
