id,attr_time,attr_x,attr_y,attr_z
1,1436798088016,-8.889072,3.9372647,0.4177882
2,1436798088037,-8.862138,3.9618053,0.38726214
3,1436798088054,-8.900445,3.9618053,0.3752911
4,1436798088072,-8.881291,3.958214,0.3824737
5,1436798088094,-8.859145,3.9630024,0.36511576
6,1436798088122,-8.875306,3.982156,0.35434186
7,1436798088133,-8.920197,3.9827545,0.3549404
8,1436798088157,-8.848371,3.9851487,0.36032736
9,1436798088219,-8.923788,3.9606082,0.36990416
10,1436798088220,-8.9040365,3.904943,0.40880993
11,1436798088221,-8.913613,3.8923733,0.3728969
12,1436798088241,-8.98903,3.8714242,0.3866636
13,1436798088251,-8.97287,3.8774097,0.39983168
14,1436798088279,-8.902241,3.8804023,0.41299978
15,1436798088292,-8.871116,3.8792052,0.4429273
16,1436798088313,-8.874108,3.8666358,0.45010993
17,1436798088333,-8.91481,3.8851907,0.44352585
18,1436798088352,-8.890868,3.918111,0.45429978
19,1436798088371,-8.900445,3.954024,0.4441244
20,1436798088392,-8.842385,3.9438488,0.4189853
21,1436798088414,-8.871116,3.9959226,0.40581718
22,1436798088431,-8.865729,3.9917328,0.40282443
23,1436798088454,-8.932168,3.9624038,0.41060558
24,1436798088474,-8.850765,3.9845502,0.43394905
25,1436798088495,-8.8884735,3.98874,0.4201824
26,1436798088514,-8.856153,3.9815574,0.4201824
27,1436798088534,-8.931569,3.9695864,0.41180268
28,1436798088554,-8.895657,3.9863458,0.42796355
29,1436798088573,-8.844181,3.9504328,0.43634325
30,1436798088595,-8.880095,3.9390604,0.45669398
31,1436798088613,-8.879496,3.9390604,0.44592008
32,1436798088634,-8.913014,3.9306808,0.44951138
33,1436798088655,-8.902241,3.9306808,0.47644615
34,1436798088672,-8.916606,3.915717,0.47225627
35,1436798088694,-8.911219,3.9055414,0.46267948
36,1436798088715,-8.880095,3.9109285,0.46746787
37,1436798088734,-8.863934,3.9175124,0.44651863
38,1436798088754,-8.8806925,3.915717,0.4237737
39,1436798088774,-8.9040365,3.9019501,0.41359833
40,1436798088795,-8.918402,3.8857894,0.41599256
41,1436798088815,-8.948329,3.8863878,0.40043023
42,1436798088835,-8.902839,3.876811,0.41958386
43,1436798088851,-8.917803,3.8881836,0.45130703
44,1436798088882,-8.900445,3.8624458,0.46267948
45,1436798088937,-8.9040365,3.9031472,0.44951138
46,1436798088938,-8.943541,3.9252937,0.42197806
47,1436798088939,-8.933964,3.9336734,0.4213795
48,1436798088961,-8.878299,3.9498343,0.44891283
49,1436798088972,-8.820239,3.945046,0.48123455
50,1436798088993,-8.86932,3.965995,0.48003745
51,1436798089013,-8.846576,3.9911342,0.4405331
52,1436798089034,-8.8328085,4.015076,0.4141969
53,1436798089054,-8.850765,4.0462008,0.415394
54,1436798089072,-8.868123,4.031237,0.39564183
55,1436798089093,-8.853159,3.9959226,0.3866636
56,1436798089113,-8.884883,3.99293,0.40701428
57,1436798089137,-8.908825,3.9444473,0.40402153
58,1436798089151,-8.904634,3.9133227,0.43155485
59,1436798089175,-8.902241,3.9055414,0.43873745
60,1436798089193,-8.893861,3.8857894,0.45250413
61,1436798089215,-8.899248,3.8965633,0.43993455
62,1436798089235,-8.92319,3.9163153,0.44113165
63,1436798089255,-8.875904,3.9492357,0.42197806
64,1436798089275,-8.889671,3.9432502,0.4369418
65,1436798089292,-8.859743,3.9480386,0.4297592
66,1436798089315,-8.902839,3.90614,0.45130703
67,1436798089333,-8.902839,3.9187095,0.46447513
68,1436798089354,-8.932168,3.903746,0.46327803
69,1436798089375,-8.9279785,3.9055414,0.44532153
70,1436798089393,-8.901642,3.8845923,0.46267948
71,1436798089413,-8.920795,3.8708255,0.47105917
72,1436798089433,-8.918402,3.888782,0.45310268
73,1436798089457,-8.904634,3.9109285,0.46327803
74,1436798089478,-8.872313,3.9444473,0.45250413
75,1436798089498,-8.90643,3.952827,0.4417302
76,1436798089516,-8.86932,3.946243,0.40940848
77,1436798089532,-8.875306,3.9372647,0.40102878
78,1436798089552,-8.903438,3.9228995,0.4429273
79,1436798089572,-8.898649,3.9252937,0.4345476
80,1436798089593,-8.9363575,3.9318779,0.43275195
81,1436798089613,-8.961497,3.9258924,0.42078096
82,1436798089669,-8.900445,3.9294837,0.44472298
83,1436798089674,-8.847174,3.9043443,0.46926352
84,1436798089675,-8.858546,3.8684313,0.4818331
85,1436798089692,-8.913014,3.9264908,0.47165772
86,1436798089713,-8.834604,3.9534256,0.45609543
87,1436798089734,-8.826224,3.9803603,0.43634325
88,1436798089753,-8.835801,4.0066967,0.39444473
89,1436798089776,-8.857349,3.9737763,0.3812766
90,1436798089793,-8.896853,3.958214,0.3657143
91,1436798089813,-8.910022,3.928885,0.39145198
92,1436798089833,-8.974665,3.8780081,0.39504328
93,1436798089853,-8.914211,3.8983588,0.39384618
94,1436798089876,-8.918402,3.8965633,0.4213795
95,1436798089896,-8.893861,3.8905778,0.40462008
96,1436798089915,-8.955511,3.928885,0.39923313
97,1436798089936,-8.92738,3.9641995,0.38067806
98,1436798089956,-8.857349,3.9833531,0.35314476
99,1436798089976,-8.862138,3.9743748,0.39205053
100,1436798089996,-8.89446,3.9935284,0.38187516
101,1436798090013,-8.87351,3.9402575,0.4165911
102,1436798090036,-8.875306,3.9372647,0.4201824
103,1436798090056,-8.897452,3.9133227,0.44951138
104,1436798090077,-8.905233,3.9187095,0.46088383
105,1436798090092,-8.902839,3.9211037,0.439336
106,1436798090115,-8.903438,3.9175124,0.43754035
107,1436798090137,-8.902839,3.9013517,0.43873745
108,1436798090157,-8.915408,3.8965633,0.44232875
109,1436798090178,-8.895058,3.8857894,0.46327803
110,1436798090196,-8.897452,3.9145198,0.45310268
111,1436798090215,-8.87351,3.8815994,0.4405331
112,1436798090235,-8.882488,3.888782,0.4369418
113,1436798090255,-8.921394,3.8337154,0.4333505
114,1436798090277,-8.973468,3.8373067,0.4261679
115,1436798090310,-8.9758625,3.8385038,0.41359833
116,1436798090317,-9.018958,3.8019924,0.41479546
117,1436798090334,-8.93935,3.809175,0.43275195
118,1436798090359,-8.907627,3.8109705,0.46088383
119,1436798090420,-8.929175,3.7870286,0.4830302
120,1436798090421,-8.916606,3.8019924,0.49200845
121,1436798090422,-8.926781,3.8259344,0.45429978
122,1436798090446,-8.87351,3.8588545,0.45190558
123,1436798090453,-8.929175,3.903746,0.4369418
124,1436798090473,-8.879496,3.8911762,0.41120413
125,1436798090493,-8.920795,3.8845923,0.38606504
126,1436798090513,-8.925584,3.8833952,0.3716998
127,1436798090538,-8.9842415,3.8552632,0.3764882
128,1436798090554,-8.953716,3.8792052,0.3812766
129,1436798090573,-8.930372,3.8564603,0.38067806
130,1436798090595,-8.923788,3.8588545,0.38367084
131,1436798090615,-8.944139,3.9019501,0.36152446
132,1436798090634,-8.977059,3.8971617,0.36391866
133,1436798090656,-8.900445,3.90614,0.36990416
134,1436798090676,-8.918402,3.891775,0.374094
135,1436798090696,-8.93935,3.8935704,0.39444473
136,1436798090716,-8.914211,3.8935704,0.40641573
137,1436798090735,-8.891466,3.9055414,0.40940848
138,1436798090756,-8.875904,3.9097314,0.40581718
139,1436798090776,-8.846576,3.912724,0.39085343
140,1436798090796,-8.860941,3.913921,0.38845924
141,1436798090816,-8.9040365,3.887585,0.3549404
142,1436798090836,-8.905831,3.8923733,0.35314476
143,1436798090854,-8.916606,3.8905778,0.37708676
144,1436798090877,-8.941146,3.892972,0.34596214
145,1436798090894,-8.932767,3.8959646,0.33758244
146,1436798090914,-8.93935,3.9228995,0.30585927
147,1436798090933,-8.875306,3.9498343,0.30645782
148,1436798090957,-8.920197,3.958214,0.31124622
149,1436798090978,-8.89446,3.9378633,0.29987377
150,1436798090998,-8.920795,3.9252937,0.29149407
151,1436798091017,-8.999206,3.8959646,0.3226187
152,1436798091035,-8.983045,3.903746,0.34596214
153,1436798091055,-8.918402,3.8935704,0.3633201
154,1436798091073,-8.882488,3.930082,0.3776853
155,1436798091095,-8.880095,3.9312792,0.41000703
156,1436798091217,-8.833407,3.9761705,0.41060558
157,1436798091220,-8.842385,4.027047,0.3788824
158,1436798091221,-8.79091,4.074931,0.34117374
159,1436798091222,-8.857349,4.080917,0.3561375
160,1436798091234,-8.837597,4.0659533,0.33638534
161,1436798091235,-8.822035,4.0456023,0.3429694
162,1436798091236,-8.883685,3.9749734,0.38606504
163,1436798091255,-8.889072,3.9414546,0.4213795
164,1436798091278,-8.917803,3.9151182,0.41479546
165,1436798091294,-8.939949,3.9396589,0.39683893
166,1436798091314,-8.936956,3.9426517,0.3842694
167,1436798091336,-8.9124155,3.9965212,0.3633201
168,1436798091354,-8.871116,4.012682,0.3693056
169,1436798091378,-8.847174,4.024653,0.38606504
170,1436798091397,-8.875306,3.9845502,0.40342298
171,1436798091415,-8.8645315,3.982156,0.40102878
172,1436798091435,-8.884284,3.968988,0.3878607
173,1436798091456,-8.870518,3.9414546,0.39564183
174,1436798091477,-8.881889,3.899556,0.40940848
175,1436798091497,-8.943541,3.899556,0.4189853
176,1436798091517,-8.938752,3.8672342,0.41599256
177,1436798091537,-8.89805,3.8750155,0.43634325
178,1436798091554,-8.867524,3.8660371,0.45310268
179,1436798091576,-8.9124155,3.8869865,0.4369418
180,1436798091597,-8.926781,3.9199066,0.415394
181,1436798091617,-8.959103,3.9360676,0.42317516
182,1436798091636,-8.866926,3.9312792,0.3878607
183,1436798091654,-8.844181,3.9695864,0.39683893
184,1436798091675,-8.901043,3.9396589,0.3842694
185,1436798091696,-8.8777,3.9588125,0.38726214
186,1436798091717,-8.941745,3.9504328,0.36511576
187,1436798091736,-8.968081,3.927688,0.39624038
188,1436798091758,-8.917803,3.9097314,0.41060558
189,1436798091777,-8.878299,3.9199066,0.41958386
190,1436798091797,-8.877101,3.9324763,0.43634325
191,1436798091817,-8.892065,3.9444473,0.40402153
192,1436798091838,-8.858546,3.9845502,0.38486794
193,1436798091855,-8.838794,4.003105,0.40282443
194,1436798091875,-8.884284,4.0240545,0.3800795
195,1436798091904,-8.843582,3.9845502,0.39564183
196,1436798092025,-8.881889,3.9935284,0.39264908
197,1436798092026,-8.896853,3.9911342,0.40701428
198,1436798092027,-8.905831,3.9486372,0.4237737
199,1436798092028,-8.852561,3.9510314,0.43394905
200,1436798092029,-8.857349,3.9438488,0.44472298
201,1436798092030,-8.88608,3.9270895,0.44352585
202,1436798092048,-8.911818,3.965995,0.43514615
203,1436798092077,-8.863934,4.0019083,0.4345476
204,1436798092078,-8.8364,4.0198646,0.40521863
205,1436798092095,-8.831013,4.028843,0.40821138
206,1436798092127,-8.853159,3.9977183,0.4333505
207,1436798092135,-8.866327,3.9618053,0.43993455
208,1436798092155,-8.845378,3.9480386,0.44532153
209,1436798092175,-8.890269,3.970185,0.45130703
210,1436798092195,-8.863335,3.9911342,0.42197806
211,1436798092232,-8.874108,3.9953241,0.415394
212,1436798092234,-8.872911,4.011485,0.38187516
213,1436798092255,-8.84059,4.0144777,0.39264908
214,1436798092275,-8.869919,3.9851487,0.40940848
215,1436798092295,-8.839393,3.9671922,0.39264908
216,1436798092315,-8.916007,3.9851487,0.41180268
217,1436798092335,-8.842385,3.9851487,0.38307226
218,1436798092354,-8.870518,4.0025067,0.3561375
219,1436798092373,-8.875306,3.9755719,0.36990416
220,1436798092396,-8.905233,4.0144777,0.3417723
221,1436798092415,-8.918402,3.9474401,0.35434186
222,1436798092435,-8.95611,3.9486372,0.3890578
223,1436798092454,-8.930971,3.9360676,0.40222588
224,1436798092475,-8.824429,3.9498343,0.4417302
225,1436798092495,-8.832211,3.9707835,0.42317516
226,1436798092516,-8.8567505,3.9977183,0.43035775
227,1436798092536,-8.836999,4.0078936,0.40821138
228,1436798092556,-8.842984,4.0426097,0.3752911
229,1436798092575,-8.859145,4.063559,0.36990416
230,1436798092595,-8.831013,4.0521865,0.36511576
231,1436798092615,-8.835801,4.0342298,0.34955344
232,1436798092634,-8.895657,4.004901,0.3477578
233,1436798092655,-8.92319,3.942053,0.34356794
234,1436798092688,-8.907029,3.952827,0.3549404
235,1436798092696,-8.908226,3.9468415,0.38726214
236,1436798092714,-8.928576,3.9612067,0.36152446
237,1436798092735,-8.924985,3.9474401,0.37349546
238,1436798092755,-8.868722,3.9444473,0.40701428
239,1436798092775,-8.848969,3.9612067,0.41838676
240,1436798092795,-8.871715,3.9845502,0.39863458
241,1436798092815,-8.86932,3.9917328,0.39504328
242,1436798092839,-8.895058,4.024653,0.39863458
243,1436798092859,-8.86932,3.9869444,0.40641573
244,1436798092875,-8.86932,3.9665937,0.41180268
245,1436798092895,-8.860941,3.9594111,0.43634325
246,1436798092919,-8.857349,3.946243,0.44352585
247,1436798092939,-8.866327,3.916914,0.4321534
248,1436798092959,-8.899846,3.9390604,0.40940848
249,1436798092976,-8.929175,3.9312792,0.39025488
250,1436798092996,-8.91062,3.9480386,0.37828386
251,1436798093016,-8.90643,3.9396589,0.3681085
252,1436798093038,-8.905233,3.9151182,0.3878607
253,1436798093056,-8.841188,3.9498343,0.36272156
254,1436798093077,-8.9124155,3.9234982,0.38067806
255,1436798093096,-8.895657,3.913921,0.3752911
256,1436798093115,-8.974665,3.9187095,0.36990416
257,1436798093141,-8.980651,3.9217024,0.3716998
258,1436798093156,-8.914211,3.976769,0.39504328
259,1436798093181,-8.863934,3.977966,0.4261679
260,1436798093195,-8.806473,3.9791632,0.43993455
261,1436798093215,-8.813056,4.0156746,0.44951138
262,1436798093235,-8.816648,4.027047,0.41000703
263,1436798093255,-8.813056,4.042011,0.39444473
264,1436798093277,-8.849568,4.0587707,0.35793316
265,1436798093296,-8.848371,4.0456023,0.36870706
266,1436798093338,-8.905831,4.0264487,0.31064767
267,1436798093339,-8.848371,4.0001125,0.3309984
268,1436798093355,-8.94773,3.942053,0.3513491
269,1436798093382,-8.902241,3.9252937,0.35673606
270,1436798093397,-8.932767,3.9073372,0.33159694
271,1436798093416,-8.942942,3.894169,0.3866636
272,1436798093438,-8.962694,3.945046,0.3824737
273,1436798093456,-8.883685,3.9606082,0.38367084
274,1436798093477,-8.838794,3.9953241,0.39264908
275,1436798093497,-8.826224,4.0276456,0.3788824
276,1436798093517,-8.850166,4.028843,0.37828386
277,1436798093536,-8.887876,4.049194,0.374094
278,1436798093557,-8.867524,4.0001125,0.42078096
279,1436798093579,-8.841188,4.003105,0.41479546
280,1436798093598,-8.855554,4.0078936,0.41240123
281,1436798093617,-8.830415,4.0037036,0.39324763
282,1436798093639,-8.842385,4.006098,0.3878607
283,1436798093657,-8.851962,4.004901,0.3878607
284,1436798093679,-8.868722,4.0054994,0.37469256
285,1436798093698,-8.866926,4.0342298,0.36391866
286,1436798093718,-8.850765,4.031237,0.31902736
287,1436798093739,-8.8645315,4.039018,0.3321955
288,1436798093757,-8.8645315,4.023456,0.35553896
289,1436798093780,-8.890868,4.008492,0.35254622
290,1436798093797,-8.845378,4.010288,0.32920274
291,1436798093817,-8.911818,3.9875429,0.32920274
292,1436798093839,-8.91481,3.9743748,0.34356794
293,1436798093864,-8.93935,3.9839516,0.31184477
294,1436798093921,-8.967483,3.9707835,0.33279404
295,1436798093922,-8.895657,3.9851487,0.3693056
296,1436798093923,-8.838794,3.9606082,0.39803603
297,1436798093937,-8.805275,3.9749734,0.44891283
298,1436798093959,-8.847773,3.994127,0.43993455
299,1436798093978,-8.816648,4.0144777,0.41718966
300,1436798094058,-8.835801,4.0497923,0.3681085
301,1436798094059,-8.82802,4.0904937,0.35254622
302,1436798094060,-8.82802,4.0258503,0.33159694
303,1436798094061,-8.8806925,3.9857473,0.33039984
304,1436798094076,-8.930372,3.9677908,0.34596214
305,1436798094098,-8.986636,3.8905778,0.3561375
306,1436798094117,-8.962095,3.8881836,0.3645172
307,1436798094136,-8.938153,3.9223008,0.3776853
308,1436798094157,-8.901642,3.9211037,0.3465607
309,1436798094178,-8.942344,3.9492357,0.35314476
310,1436798094201,-8.930971,3.9755719,0.36990416
311,1436798094217,-8.866327,4.0078936,0.35793316
312,1436798094243,-8.853758,4.0013094,0.3693056
313,1436798094261,-8.838196,4.0144777,0.39983168
314,1436798094280,-8.871116,3.98874,0.42078096
315,1436798094300,-8.839393,3.9624038,0.46507367
316,1436798094317,-8.871116,3.945046,0.49200845
317,1436798094339,-8.868123,3.942053,0.50278234
318,1436798094361,-8.846576,3.968988,0.4818331
319,1436798094381,-8.833407,3.994127,0.47465047
320,1436798094399,-8.823831,4.0132804,0.46806642
321,1436798094418,-8.845378,4.0120835,0.45250413
322,1436798094439,-8.853758,4.0037036,0.41479546
323,1436798094461,-8.884284,4.010886,0.3716998
324,1436798094481,-8.8884735,4.0019083,0.39564183
325,1436798094500,-8.874108,4.012682,0.36511576
326,1436798094519,-8.886678,3.9725792,0.3477578
327,1436798094539,-8.952518,3.945046,0.37110126
328,1436798094558,-8.871715,3.9121256,0.3645172
329,1436798094580,-8.966286,3.9211037,0.3716998
330,1436798094599,-8.941146,3.9306808,0.3752911
331,1436798094621,-8.89805,3.965995,0.3681085
332,1436798094640,-8.917204,3.9665937,0.3854665
333,1436798094661,-8.901642,3.9306808,0.4237737
334,1436798094678,-8.825626,3.9432502,0.45609543
335,1436798094698,-8.81964,3.9552212,0.46267948
336,1436798094786,-8.828619,4.0132804,0.44891283
337,1436798094787,-8.834005,4.0222588,0.41718966
338,1436798094788,-8.8088665,4.055179,0.40521863
339,1436798094789,-8.825626,4.0456023,0.39145198
340,1436798094797,-8.858546,4.0096893,0.374094
341,1436798094819,-8.892664,3.9863458,0.3669114
342,1436798094839,-8.8884735,3.9815574,0.3537433
343,1436798094857,-8.960898,3.9336734,0.34835634
344,1436798094879,-8.948928,3.9246953,0.36990416
345,1436798094902,-8.944139,3.913921,0.36870706
346,1436798094937,-8.904634,3.9187095,0.3657143
347,1436798094938,-8.920197,3.928885,0.37588966
348,1436798094964,-8.890269,3.952827,0.3854665
349,1436798094978,-8.841787,4.012682,0.39085343
350,1436798095001,-8.846576,3.9917328,0.3561375
351,1436798095020,-8.887277,4.012682,0.3788824
352,1436798095040,-8.907029,4.018069,0.39624038
353,1436798095059,-8.849568,3.9923313,0.427365
354,1436798095081,-8.856153,4.011485,0.4141969
355,1436798095101,-8.850765,4.0138793,0.41060558
356,1436798095121,-8.842984,4.018069,0.40581718
357,1436798095138,-8.866327,3.9875429,0.4189853
358,1436798095161,-8.860342,3.9917328,0.40761283
359,1436798095182,-8.874707,3.9917328,0.41060558
360,1436798095198,-8.8567505,3.9755719,0.3788824
361,1436798095221,-8.859145,4.0043025,0.36631286
362,1436798095237,-8.8777,3.9917328,0.35913026
363,1436798095258,-8.931569,4.000711,0.3693056
364,1436798095278,-8.898649,3.9893386,0.3417723
365,1436798095303,-8.805874,4.0096893,0.36152446
366,1436798095323,-8.871715,3.9677908,0.3728969
367,1436798095339,-8.880095,4.0054994,0.39803603
368,1436798095361,-8.932168,4.028843,0.36750996
369,1436798095377,-8.902241,4.0372224,0.3800795
370,1436798095398,-8.821436,4.049194,0.40701428
371,1436798095418,-8.776545,4.0563765,0.4177882
372,1436798095440,-8.763975,4.059369,0.4429273
373,1436798095505,-8.811261,4.085107,0.4297592
374,1436798095506,-8.823831,4.0785227,0.4201824
375,1436798095507,-8.798093,4.079121,0.3824737
376,1436798095526,-8.81964,4.0761285,0.36750996
377,1436798095538,-8.845378,4.0521865,0.38187516
378,1436798095562,-8.850166,4.0252514,0.3878607
379,1436798095578,-8.853758,3.9905357,0.3752911
380,1436798095598,-8.940548,3.9624038,0.36750996
381,1436798095620,-8.883087,3.9845502,0.3890578
382,1436798095639,-8.8777,3.9977183,0.35913026
383,1436798095659,-8.875306,3.98874,0.33159694
384,1436798095679,-8.921992,3.9833531,0.3405752
385,1436798095701,-8.878299,3.9911342,0.3693056
386,1436798095718,-8.881889,4.0025067,0.3752911
387,1436798095742,-8.866327,4.000711,0.37110126
388,1436798095759,-8.850765,4.0438066,0.3764882
389,1436798095781,-8.852561,4.0719385,0.3728969
390,1436798095801,-8.834604,4.0773253,0.38486794
391,1436798095821,-8.846576,4.045004,0.36870706
392,1436798095841,-8.809465,4.059369,0.39564183
393,1436798095862,-8.827422,4.045004,0.40102878
394,1436798095882,-8.810662,4.0521865,0.39444473
395,1436798095899,-8.824429,4.0653543,0.37469256
396,1436798095921,-8.844181,4.0372224,0.3597288
397,1436798095943,-8.893262,4.011485,0.3633201
398,1436798095964,-8.875306,4.0264487,0.35913026
399,1436798095983,-8.886678,4.0025067,0.36272156
400,1436798096004,-8.822633,3.9917328,0.34596214
401,1436798096026,-8.872313,4.006098,0.33638534
402,1436798096039,-8.916007,3.9576154,0.34835634
403,1436798096058,-8.942344,3.9713821,0.34237084
404,1436798096083,-8.9363575,3.9612067,0.32920274
405,1436798096099,-8.944139,3.9438488,0.35793316
406,1436798096122,-8.892664,3.9223008,0.39504328
407,1436798096142,-8.8567505,3.8786068,0.46327803
408,1436798096243,-8.890868,3.8630445,0.49320555
409,1436798096244,-8.900445,3.8726213,0.48841715
410,1436798096245,-8.883685,3.881001,0.48362875
411,1436798096246,-8.89805,3.9055414,0.44592008
412,1436798096247,-8.913014,3.9109285,0.42796355
413,1436798096274,-8.908226,3.8977604,0.4309563
414,1436798096280,-8.91481,3.8792052,0.42197806
415,1436798096304,-8.882488,3.8672342,0.41359833
