id,attr_time,attr_x,attr_y,attr_z
1,1436179573411,-0.04337143,0.0125227375,-0.0009162979
2,1436179573428,-0.039095376,0.008552114,0.0
3,1436179573448,-0.045814894,0.016187929,0.0009162979
4,1436179573468,-0.044898596,0.01985312,-0.004276057
5,1436179573488,-0.044898596,0.021685716,0.00580322
6,1436179573508,-0.03268129,0.0061086523,0.008246681
7,1436179573528,-0.029321533,0.015577064,0.009162978
8,1436179573548,-0.03940081,0.05467244,0.013439035
9,1436179573573,-0.045814894,0.06963864,0.0009162979
10,1436179573591,-0.045814894,0.046120327,-0.010995574
11,1436179573611,-0.047647487,0.021685716,-0.01863139
12,1436179573628,-0.047647487,0.00030543262,-0.024740042
13,1436179573648,-0.042760566,-0.013744468,-0.025045475
14,1436179573668,-0.03970624,-0.009773844,-0.01160644
15,1436179573689,-0.042760566,-0.008857546,-0.009773844
16,1436179573719,-0.046731193,-0.009468411,-0.014660766
17,1436179573762,-0.04428773,-0.011911872,-0.0106901415
18,1436179573763,-0.04153884,-0.019547688,-0.020463986
19,1436179573773,-0.042760566,-0.014966198,-0.02107485
20,1436179573795,-0.03970624,-0.020158553,-0.020158553
21,1436179573808,-0.032986723,-0.017104227,-0.023518313
22,1436179573834,-0.037873644,-0.014660766,-0.0125227375
23,1436179573849,-0.027794369,-0.01160644,-0.009468411
24,1436179573870,-0.026267206,-0.010079277,-0.003970624
25,1436179573889,-0.018936822,-0.00580322,0.0012217305
26,1436179573908,-0.014966198,-0.00580322,0.0009162979
27,1436179573931,-0.01740966,0.008246681,0.003970624
28,1436179573952,-0.017715093,0.02321288,0.011301007
29,1436179573969,-0.014049901,0.033292156,0.0143553335
30,1436179573991,-0.01282817,0.03390302,0.017715093
31,1436179574011,-0.01740966,0.027183503,0.018325957
32,1436179574028,-0.014049901,0.0290161,0.018325957
33,1436179574048,-0.022907447,0.023823744,0.017715093
34,1436179574068,-0.027488936,0.015271631,0.016187929
35,1436179574089,-0.029321533,-0.007941248,0.0061086523
36,1436179574112,-0.041233405,-0.010995574,0.007330383
37,1436179574130,-0.045814894,-0.014966198,0.013744468
38,1436179574152,-0.042760566,-0.016187929,0.014966198
39,1436179574169,-0.04550946,-0.007330383,0.016798794
40,1436179574190,-0.05497787,0.028099801,0.01985312
41,1436179574211,-0.055283304,0.032070424,0.0076358155
42,1436179574230,-0.051923547,-0.00061086525,-0.0009162979
43,1436179574250,-0.058337633,-0.029932396,-0.0106901415
44,1436179574270,-0.06291912,-0.051618114,-0.01985312
45,1436179574290,-0.06169739,-0.050396383,-0.022296581
46,1436179574310,-0.061086524,-0.016187929,-0.01282817
47,1436179574330,-0.060170226,0.005192355,-0.008552114
48,1436179574379,-0.052534413,0.0125227375,-0.005497787
49,1436179574380,-0.049480084,0.039095376,-0.003970624
50,1436179574388,-0.047036625,0.05009095,-0.013439035
51,1436179574408,-0.051618114,0.059864793,-0.015882496
52,1436179574459,-0.049480084,0.04734206,-0.018936822
53,1436179574460,-0.040011674,0.027183503,-0.019547688
54,1436179574468,-0.03359759,0.01985312,-0.014049901
55,1436179574488,-0.027488936,0.026267206,-0.013133603
56,1436179574508,-0.024129177,0.03940081,-0.013439035
57,1436179574528,-0.03023783,0.04734206,-0.01160644
58,1436179574548,-0.035124753,0.0571159,-0.007941248
59,1436179574568,-0.032070424,0.060170226,-0.0067195175
60,1436179574588,-0.03390302,0.06352998,-0.0021380284
61,1436179574608,-0.034513887,0.0571159,0.00030543262
62,1436179574628,-0.038179077,0.051618114,0.005192355
63,1436179574648,-0.047647487,0.041233405,0.0033597588
64,1436179574668,-0.05375614,0.029932396,0.0106901415
65,1436179574688,-0.058948494,0.010995574,0.01282817
66,1436179574708,-0.06261369,-0.0061086523,0.006414085
67,1436179574728,-0.06505715,-0.024129177,0.015577064
68,1436179574748,-0.06963864,-0.036651913,0.020158553
69,1436179574768,-0.06414085,-0.055283304,0.019242255
70,1436179574788,-0.06811147,-0.045814894,0.013133603
71,1436179574808,-0.0693332,-0.02687807,0.016187929
72,1436179574829,-0.07086037,-0.0015271631,0.01282817
73,1436179574850,-0.063224554,-0.0106901415,0.0106901415
74,1436179574870,-0.06169739,-0.036651913,0.005497787
75,1436179574889,-0.06047566,-0.061391957,-0.0015271631
76,1436179574909,-0.05589417,-0.0729984,-0.002443461
77,1436179574929,-0.044593163,-0.073303826,0.005497787
78,1436179574950,-0.042455133,-0.04642576,0.0015271631
79,1436179574970,-0.040927973,-0.025961773,0.00030543262
80,1436179574990,-0.034513887,-0.017715093,-0.0018325958
81,1436179575010,-0.027183503,-0.010079277,-0.00030543262
82,1436179575031,-0.02687807,0.01160644,-0.0012217305
83,1436179575056,-0.027794369,0.021685716,-0.00061086525
84,1436179575069,-0.02687807,0.02076942,-0.0070249503
85,1436179575090,-0.02687807,0.013744468,-0.007941248
86,1436179575109,-0.031154128,0.013133603,-0.009162978
87,1436179575129,-0.031154128,0.014660766,-0.009468411
88,1436179575152,-0.032070424,0.007330383,-0.0106901415
89,1436179575170,-0.03176499,0.002443461,-0.01038471
90,1436179575190,-0.032986723,0.0012217305,-0.011911872
91,1436179575213,-0.04337143,0.0,-0.013439035
92,1436179575233,-0.04153884,-0.00580322,-0.015882496
93,1436179575253,-0.04062254,-0.013744468,-0.019547688
94,1436179575273,-0.04337143,-0.016493361,-0.018936822
95,1436179575290,-0.04734206,-0.014660766,-0.021685716
96,1436179575313,-0.050396383,-0.018325957,-0.018936822
97,1436179575332,-0.049785517,-0.0143553335,-0.016187929
98,1436179575350,-0.04795292,-0.010995574,-0.007330383
99,1436179575373,-0.04734206,-0.010995574,0.004581489
100,1436179575392,-0.03726278,-0.016798794,0.0033597588
101,1436179575410,-0.044593163,-0.016798794,0.009773844
102,1436179575431,-0.045814894,0.038789943,0.014049901
103,1436179575450,-0.04153884,0.058337633,0.01282817
104,1436179575472,-0.03390302,0.047647487,0.013439035
105,1436179575491,-0.037873644,0.029626964,0.009773844
106,1436179575512,-0.04184427,0.024129177,0.010995574
107,1436179575534,-0.03940081,0.02076942,0.01282817
108,1436179575557,-0.03634648,0.021685716,0.015882496
109,1436179575573,-0.03848451,0.02076942,0.02076942
110,1436179575593,-0.036957346,0.008857546,0.024129177
111,1436179575611,-0.03573562,0.010995574,0.02443461
112,1436179575631,-0.04153884,0.0061086523,0.025045475
113,1436179575650,-0.05100725,0.0030543262,0.014660766
114,1436179575672,-0.04886922,-0.016493361,0.013133603
115,1436179575694,-0.05131268,-0.027183503,0.004276057
116,1436179575759,-0.046731193,-0.03359759,0.004276057
117,1436179575760,-0.04337143,-0.033292156,0.0015271631
118,1436179575761,-0.04520403,-0.023823744,-0.005192355
119,1436179575770,-0.036651913,-0.016187929,-0.0012217305
120,1436179575794,-0.029626964,-0.0030543262,-0.0018325958
121,1436179575810,-0.028099801,0.008552114,-0.0070249503
122,1436179575830,-0.022602014,0.027488936,-0.003970624
123,1436179575850,-0.018936822,0.022602014,-0.008246681
124,1436179575871,-0.018020526,0.018020526,-0.008552114
125,1436179575892,-0.019242255,0.014660766,-0.009162978
126,1436179575911,-0.021991149,0.01740966,-0.012217305
127,1436179575931,-0.024740042,0.01740966,-0.011911872
128,1436179575974,-0.019547688,0.014966198,-0.011911872
129,1436179575975,-0.019242255,0.005497787,-0.013439035
130,1436179575991,-0.026572637,0.0033597588,-0.002443461
131,1436179576011,-0.020463986,-0.005192355,0.004886922
132,1436179576034,-0.020463986,0.0076358155,0.0027488936
133,1436179576054,-0.030848695,0.03756821,0.004886922
134,1436179576071,-0.027488936,0.06688975,0.004581489
135,1436179576094,-0.02443461,0.060170226,-0.004886922
136,1436179576114,-0.026572637,0.032070424,-0.008552114
137,1436179576132,-0.034208454,0.0,-0.003970624
138,1436179576152,-0.034513887,-0.014660766,-0.0015271631
139,1436179576173,-0.031154128,-0.01740966,0.0070249503
140,1436179576194,-0.03268129,-0.014049901,0.008857546
141,1436179576213,-0.03176499,-0.011911872,0.009468411
142,1436179576234,-0.03390302,-0.011911872,0.015882496
143,1436179576254,-0.03359759,-0.02076942,0.009468411
144,1436179576271,-0.041233405,-0.0143553335,0.0067195175
145,1436179576293,-0.04520403,-0.018936822,0.0076358155
146,1436179576314,-0.03756821,-0.029932396,0.009773844
147,1436179576332,-0.03604105,-0.036651913,0.009773844
148,1436179576354,-0.043066,-0.03145956,0.0061086523
149,1436179576372,-0.03848451,-0.01160644,0.004276057
150,1436179576393,-0.04062254,0.0012217305,-0.0012217305
151,1436179576420,-0.036651913,0.015882496,-0.005192355
152,1436179576473,-0.03604105,0.027794369,-0.004581489
153,1436179576474,-0.03359759,0.027183503,-0.002443461
154,1436179576475,-0.036957346,0.043676864,-0.007941248
155,1436179576495,-0.040011674,0.051618114,-0.009162978
156,1436179576512,-0.041233405,0.04520403,-0.011911872
157,1436179576531,-0.03756821,0.035124753,-0.01160644
158,1436179576554,-0.03634648,0.013133603,-0.014966198
159,1436179576574,-0.03848451,-0.0036651916,-0.015577064
160,1436179576591,-0.039095376,-0.02076942,-0.008246681
161,1436179576611,-0.042760566,-0.032986723,-0.00580322
162,1436179576631,-0.051923547,-0.036957346,0.0
163,1436179576651,-0.049785517,-0.042760566,0.0106901415
164,1436179576677,-0.04337143,-0.054061573,0.015577064
165,1436179576691,-0.046731193,-0.02565634,0.023518313
166,1436179576711,-0.053450707,0.019547688,0.026267206
167,1436179576731,-0.05131268,0.041233405,0.027794369
168,1436179576751,-0.048563786,0.029321533,0.015882496
169,1436179576771,-0.04917465,-0.013744468,0.008246681
170,1436179576791,-0.050396383,-0.052534413,0.0030543262
171,1436179576811,-0.047036625,-0.079107046,0.0067195175
172,1436179576831,-0.04520403,-0.09010262,-0.00061086525
173,1436179576851,-0.044898596,-0.07574729,0.0018325958
174,1436179576871,-0.03756821,-0.04337143,0.012217305
175,1436179576891,-0.028710667,-0.013439035,0.0125227375
176,1436179576911,-0.025350908,-0.004886922,0.0012217305
177,1436179576931,-0.031154128,0.0,-0.0070249503
178,1436179576953,-0.03176499,-0.015882496,-0.011301007
179,1436179576973,-0.030848695,-0.03726278,-0.01038471
180,1436179576993,-0.027794369,-0.036651913,-0.013133603
181,1436179577013,-0.016493361,-0.028710667,-0.009468411
182,1436179577033,-0.017715093,-0.0036651916,-0.0009162979
183,1436179577053,-0.0125227375,0.009162978,-0.0012217305
184,1436179577073,-0.015882496,0.005497787,-0.008246681
185,1436179577094,-0.018936822,0.016493361,-0.008552114
186,1436179577114,-0.025350908,0.019547688,-0.0070249503
187,1436179577134,-0.030848695,0.01740966,-0.0018325958
188,1436179577154,-0.026267206,0.014660766,0.004581489
189,1436179577172,-0.023823744,0.010079277,0.007330383
190,1436179577232,-0.024740042,0.01282817,0.017715093
191,1436179577244,-0.037873644,0.02565634,0.01282817
192,1436179577245,-0.043676864,0.035124753,0.012217305
193,1436179577258,-0.047036625,0.02443461,0.014660766
194,1436179577272,-0.05009095,0.011301007,0.018936822
195,1436179577292,-0.044593163,0.0009162979,0.01985312
196,1436179577311,-0.044898596,-0.0015271631,0.026572637
197,1436179577332,-0.045814894,0.005497787,0.031154128
198,1436179577353,-0.057726767,0.007941248,0.040317107
199,1436179577373,-0.053145275,0.013439035,0.044898596
200,1436179577393,-0.05222898,0.03726278,0.051618114
201,1436179577412,-0.048563786,0.08399397,0.058643065
202,1436179577435,-0.046120327,0.122783914,0.053450707
203,1436179577455,-0.046120327,0.1337795,0.03940081
204,1436179577476,-0.052534413,0.124311075,0.036957346
205,1436179577497,-0.05131268,0.10140363,0.033292156
206,1436179577515,-0.035430185,0.06261369,0.036957346
207,1436179577532,-0.02687807,0.03573562,0.044593163
208,1436179577555,-0.0290161,0.050701816,0.046731193
209,1436179577576,-0.034513887,0.103847094,0.043982297
210,1436179577595,-0.02687807,0.16065755,0.037873644
211,1436179577615,-0.021380283,0.18020524,0.03359759
212,1436179577633,-0.017104227,0.15760323,0.033292156
213,1436179577653,-0.013744468,0.10140363,0.032375857
214,1436179577677,-0.011301007,0.025045475,0.0421497
215,1436179577692,-0.009468411,-0.03023783,0.061391957
216,1436179577713,-0.012217305,-0.028405234,0.087964594
217,1436179577732,-0.012217305,0.003970624,0.13683382
218,1436179577755,-0.014049901,0.09193522,0.17531833
219,1436179577776,-0.019547688,0.19730948,0.20952678
220,1436179577804,-0.018325957,0.29229903,0.24587326
221,1436179577819,-0.01740966,0.34238997,0.2929099
222,1436179577877,-0.028710667,0.38606682,0.32742378
223,1436179577878,-0.037873644,0.41508293,0.34147367
224,1436179577879,-0.04886922,0.4196644,0.3359759
225,1436179577892,-0.05467244,0.38698313,0.3463606
226,1436179577913,-0.046120327,0.36957347,0.37934732
227,1436179577932,-0.03970624,0.34269542,0.39278635
228,1436179577965,-0.0290161,0.2828306,0.3930918
229,1436179578046,-0.02107485,0.19181168,0.38881573
230,1436179578047,-0.006414085,0.116980694,0.37323865
231,1436179578048,0.011301007,0.094989546,0.33964106
232,1436179578049,0.03145956,0.05589417,0.31306845
233,1436179578060,0.040317107,0.028710667,0.301462
234,1436179578077,0.028099801,0.02107485,0.28496864
235,1436179578098,0.03573562,0.028099801,0.27366763
236,1436179578112,0.04886922,0.056505036,0.2932153
237,1436179578132,0.076052725,0.08827003,0.3032946
238,1436179578154,0.10751228,0.13591751,0.38973203
239,1436179578174,0.11484267,0.1695151,0.58368176
240,1436179578200,0.11881329,0.15454891,0.73731434
241,1436179578212,0.092240654,0.023518313,0.69974613
242,1436179578238,0.09621128,-0.30543262,0.65148777
243,1436179578255,0.15515977,-0.6065892,0.6658431
244,1436179578273,0.21288654,-0.6936375,0.6731735
245,1436179578295,0.1704314,-0.61453044,0.6533204
246,1436179578316,0.10293079,-0.4859433,0.625526
247,1436179578336,0.07269296,-0.3820962,0.60994893
248,1436179578356,0.0571159,-0.35521814,0.6026186
249,1436179578376,0.03268129,-0.3827071,0.56291234
250,1436179578396,-0.017104227,-0.4642576,0.52106804
251,1436179578416,-0.0693332,-0.47678033,0.49877146
252,1436179578432,-0.106901415,-0.35827246,0.48441613
253,1436179578456,-0.13225232,-0.19242255,0.43676865
254,1436179578476,-0.13805555,0.07819075,0.39614612
255,1436179578497,-0.15241088,0.33964106,0.31856623
256,1436179578516,-0.17867808,0.54183745,0.24923302
257,1436179578536,-0.19730948,0.70402217,0.2275473
258,1436179578555,-0.20708331,0.7846564,0.24281894
259,1436179578575,-0.18570304,0.81000733,0.23518312
260,1436179578595,-0.15424347,0.6765333,0.183565
261,1436179578616,-0.12003502,0.4364632,0.1160644
262,1436179578636,-0.08124508,0.2678644,0.05955936
263,1436179578656,-0.099571034,0.09896017,0.040927973
264,1436179578674,-0.12644911,-0.053145275,0.057421334
265,1436179578696,-0.13897185,-0.269697,0.077579886
266,1436179578785,-0.17073683,-0.44226643,0.06841691
267,1436179578786,-0.19242255,-0.4569272,0.057726767
268,1436179578787,-0.16768251,-0.4098906,0.06414085
269,1436179578788,-0.099571034,-0.28863382,-0.09682214
270,1436179578805,-0.019547688,0.2864958,-0.50488013
271,1436179578813,0.048563786,1.20371,-0.77182823
272,1436179578833,0.19211712,1.6652187,-0.84635377
273,1436179578853,0.43004912,1.7241671,-0.7324274
274,1436179578873,0.7431176,1.6578883,-0.6740898
275,1436179578895,0.93462384,1.7696766,-0.6942484
276,1436179578955,1.1001683,1.9172006,-0.7516697
277,1436179578956,1.1582005,2.1111503,-0.7492262
278,1436179578957,1.1933253,2.2412646,-0.7296785
279,1436179578987,1.239751,2.2766948,-0.76144356
280,1436179578993,1.2928963,2.0650299,-0.79779
281,1436179579018,1.3710871,1.7119498,-0.83658
282,1436179579036,1.4162911,1.0671816,-0.88056225
283,1436179579056,1.4104879,0.38789943,-0.93645644
284,1436179579075,1.3701707,-0.2098322,-0.9984592
285,1436179579094,1.2635747,-0.573297,-1.0986412
286,1436179579113,1.0732902,-0.91996306,-1.131017
287,1436179579136,0.7788532,-1.0821478,-1.1053606
288,1436179579156,0.4474588,-1.0412198,-1.0735956
289,1436179579176,0.22937989,-0.85154617,-1.0290025
290,1436179579196,0.04642576,-0.72418076,-0.86620694
291,1436179579222,-0.06780604,-0.59040123,-0.59498274
292,1436179579238,-0.14080444,-0.33322698,-0.32070425
293,1436179579260,-0.17684549,0.014660766,-0.14996742
294,1436179579279,-0.21471913,0.24312437,0.0143553335
295,1436179579304,-0.33628133,0.42302418,0.18448131
296,1436179579315,-0.4877759,0.3717115,0.45142943
297,1436179579335,-0.5320636,0.23426682,0.7492262
298,1436179579355,-0.58062744,0.20555615,0.9651671
299,1436179579373,-0.73914695,0.16890424,1.0525209
300,1436179579397,-0.94225967,-0.058948494,0.9260717
301,1436179579418,-1.1355985,-0.571159,0.7199047
302,1436179579437,-1.2425,-1.0290025,0.69058317
303,1436179579456,-1.294118,-1.1349876,0.8240572
304,1436179579474,-1.2449434,-1.010982,1.0073168
305,1436179579493,-1.1801916,-0.82924956,1.072374
306,1436179579529,-1.131017,-0.97402465,1.0955868
307,1436179579541,-1.0961977,-1.2864822,1.104139
308,1436179579554,-1.0592403,-1.4801265,1.0980303
309,1436179579574,-1.0390818,-1.6108516,1.0589349
310,1436179579594,-1.0403035,-1.4935656,1.0161743
311,1436179579614,-1.0421361,-1.215011,0.99204516
312,1436179579634,-1.0351112,-0.9483683,0.9773844
313,1436179579664,-0.97249746,-0.84971356,0.95630956
314,1436179579682,-0.8594874,-0.86193085,0.9257663
315,1436179579694,-0.7254025,-0.93645644,0.8695667
316,1436179579715,-0.6435465,-0.9841039,0.78801614
317,1436179579737,-0.5458081,-0.99021256,0.6600399
318,1436179579754,-0.43401974,-0.97158116,0.50579643
319,1436179579778,-0.33200526,-0.87872964,0.3136793
320,1436179579798,-0.32925636,-0.6719518,0.03481932
321,1436179579818,-0.39278635,-0.36835176,-0.1872302
322,1436179579837,-0.4654793,-0.19517145,-0.3576616
323,1436179579858,-0.4202753,-0.19914207,-0.4120286
324,1436179579878,-0.3032946,-0.21777347,-0.37598756
325,1436179579898,-0.22540927,-0.12889257,-0.31490102
326,1436179579918,-0.1685988,-0.094989546,-0.21471913
327,1436179579935,-0.090713486,-0.1572978,-0.15088372
328,1436179579958,0.011911872,-0.30726522,-0.20250183
329,1436179579978,0.1020145,-0.38148534,-0.40622538
330,1436179579998,0.103847094,-0.14752395,-0.5888741
331,1436179580018,0.07269296,0.16829337,-0.698219
332,1436179580038,0.14874569,0.63132924,-0.69974613
333,1436179580056,0.29840767,1.0384709,-0.6881397
334,1436179580077,0.44135013,1.2183707,-0.7348709
335,1436179580097,0.6417139,1.099252,-0.77946407
336,1436179580115,0.8060367,0.8698721,-0.79504114
337,1436179580135,0.93615097,0.5656612,-0.75777835
338,1436179580155,1.0326678,0.3943135,-0.71868294
339,1436179580175,1.07665,0.4202753,-0.7165449
340,1436179580209,1.0986412,0.56413406,-0.7440339
341,1436179580326,1.0946705,0.8032878,-0.7703011
342,1436179580327,1.0888673,0.9660834,-0.75747293
343,1436179580328,1.0864239,1.028697,-0.71685034
344,1436179580329,1.0965031,1.0219775,-0.70005155
345,1436179580330,1.0906999,0.99296147,-0.6979135
346,1436179580331,1.069625,0.93615097,-0.6780604
347,1436179580334,0.9999864,0.84696466,-0.6554584
348,1436179580355,0.9138544,0.79473567,-0.6414085
349,1436179580374,0.7819075,0.7883216,-0.56138515
350,1436179580397,0.66248333,0.73914695,-0.41233405
351,1436179580416,0.5665775,0.6759224,-0.24312437
352,1436179580436,0.49571714,0.56688297,-0.08582657
353,1436179580456,0.3680463,0.37323865,0.023823744
354,1436179580477,0.103847094,0.22327125,0.1572978
355,1436179580499,-0.172264,0.015577064,0.30634892
356,1436179580517,-0.44043383,-0.26542094,0.5222898
357,1436179580538,-0.61391956,-0.5870415,0.7128797
358,1436179580558,-0.7770206,-0.88178396,0.8790351
359,1436179580578,-0.9083566,-1.3084733,0.850019
360,1436179580598,-0.98349303,-1.6982054,0.77518797
361,1436179580618,-0.9960158,-1.8597792,0.754724
362,1436179580638,-0.9486737,-1.5909985,0.7501425
363,1436179580658,-0.84299403,-1.1255192,0.729984
364,1436179580678,-0.77488256,-0.47433686,0.7357872
365,1436179580696,-0.80481493,-0.18845193,0.7984009
366,1436179580719,-0.8546005,-0.3304781,0.82650065
367,1436179580735,-0.8790351,-0.65240407,0.820392
368,1436179580755,-0.90010995,-1.0925325,0.7788532
369,1436179580775,-0.9483683,-1.3683381,0.77671516
370,1436179580800,-0.98929626,-1.4978416,0.86009824
371,1436179580820,-1.0042624,-1.4892895,0.9966267
372,1436179580841,-0.9999864,-1.3530666,1.1575897
373,1436179580858,-0.9941832,-1.0558805,1.2110404
374,1436179580876,-0.9440922,-0.8026769,1.1447614
375,1436179580895,-0.84940815,-0.6783658,1.0088439
