id,attr_time,attr_x,attr_y,attr_z
1,1436179573422,-0.004276057,0.02687807,-0.02107485
2,1436179573439,-0.003970624,0.022907447,-0.025961773
3,1436179573462,-0.01160644,0.016798794,-0.02565634
4,1436179573482,-0.016187929,0.03634648,-0.02321288
5,1436179573500,-0.010079277,0.05100725,-0.014966198
6,1436179573521,-0.002443461,0.03268129,-0.022296581
7,1436179573542,0.004276057,0.015271631,-0.039095376
8,1436179573562,-0.008857546,0.025961773,-0.04153884
9,1436179573582,-0.0143553335,0.05100725,-0.03481932
10,1436179573602,-0.020463986,0.06078109,-0.010079277
11,1436179573622,-0.004581489,0.03268129,-0.01863139
12,1436179573641,-0.002443461,0.016798794,-0.03268129
13,1436179573661,-0.0018325958,0.028405234,-0.040927973
14,1436179573681,-0.01740966,0.049785517,-0.034208454
15,1436179573700,-0.01863139,0.054061573,-0.02443461
16,1436179573721,-0.013439035,0.042455133,-0.015882496
17,1436179573789,-0.009468411,0.028099801,-0.023518313
18,1436179573790,-0.005497787,0.023518313,-0.032070424
19,1436179573791,0.0012217305,0.03176499,-0.03268129
20,1436179573799,-0.00580322,0.03268129,-0.03023783
21,1436179573821,-0.007941248,0.038179077,-0.021380283
22,1436179573840,-0.007330383,0.03604105,-0.018936822
23,1436179573861,-0.0070249503,0.029932396,-0.02076942
24,1436179573880,-0.0076358155,0.025961773,-0.027488936
25,1436179573902,-0.0027488936,0.028099801,-0.031154128
26,1436179573929,-0.01160644,0.035124753,-0.025961773
27,1436179573943,-0.014049901,0.033292156,-0.02076942
28,1436179573960,-0.013439035,0.040317107,-0.013439035
29,1436179573983,0.0033597588,0.039095376,-0.018936822
30,1436179574003,0.01038471,0.022296581,-0.026267206
31,1436179574023,-0.0018325958,0.0125227375,-0.028099801
32,1436179574043,-0.007941248,0.027488936,-0.029626964
33,1436179574063,-0.013439035,0.04886922,-0.022296581
34,1436179574082,-0.008246681,0.04642576,-0.016493361
35,1436179574103,0.00061086525,0.020158553,-0.021380283
36,1436179574123,0.0027488936,0.007941248,-0.03390302
37,1436179574143,-0.007941248,0.02687807,-0.03268129
38,1436179574163,-0.016493361,0.04153884,-0.028710667
39,1436179574180,-0.015577064,0.044898596,-0.011301007
40,1436179574203,-0.007330383,0.034513887,-0.015271631
41,1436179574223,-0.0009162979,0.02076942,-0.024740042
42,1436179574243,-0.0036651916,0.026572637,-0.03145956
43,1436179574263,-0.004886922,0.032375857,-0.028710667
44,1436179574282,-0.005192355,0.047647487,-0.02076942
45,1436179574302,0.004276057,0.030848695,-0.02321288
46,1436179574322,0.0070249503,0.018020526,-0.029321533
47,1436179574342,0.0027488936,0.02565634,-0.036651913
48,1436179574363,-0.0061086523,0.042455133,-0.026267206
49,1436179574382,-0.009162978,0.049480084,-0.011911872
50,1436179574402,-0.008552114,0.027183503,-0.013439035
51,1436179574421,0.0070249503,0.016493361,-0.020463986
52,1436179574447,0.0030543262,0.019547688,-0.030543262
53,1436179574512,0.0012217305,0.03390302,-0.032070424
54,1436179574513,-0.008552114,0.045814894,-0.01985312
55,1436179574514,-0.009773844,0.039095376,-0.0143553335
56,1436179574523,-0.0106901415,0.03573562,-0.009773844
57,1436179574550,-0.0012217305,0.027183503,-0.02076942
58,1436179574562,-0.0018325958,0.02687807,-0.025350908
59,1436179574580,-0.011301007,0.028099801,-0.02321288
60,1436179574602,-0.009468411,0.03145956,-0.022602014
61,1436179574620,-0.0012217305,0.03573562,-0.018020526
62,1436179574644,0.005497787,0.034513887,-0.01863139
63,1436179574662,-0.004886922,0.025961773,-0.023518313
64,1436179574683,-0.014660766,0.028099801,-0.01740966
65,1436179574702,-0.01282817,0.03481932,-0.018020526
66,1436179574722,-0.010079277,0.032986723,-0.017104227
67,1436179574744,-0.00580322,0.028405234,-0.024740042
68,1436179574763,-0.011301007,0.03176499,-0.024129177
69,1436179574782,-0.008857546,0.032070424,-0.02076942
70,1436179574804,-0.00580322,0.027183503,-0.01863139
71,1436179574823,-0.0027488936,0.03634648,-0.02076942
72,1436179574841,-0.005497787,0.026267206,-0.025045475
73,1436179574869,-0.00580322,0.031154128,-0.02321288
74,1436179574883,-0.010995574,0.032986723,-0.02107485
75,1436179574904,-0.017715093,0.042455133,-0.016798794
76,1436179574921,-0.0027488936,0.03848451,-0.016798794
77,1436179574940,-0.0030543262,0.01985312,-0.01985312
78,1436179574961,-0.004581489,0.018936822,-0.023518313
79,1436179574981,-0.005497787,0.03023783,-0.025961773
80,1436179575004,-0.004276057,0.042455133,-0.02107485
81,1436179575026,0.005497787,0.03359759,-0.02565634
82,1436179575046,0.0106901415,0.02321288,-0.035430185
83,1436179575064,0.004276057,0.01985312,-0.036651913
84,1436179575081,0.00061086525,0.03756821,-0.032986723
85,1436179575101,-0.007941248,0.038789943,-0.02076942
86,1436179575121,-0.003970624,0.031154128,-0.02107485
87,1436179575142,0.0036651916,0.03023783,-0.026267206
88,1436179575164,-0.00030543262,0.034208454,-0.027794369
89,1436179575261,-0.0036651916,0.034513887,-0.0290161
90,1436179575262,-0.009468411,0.03481932,-0.022907447
91,1436179575263,-0.014660766,0.040011674,-0.01863139
92,1436179575264,-0.00030543262,0.040011674,-0.018020526
93,1436179575265,0.007941248,0.023823744,-0.028099801
94,1436179575281,0.01740966,0.015271631,-0.035430185
95,1436179575301,0.0106901415,0.020158553,-0.04184427
96,1436179575321,-0.0036651916,0.032070424,-0.032375857
97,1436179575353,-0.011911872,0.04795292,-0.021991149
98,1436179575372,-0.003970624,0.04184427,-0.014660766
99,1436179575381,0.0076358155,0.021685716,-0.021685716
100,1436179575401,0.010995574,0.011911872,-0.03573562
101,1436179575421,0.002443461,0.015882496,-0.036957346
102,1436179575442,-0.004886922,0.040927973,-0.02687807
103,1436179575462,-0.010079277,0.0421497,-0.019242255
104,1436179575484,-0.0061086523,0.03481932,-0.013133603
105,1436179575502,-0.0009162979,0.025045475,-0.017715093
106,1436179575522,0.0067195175,0.018325957,-0.032986723
107,1436179575543,0.005497787,0.026572637,-0.03176499
108,1436179575564,0.00061086525,0.03268129,-0.026572637
109,1436179575584,-0.006414085,0.029626964,-0.02076942
110,1436179575604,-0.0067195175,0.028099801,-0.022602014
111,1436179575622,-0.0018325958,0.03023783,-0.021380283
112,1436179575642,0.010079277,0.01863139,-0.03176499
113,1436179575664,0.014966198,0.017715093,-0.036651913
114,1436179575684,0.0070249503,0.02076942,-0.03970624
115,1436179575704,0.004276057,0.03359759,-0.028710667
116,1436179575721,0.01160644,0.039095376,-0.026267206
117,1436179575744,0.012217305,0.03359759,-0.028405234
118,1436179575765,0.017104227,0.018020526,-0.041233405
119,1436179575785,0.0067195175,0.024740042,-0.035124753
120,1436179575802,-0.00580322,0.04062254,-0.026572637
121,1436179575824,-0.009162978,0.05131268,-0.009162978
122,1436179575841,-0.0061086523,0.04062254,-0.0009162979
123,1436179575870,0.0033597588,0.025350908,-0.016798794
124,1436179575881,0.019547688,0.018325957,-0.03573562
125,1436179575970,0.009773844,0.02321288,-0.036651913
126,1436179575971,0.0061086523,0.01863139,-0.037873644
127,1436179575972,0.018020526,0.038789943,-0.032070424
128,1436179575973,0.024129177,0.01985312,-0.031154128
129,1436179575986,0.028710667,0.0027488936,-0.046731193
130,1436179576004,0.019547688,0.016798794,-0.05009095
131,1436179576023,0.006414085,0.03573562,-0.042455133
132,1436179576042,-0.0106901415,0.04734206,-0.0290161
133,1436179576063,-0.007330383,0.04795292,-0.025350908
134,1436179576082,-0.0027488936,0.03848451,-0.023823744
135,1436179576104,0.004581489,0.03268129,-0.026572637
136,1436179576123,0.0021380284,0.024740042,-0.030543262
137,1436179576143,-0.0106901415,0.026572637,-0.02565634
138,1436179576162,-0.015577064,0.040011674,-0.02076942
139,1436179576183,-0.016187929,0.04917465,-0.008552114
140,1436179576205,-0.003970624,0.027794369,-0.008246681
141,1436179576225,-0.0015271631,0.016798794,-0.024129177
142,1436179576243,-0.005192355,0.02443461,-0.027794369
143,1436179576265,-0.008552114,0.038179077,-0.027183503
144,1436179576285,-0.018020526,0.043676864,-0.011911872
145,1436179576305,-0.016798794,0.04550946,0.0018325958
146,1436179576325,-0.009468411,0.024129177,-0.005192355
147,1436179576343,0.003970624,0.0076358155,-0.022602014
148,1436179576363,0.0033597588,0.023518313,-0.03634648
149,1436179576385,-0.004886922,0.03481932,-0.03176499
150,1436179576403,-0.013439035,0.033292156,-0.016187929
151,1436179576425,-0.0076358155,0.038789943,-0.013133603
152,1436179576445,-0.0015271631,0.025350908,-0.017104227
153,1436179576463,0.008857546,0.016493361,-0.027183503
154,1436179576484,0.003970624,0.02321288,-0.03359759
155,1436179576503,-0.0067195175,0.03726278,-0.030848695
156,1436179576522,-0.010995574,0.046120327,-0.008552114
157,1436179576545,-0.015271631,0.03604105,-0.0027488936
158,1436179576565,-0.006414085,0.022296581,-0.015271631
159,1436179576583,0.0030543262,0.01985312,-0.034208454
160,1436179576603,0.0009162979,0.03481932,-0.03573562
161,1436179576632,-0.008246681,0.03634648,-0.034208454
162,1436179576698,-0.017715093,0.043982297,-0.022907447
163,1436179576702,-0.0021380284,0.04062254,-0.00580322
164,1436179576703,0.00061086525,0.0143553335,-0.012217305
165,1436179576704,0.007330383,0.00580322,-0.03176499
166,1436179576722,0.0,0.026267206,-0.044593163
167,1436179576742,-0.00580322,0.04734206,-0.035124753
168,1436179576762,-0.013744468,0.05100725,-0.015271631
169,1436179576784,-0.0036651916,0.03726278,-0.015271631
170,1436179576808,0.0076358155,0.009468411,-0.02687807
171,1436179576831,0.0036651916,0.012217305,-0.03756821
172,1436179576843,-0.004276057,0.035124753,-0.03604105
173,1436179576866,-0.012217305,0.035124753,-0.024129177
174,1436179576884,-0.026267206,0.04153884,-0.017715093
175,1436179576906,-0.0143553335,0.04520403,-0.017715093
176,1436179576923,-0.008552114,0.027794369,-0.011911872
177,1436179576945,-0.006414085,-0.007330383,-0.025961773
178,1436179576965,-0.009162978,-0.022602014,-0.040927973
179,1436179576986,-0.016798794,0.022907447,-0.035124753
180,1436179577005,-0.0106901415,0.027183503,-0.027488936
181,1436179577026,-0.01160644,0.014660766,-0.020463986
182,1436179577046,-0.005192355,-0.033292156,-0.048258353
183,1436179577065,0.0027488936,0.023823744,-0.062308256
184,1436179577083,-0.01160644,0.021991149,-0.079107046
185,1436179577103,-0.03481932,0.015577064,-0.08735373
186,1436179577125,-0.046120327,0.04550946,-0.08368854
187,1436179577144,-0.054367006,0.07360926,-0.06383542
188,1436179577163,-0.059253927,0.040011674,-0.06627888
189,1436179577182,-0.063224554,0.044593163,-0.06536258
190,1436179577205,-0.0729984,0.04428773,-0.059253927
191,1436179577226,-0.08979719,0.04520403,-0.061086524
192,1436179577245,-0.098043874,0.084910266,-0.051618114
193,1436179577266,-0.10629055,0.07727446,-0.053145275
194,1436179577284,-0.11056661,0.065973446,-0.051618114
195,1436179577304,-0.11759156,0.048563786,-0.057421334
196,1436179577323,-0.13713925,0.010995574,-0.07238753
197,1436179577344,-0.17256944,0.008857546,-0.0852157
198,1436179577367,-0.20525073,0.035124753,-0.07391469
199,1436179577420,-0.2275473,0.035430185,-0.060170226
200,1436179577432,-0.2751948,0.054367006,-0.0290161
201,1436179577433,-0.33505958,0.054061573,0.005497787
202,1436179577443,-0.37415496,0.04062254,0.032986723
203,1436179577464,-0.4175264,0.034513887,0.07544186
204,1436179577487,-0.46822822,0.05009095,0.12583824
205,1436179577503,-0.5149594,0.052839845,0.16737708
206,1436179577523,-0.58459806,0.06078109,0.2489276
207,1436179577543,-0.6450737,0.087964594,0.3659083
208,1436179577567,-0.6814202,0.111177474,0.45570546
209,1436179577585,-0.7144069,0.06291912,0.51923543
210,1436179577604,-0.79504114,0.040317107,0.56138515
211,1436179577623,-0.9618073,0.1441642,0.59773165
212,1436179577646,-1.1921035,0.35094208,0.8594874
213,1436179577667,-1.207986,0.44165558,1.314582
214,1436179577686,-1.1972959,0.25778514,1.767844
215,1436179577707,-1.1395692,0.31581733,2.1691825
216,1436179577726,-1.1939361,0.5992588,2.4284947
217,1436179577746,-1.2260065,0.63224554,2.4581218
218,1436179577767,-1.181108,0.8338311,2.4065037
219,1436179577786,-1.1866057,0.9117164,2.288912
220,1436179577902,-1.1734722,1.0167851,2.1557434
221,1436179577904,-1.1081096,0.6630942,2.0839667
222,1436179577905,-0.95630956,-0.042455133,1.9324722
223,1436179577906,-0.7770206,-1.1389582,1.6224581
224,1436179577907,-0.59406644,-1.9113973,1.3402383
225,1436179577908,-0.3368922,-2.0726657,0.86559606
226,1436179577937,-0.03176499,-1.7595973,0.37934732
227,1436179577947,0.21960606,-1.2147056,0.01740966
228,1436179577967,0.5271767,-1.0940597,-0.4801401
229,1436179578010,0.8042041,-1.0396926,-0.9077458
230,1436179578011,0.98532563,-1.4306464,-1.2220359
231,1436179578047,1.1685852,-1.7870862,-1.6484199
232,1436179578048,1.2812898,-1.8726074,-2.058616
233,1436179578067,1.3277156,-1.3182472,-2.300213
234,1436179578084,1.3545936,-0.79534656,-2.4608707
235,1436179578106,1.3741413,-0.35460728,-2.3918428
236,1436179578126,1.2944235,-0.36193767,-2.0598376
237,1436179578145,1.1496484,-0.6261369,-1.7415768
238,1436179578172,0.77946407,-0.91874135,-1.3154984
239,1436179578185,0.3304781,-0.69974613,-0.86376345
240,1436179578205,0.038789943,-0.12370021,-0.49388456
241,1436179578224,-0.15088372,0.05497787,0.047647487
242,1436179578244,-0.22907446,-0.06780604,0.3753767
243,1436179578269,-0.20891592,-0.29138273,0.4801401
244,1436179578284,0.02687807,-0.41874814,0.38973203
245,1436179578304,0.7507534,-0.23273966,1.2437216
246,1436179578339,-0.0852157,-1.1016954,1.53205
247,1436179578357,-0.033292156,-0.048258353,0.04062254
248,1436179578364,-0.17134771,1.5925257,0.66339964
249,1436179578383,-0.108123146,-1.4963144,0.40194935
250,1436179578403,-0.09682214,-1.2064588,-0.2125811
251,1436179578427,-0.04428773,0.16554448,-0.3830125
252,1436179578443,0.110872045,-0.47616947,-0.569021
253,1436179578463,0.3203988,-0.43035457,-0.6921103
254,1436179578483,0.4569272,-0.17806722,-0.7733554
255,1436179578503,0.48502702,-0.17928895,-0.9095783
256,1436179578523,0.45204028,-0.0983493,-0.981355
257,1436179578543,0.344528,-0.033292156,-1.0482447
258,1436179578563,0.2415972,0.105374254,-1.0317514
259,1436179578583,0.19456059,0.13072516,-0.95203346
260,1436179578603,0.19272798,0.039095376,-0.820392
261,1436179578623,0.22296582,-0.1328632,-0.66737026
262,1436179578643,0.24098633,-0.13805555,-0.57726765
263,1436179578663,0.22479841,-0.15851954,-0.4279111
264,1436179578683,0.18295415,-0.19914207,-0.26267207
265,1436179578703,0.14874569,-0.26542094,-0.15882497
266,1436179578724,0.092240654,-0.16432275,-0.013133603
267,1436179578748,0.027794369,0.04795292,0.14844026
268,1436179578766,-0.04550946,0.031154128,0.22968534
269,1436179578788,-0.1695151,0.10567969,0.38515055
270,1436179578808,-0.28130344,0.17715092,0.5384777
271,1436179578828,-0.3191771,0.048258353,0.58184916
272,1436179578845,-0.36926803,0.13408493,0.6206391
273,1436179578864,-0.47525316,0.06383542,0.62796944
274,1436179578905,-0.59956425,0.18173242,0.57818395
275,1436179578906,-0.68783426,0.5030475,0.5674938
276,1436179578926,-0.80573124,0.6105598,0.61575216
277,1436179578945,-0.80481493,0.5665775,0.63255095
278,1436179578969,-0.7257079,0.9746355,0.5180137
279,1436179578988,-0.7672467,1.5894713,0.52534413
280,1436179579009,-0.88025683,1.6743816,0.63621616
281,1436179579026,-0.9602802,1.91323,0.7611381
282,1436179579045,-1.176221,2.1474967,1.3295482
283,1436179579069,-1.5916094,1.2843442,2.5604417
284,1436179579088,-1.7626517,0.82253003,3.3001995
285,1436179579109,-1.5741998,0.26083946,3.3970215
286,1436179579127,-1.7211128,1.1206323,2.967278
287,1436179579148,-1.6505579,1.9068159,2.7766879
288,1436179579168,-1.2470814,1.7767016,2.406809
289,1436179579188,-0.8051204,0.8222246,2.0207422
290,1436179579208,-0.4175264,-0.14202617,1.598329
291,1436179579228,-0.040317107,-0.59712076,1.0030408
292,1436179579248,0.17959438,-0.49418998,0.13591751
293,1436179579266,0.4905248,-0.12156218,-0.64751714
294,1436179579288,0.75441855,-0.15454891,-1.1636983
295,1436179579307,1.1010846,-0.33964106,-1.758681
296,1436179579327,1.3982705,-0.61361414,-2.3060162
297,1436179579348,1.5726726,-0.9416488,-2.6908615
298,1436179579368,1.7660115,-1.0247264,-3.0854805
299,1436179579388,1.8625281,-1.0650436,-3.225063
300,1436179579408,1.7779233,-1.1267409,-3.1566463
301,1436179579428,1.4831808,-1.010982,-2.6557367
302,1436179579448,1.0897835,-0.81336707,-1.7415768
303,1436179579468,0.8695667,-0.88606006,-1.0290025
304,1436179579488,0.5235115,-1.0415252,1.6618589
305,1436179579506,0.11942416,-1.0296134,-0.06261369
306,1436179579526,-0.19303341,2.5189028,0.56169057
307,1436179579592,-0.17501289,2.6224444,1.0259482
308,1436179579593,-0.16126843,-3.4944546,-0.07238753
309,1436179579594,-0.16126843,1.3509285,-0.12675454
310,1436179579605,-0.10415252,-0.4373795,-0.30787608
311,1436179579627,0.030543262,-0.58093286,-0.6041457
312,1436179579645,0.17928895,-0.204029,-0.7467828
313,1436179579665,0.3005457,-0.22815818,-0.8350528
314,1436179579686,0.42455134,-0.15057829,-0.9211848
315,1436179579707,0.48380527,-0.20005837,-0.9654725
316,1436179579727,0.4914411,-0.099571034,-1.0100657
317,1436179579746,0.4529566,0.06383542,-1.0430524
318,1436179579767,0.40317106,0.0842994,-1.0173961
319,1436179579785,0.40469822,0.03145956,-0.9682214
320,1436179579810,0.40500367,0.06811147,-0.8906415
321,1436179579825,0.38423425,-0.0009162979,-0.7724391
322,1436179579848,0.3549127,0.06536258,-0.6786713
323,1436179579865,0.30909783,0.04550946,-0.56077427
324,1436179579887,0.2312125,0.23151793,-0.3998113
325,1436179579906,0.19242255,0.2828306,-0.2929099
326,1436179579927,0.102319926,0.36957347,-0.09132435
327,1436179579949,0.004886922,0.34300083,0.10751228
328,1436179579969,-0.08735373,0.20738874,0.31856623
329,1436179579987,-0.19975294,0.17501289,0.47800204
330,1436179580009,-0.2669481,-0.10048734,0.59864795
331,1436179580028,-0.32834008,0.04886922,0.65179324
332,1436179580046,-0.42058071,-0.05589417,0.6374379
333,1436179580067,-0.58368176,0.09560041,0.6087272
334,1436179580090,-0.6420194,0.30573806,0.5522222
335,1436179580109,-0.68661255,0.6114761,0.47708577
336,1436179580130,-0.74097955,0.9783007,0.38362336
337,1436179580149,-0.7058548,1.3613132,0.21655174
338,1436179580169,-0.8228355,1.8164078,0.18417588
339,1436179580189,-0.98929626,1.6798794,0.13041973
340,1436179580208,-1.1545353,2.1853704,0.6918049
341,1436179580228,-1.2819008,1.423316,1.8301523
342,1436179580246,-1.6670512,-0.17348573,2.9119947
343,1436179580295,-1.5806139,-0.093462385,3.3808336
344,1436179580296,-1.4633276,0.8231409,3.3038647
345,1436179580317,-1.5607607,1.7696766,2.81334
346,1436179580326,-1.5534303,2.3448062,2.5302038
347,1436179580352,-1.2651019,1.5949692,2.2983804
348,1436179580366,-1.0149527,0.22296582,1.9911152
349,1436179580386,-0.64904433,-0.5720753,1.5519031
350,1436179580407,-0.34238997,-1.1481212,0.88270026
351,1436179580428,-0.18906279,-1.3304645,0.21930063
352,1436179580448,0.02321288,-1.151481,-0.52687126
353,1436179580466,0.33964106,-0.9935723,-1.1914927
354,1436179580489,0.5684101,-1.3710871,-1.6218473
355,1436179580508,0.8008443,-1.7162259,-2.2143865
356,1436179580529,0.96761054,-1.8710803,-2.802039
357,1436179580549,1.0852021,-1.6084082,-3.1038063
358,1436179580569,1.2409728,-1.359786,-3.2720997
359,1436179580589,1.2174544,-1.1716396,-3.22995
360,1436179580609,1.0720685,-0.95630956,-2.9196305
361,1436179580629,0.8943067,-1.0094548,-2.1337523
362,1436179580649,0.87872964,-1.3139712,-1.0613784
363,1436179580669,0.4746423,-1.3924674,2.1792617
364,1436179580688,0.07147124,-1.7198911,-0.02565634
365,1436179580709,-0.4098906,2.9608638,0.7257079
366,1436179580729,-0.28099802,1.8274034,0.95386606
367,1436179580749,-0.118202426,-4.1529675,0.12156218
368,1436179580769,-0.045814894,1.0430524,-0.021380283
369,1436179580789,0.052534413,0.01740966,-0.21288654
370,1436179580809,0.15332718,-0.58123827,-0.44257188
371,1436179580829,0.21074851,-0.20005837,-0.64568454
372,1436179580851,0.24648413,-0.2098322,-0.89461213
373,1436179580866,0.26389378,-0.09560041,-1.0280862
374,1436179580888,0.27763826,-0.1423316,-1.0897835
375,1436179580956,0.30909783,-0.25473082,-1.1484267
376,1436179581001,0.32498032,-0.1908954,-1.1826351
377,1436179581002,0.32742378,-0.1142318,-1.1633929
