id,attr_time,attr_x,attr_y,attr_z
1,1436179573520,-0.18114811,-0.20328534,0.009388732
2,1436179573521,-0.17687204,-0.19962014,0.007250703
3,1436179573522,-0.17748292,-0.19717668,0.013053923
4,1436179573523,-0.1735123,-0.20267446,0.011832193
5,1436179573524,-0.17717749,-0.20664509,0.016108248
6,1436179573525,-0.183897,-0.20450707,0.013053923
7,1436179573543,-0.18114811,-0.20878312,0.009694164
8,1436179573558,-0.172596,-0.21458635,0.009388732
9,1436179573577,-0.1680145,-0.21489178,0.010305029
10,1436179573593,-0.1735123,-0.22466561,0.01397022
11,1436179573620,-0.17870465,-0.22680365,0.01977344
12,1436179573635,-0.18114811,-0.2197787,0.013359356
13,1436179573654,-0.18817306,-0.22008413,0.0051126746
14,1436179573681,-0.17778835,-0.22038956,0.011221327
15,1436179573694,-0.17656662,-0.2283308,0.014886519
16,1436179573716,-0.17290142,-0.21275374,0.011221327
17,1436179573736,-0.17565031,-0.2029799,0.0035855118
18,1436179573755,-0.18603502,-0.20145273,0.004807242
19,1436179573775,-0.18817306,-0.20847769,0.0026692133
20,1436179573794,-0.19153282,-0.20450707,0.00694527
21,1436179573814,-0.19580887,-0.21153201,0.007250703
22,1436179573835,-0.19764146,-0.21550263,0.011221327
23,1436179573856,-0.19825234,-0.20908855,0.0026692133
24,1436179573876,-0.20252839,-0.21275374,0.0029746462
25,1436179573897,-0.20130666,-0.19503865,0.0026692133
26,1436179573915,-0.19428171,-0.20175818,0.010610461
27,1436179573936,-0.18634045,-0.20756139,0.013359356
28,1436179573957,-0.19122738,-0.20267446,0.018551711
29,1436179573977,-0.19153282,-0.19839841,0.018551711
30,1436179573995,-0.19214368,-0.19778755,0.01274849
31,1436179574014,-0.18481329,-0.19717668,0.017940845
32,1436179574034,-0.1783992,-0.20145273,0.024354931
33,1436179574054,-0.17962094,-0.20633966,0.021606036
34,1436179574074,-0.17656662,-0.20450707,0.021606036
35,1436179574094,-0.17381772,-0.2038962,0.021606036
36,1436179574115,-0.17412315,-0.20053644,0.024049498
37,1436179574135,-0.17778835,-0.19962014,0.0231332
38,1436179574156,-0.17687204,-0.20267446,0.023744065
39,1436179574175,-0.17717749,-0.19900927,0.022827767
40,1436179574195,-0.17748292,-0.20236903,0.020689737
41,1436179574227,-0.17656662,-0.20969942,0.017940845
42,1436179574239,-0.17534488,-0.2188624,0.017635413
43,1436179574256,-0.1793155,-0.21244831,0.013664788
44,1436179574275,-0.18420243,-0.20236903,0.014275653
45,1436179574295,-0.18878391,-0.21611351,0.01397022
46,1436179574316,-0.18175897,-0.21580806,0.01152676
47,1436179574335,-0.16923623,-0.21244831,0.010610461
48,1436179574354,-0.16312759,-0.19320606,0.0005311854
49,1436179574378,-0.16740364,-0.1785453,-0.0034394385
50,1436179574396,-0.18053724,-0.18129419,-0.0013014106
51,1436179574417,-0.19580887,-0.19259518,-0.00038511306
52,1436179574436,-0.20466642,-0.20542336,0.00022575259
53,1436179574454,-0.2101642,-0.21397547,-0.0022177082
54,1436179574475,-0.19764146,-0.21916783,0.0005311854
55,1436179574494,-0.19275454,-0.21550263,-0.0013014106
56,1436179574516,-0.1997795,-0.21947326,-7.9680234e-05
57,1436179574534,-0.19550344,-0.20603423,-0.00069054496
58,1436179574554,-0.19214368,-0.209394,0.0051126746
59,1436179574575,-0.18970022,-0.21092115,0.0066398378
60,1436179574594,-0.19244911,-0.21000485,0.011221327
61,1436179574616,-0.19336541,-0.21855697,0.015497384
62,1436179574636,-0.19825234,-0.22222215,0.022827767
63,1436179574656,-0.19672517,-0.22497106,0.015191951
64,1436179574676,-0.19855776,-0.2225276,0.020689737
65,1436179574697,-0.19825234,-0.21825153,0.015802816
66,1436179574716,-0.19947407,-0.21764067,0.018246278
67,1436179574734,-0.20008492,-0.21855697,0.015802816
68,1436179574754,-0.20222296,-0.20725596,0.02099517
69,1436179574775,-0.20222296,-0.20420164,0.020689737
70,1436179574795,-0.20100123,-0.19809298,0.020689737
71,1436179574817,-0.195198,-0.20084187,0.020384306
72,1436179574836,-0.19244911,-0.20053644,0.022216901
73,1436179574856,-0.18817306,-0.20603423,0.023744065
74,1436179574875,-0.18725675,-0.20633966,0.022216901
75,1436179575025,-0.18145354,-0.19442779,0.02893642
76,1436179575026,-0.18603502,-0.20084187,0.02679839
77,1436179575027,-0.17626119,-0.21489178,0.028630987
78,1436179575028,-0.17626119,-0.20756139,0.023744065
79,1436179575029,-0.17473403,-0.19015174,0.02557666
80,1436179575030,-0.1735123,-0.18587567,0.0231332
81,1436179575031,-0.17565031,-0.17426923,0.014275653
82,1436179575063,-0.17626119,-0.17304751,0.017024547
83,1436179575064,-0.18511873,-0.18037789,0.024660362
84,1436179575105,-0.18695132,-0.18526481,0.024354931
85,1436179575106,-0.18786763,-0.19045717,0.022216901
86,1436179575128,-0.19428171,-0.19595495,0.014886519
87,1436179575135,-0.19580887,-0.2011473,0.016413681
88,1436179575155,-0.18847848,-0.19351149,0.015191951
89,1436179575175,-0.19092195,-0.19137347,0.023744065
90,1436179575195,-0.18053724,-0.20175818,0.023438632
91,1436179575215,-0.18267527,-0.19503865,0.018551711
92,1436179575235,-0.18420243,-0.19412236,0.017635413
93,1436179575255,-0.18847848,-0.19564952,0.022827767
94,1436179575275,-0.1875622,-0.209394,0.021300603
95,1436179575295,-0.18847848,-0.21000485,0.021606036
96,1436179575315,-0.18939479,-0.21000485,0.018551711
97,1436179575335,-0.195198,-0.20695053,0.016719114
98,1436179575355,-0.19489257,-0.20878312,0.016108248
99,1436179575375,-0.1970306,-0.20511793,0.020689737
100,1436179575395,-0.19825234,-0.20053644,0.016413681
101,1436179575417,-0.19764146,-0.20786682,0.017024547
102,1436179575436,-0.19305998,-0.20786682,0.019468008
103,1436179575455,-0.18939479,-0.21000485,0.020384306
104,1436179575475,-0.19031109,-0.22680365,0.022522334
105,1436179575495,-0.183897,-0.2142809,0.020689737
106,1436179575514,-0.18817306,-0.21122658,0.01732998
107,1436179575534,-0.18603502,-0.20542336,0.020689737
108,1436179575556,-0.1875622,-0.2179461,0.026187524
109,1436179575576,-0.18817306,-0.21611351,0.024660362
110,1436179575596,-0.17534488,-0.2011473,0.016719114
111,1436179575617,-0.17626119,-0.19473322,0.0060289726
112,1436179575635,-0.16831994,-0.18862456,0.0060289726
113,1436179575655,-0.16373844,-0.19412236,0.017635413
114,1436179575676,-0.17198512,-0.19106802,0.020384306
115,1436179575694,-0.17778835,-0.20359077,0.020078873
116,1436179575714,-0.17381772,-0.21092115,0.013053923
117,1436179575736,-0.17534488,-0.20084187,0.009388732
118,1436179575755,-0.17962094,-0.20145273,0.004807242
119,1436179575775,-0.18511873,-0.18831913,0.012137624
120,1436179575795,-0.17992638,-0.19106802,0.018246278
121,1436179575816,-0.18236983,-0.19778755,0.01274849
122,1436179575836,-0.18481329,-0.19351149,0.0066398378
123,1436179575856,-0.19031109,-0.19290063,0.010915894
124,1436179575876,-0.19305998,-0.19900927,0.014275653
125,1436179575896,-0.1961143,-0.2048125,0.016413681
126,1436179575915,-0.19947407,-0.20450707,0.021606036
127,1436179575936,-0.1979469,-0.20450707,0.01977344
128,1436179575957,-0.1961143,-0.20145273,0.012137624
129,1436179575977,-0.19214368,-0.20053644,0.015497384
130,1436179575998,-0.18511873,-0.200231,0.018246278
131,1436179576016,-0.1875622,-0.19992557,0.0231332
132,1436179576038,-0.18725675,-0.2011473,0.019468008
133,1436179576056,-0.19122738,-0.20175818,0.016413681
134,1436179576076,-0.18786763,-0.21061571,0.019468008
135,1436179576098,-0.19122738,-0.21244831,0.024354931
136,1436179576118,-0.19428171,-0.22497106,0.024965795
137,1436179576138,-0.19000566,-0.2170298,0.029852718
138,1436179576156,-0.2006958,-0.21550263,0.028020121
139,1436179576177,-0.19489257,-0.21458635,0.030769017
140,1436179576196,-0.19031109,-0.22466561,0.028020121
141,1436179576217,-0.18511873,-0.21397547,0.020689737
142,1436179576240,-0.18420243,-0.19503865,0.016719114
143,1436179576271,-0.18634045,-0.19106802,0.020384306
144,1436179576276,-0.19153282,-0.18679197,0.015497384
145,1436179576298,-0.19305998,-0.18587567,0.018246278
146,1436179576318,-0.19244911,-0.18770827,0.01732998
147,1436179576337,-0.19214368,-0.19137347,0.014886519
148,1436179576356,-0.17962094,-0.19900927,0.013664788
149,1436179576378,-0.19214368,-0.19106802,0.016108248
150,1436179576397,-0.19855776,-0.19992557,0.016108248
151,1436179576416,-0.20833161,-0.19412236,0.010915894
152,1436179576440,-0.19305998,-0.19381693,0.017635413
153,1436179576463,-0.19367084,-0.19198433,0.013359356
154,1436179576478,-0.1961143,-0.19290063,0.019468008
155,1436179576497,-0.20588815,-0.19900927,0.021911468
156,1436179576517,-0.21657829,-0.20725596,0.019162575
157,1436179576537,-0.21169136,-0.21764067,0.017940845
158,1436179576556,-0.20588815,-0.21244831,0.017940845
159,1436179576577,-0.1997795,-0.20847769,0.010305029
160,1436179576599,-0.19855776,-0.20603423,0.02099517
161,1436179576618,-0.19336541,-0.20511793,0.02557666
162,1436179576637,-0.18939479,-0.20420164,0.028020121
163,1436179576657,-0.1783992,-0.19931471,0.021911468
164,1436179576680,-0.17962094,-0.18923543,0.02557666
165,1436179576699,-0.17901008,-0.18587567,0.025882093
166,1436179576719,-0.17534488,-0.18954086,0.031990744
167,1436179576738,-0.17778835,-0.19198433,0.035655938
168,1436179576757,-0.1829807,-0.2011473,0.032296177
169,1436179576777,-0.18542416,-0.19564952,0.032296177
170,1436179576800,-0.19641975,-0.19626038,0.02893642
171,1436179576819,-0.18786763,-0.19687125,0.03351791
172,1436179576839,-0.18084267,-0.21061571,0.035655938
173,1436179576859,-0.17442858,-0.20725596,0.031074446
174,1436179576880,-0.16679278,-0.19748211,0.028020121
175,1436179576899,-0.17198512,-0.18098876,0.019162575
176,1436179576998,-0.17748292,-0.17640726,0.01732998
177,1436179576999,-0.1820644,-0.18770827,0.020384306
178,1436179577000,-0.19458714,-0.18893,0.027714688
179,1436179577001,-0.20252839,-0.2057288,0.024660362
180,1436179577002,-0.21138594,-0.21122658,0.021300603
181,1436179577018,-0.20649901,-0.21153201,0.017024547
182,1436179577049,-0.20710988,-0.2038962,0.017024547
183,1436179577057,-0.19672517,-0.18862456,0.020384306
184,1436179577089,-0.18847848,-0.18343222,0.024660362
185,1436179577097,-0.17870465,-0.18862456,0.034128774
186,1436179577117,-0.18725675,-0.18648654,0.03382334
187,1436179577137,-0.19061652,-0.18037789,0.031990744
188,1436179577157,-0.19031109,-0.18770827,0.032296177
189,1436179577177,-0.18236983,-0.19442779,0.032296177
190,1436179577198,-0.18603502,-0.18954086,0.03168531
191,1436179577219,-0.1866459,-0.18984629,0.03473964
192,1436179577238,-0.19367084,-0.18740284,0.030463584
193,1436179577257,-0.20252839,-0.19320606,0.027409256
194,1436179577278,-0.20649901,-0.19717668,0.02557666
195,1436179577301,-0.20344469,-0.200231,0.026492957
196,1436179577320,-0.20191753,-0.20695053,0.029241852
197,1436179577348,-0.19580887,-0.21183744,0.027409256
198,1436179577359,-0.18542416,-0.21092115,0.033212475
199,1436179577378,-0.18450786,-0.21489178,0.02893642
200,1436179577397,-0.18267527,-0.2151972,0.0231332
201,1436179577421,-0.1707634,-0.21733524,0.023744065
202,1436179577439,-0.15854609,-0.21916783,0.02893642
203,1436179577471,-0.15457547,-0.2197787,0.03473964
204,1436179577486,-0.16190585,-0.21458635,0.034434207
205,1436179577507,-0.16740364,-0.21672437,0.028325554
206,1436179577525,-0.15793523,-0.21611351,0.024049498
207,1436179577540,-0.14449619,-0.22222215,0.022216901
208,1436179577557,-0.13288975,-0.21916783,0.022216901
209,1436179577578,-0.11761812,-0.20267446,0.016108248
210,1436179577598,-0.11486922,-0.20359077,0.013664788
211,1436179577619,-0.12464307,-0.21214288,0.001447483
212,1436179577640,-0.13533321,-0.21000485,-0.013824147
213,1436179577719,-0.13533321,-0.21000485,-0.018405639
214,1436179577720,-0.16557103,-0.21397547,-0.009853524
215,1436179577721,-0.16404387,-0.22894168,-0.013518716
216,1436179577722,-0.16160041,-0.2460459,-0.019627366
217,1436179577741,-0.17015253,-0.24390787,-0.025125153
218,1436179577764,-0.1603787,-0.21947326,-0.032150105
219,1436179577778,-0.16709821,-0.21305917,-0.033066403
220,1436179577799,-0.16404387,-0.19900927,-0.03520443
221,1436179577818,-0.16831994,-0.18129419,-0.028179482
222,1436179577840,-0.15793523,-0.18282135,-0.02359799
223,1436179577860,-0.14663422,-0.19778755,-0.025430586
224,1436179577879,-0.122810476,-0.22710907,-0.017183907
225,1436179577898,-0.09043462,-0.2460459,-0.020238232
226,1436179577922,-0.06538914,-0.26131752,-0.02329256
227,1436179577942,-0.038511068,-0.26131752,-0.021459963
228,1436179577959,-0.0070515126,-0.25704148,-0.02359799
229,1436179577978,0.022880882,-0.26589903,-0.019321933
230,1436179577998,0.058616504,-0.29063907,-0.008020929
231,1436179578020,0.08702174,-0.318128,-0.00069054496
232,1436179578041,0.11389981,-0.33614853,0.00083661824
233,1436179578061,0.13039316,-0.35233647,0.009388732
234,1436179578081,0.11817588,-0.36516464,0.04054286
235,1436179578099,0.101377085,-0.37005156,0.06467204
236,1436179578123,0.084883705,-0.36821896,0.101629384
237,1436179578143,0.06625232,-0.37829822,0.1223988
238,1436179578160,0.048842654,-0.38501775,0.14133562
239,1436179578178,0.031433,-0.37921453,0.14591712
240,1436179578198,0.029600397,-0.38318515,0.15660726
241,1436179578223,0.011579886,-0.3874612,0.17432235
242,1436179578243,0.0048603565,-0.3639429,0.20394932
243,1436179578263,0.037541658,-0.32423666,0.24182296
244,1436179578281,0.073277265,-0.25643063,0.26900646
245,1436179578300,0.13619639,-0.20511793,0.29893884
246,1436179578318,0.18659277,-0.14586401,0.30352032
247,1436179578339,0.2085839,-0.0719493,0.30565837
248,1436179578359,0.17407005,-0.00994648,0.32306802
249,1436179578379,0.12550624,0.02823259,0.31757024
250,1436179578484,0.0894652,0.055721536,0.2833618
251,1436179578485,0.062892556,0.09481691,0.23021652
252,1436179578486,0.015550509,0.14338069,0.19387004
253,1436179578487,-0.028737225,0.13635574,0.19417547
254,1436179578488,-0.07607929,0.10153644,0.21677749
255,1436179578513,-0.109982304,0.07190947,0.2262459
256,1436179578518,-0.13686037,0.05083461,0.21677749
257,1436179578540,-0.17778835,0.04319878,0.2103634
258,1436179578558,-0.19244911,-0.01819317,0.20272759
259,1436179578579,-0.19580887,-0.08202858,0.20639278
260,1436179578599,-0.20252839,-0.17640726,0.2057819
261,1436179578620,-0.16831994,-0.27720004,0.19356461
262,1436179578640,-0.117312685,-0.3566125,0.1682137
263,1436179578659,-0.04095453,-0.42166966,0.14347365
264,1436179578681,0.03998512,-0.48489422,0.14713885
265,1436179578702,0.09007606,-0.49039197,0.15721813
266,1436179578723,0.09221409,-0.47970188,0.14316823
267,1436179578741,0.05311872,-0.5013876,0.13339438
268,1436179578761,-0.024766602,-0.5126886,0.09765875
269,1436179578779,-0.058975056,-0.52551675,0.05673079
270,1436179578802,-0.050728373,-0.4971115,-0.01046439
271,1436179578822,-0.03392958,-0.38410145,-0.0629988
272,1436179578841,-0.06752717,-0.3217932,-0.08346279
273,1436179578861,-0.18145354,-0.30988133,-0.11308975
274,1436179578881,-0.24559438,-0.2695642,-0.16287526
275,1436179578903,-0.26789096,-0.19442779,-0.19341853
276,1436179578922,-0.26758555,-0.1250946,-0.24106602
277,1436179578941,-0.27522135,-0.17090948,-0.30673406
278,1436179578959,-0.3915912,-0.28117067,-0.21021733
279,1436179578979,-0.37173808,-0.20328534,-0.107286535
280,1436179579004,-0.3188982,-0.25215456,0.003280079
281,1436179579025,-0.30332115,-0.49375176,0.100102216
282,1436179579044,-0.27919197,-0.81628865,0.18806683
283,1436179579062,-0.24987045,-0.995883,0.20181128
284,1436179579080,-0.28713322,-1.1134745,0.14591712
285,1436179579099,-0.29354733,-1.1690633,0.1196499
286,1436179579120,-0.33630788,-1.1803643,0.047262378
287,1436179579140,-0.4630624,-1.1266081,0.13095091
288,1436179579161,-0.59806365,-1.0236773,0.16729741
289,1436179579232,-0.63563186,-0.9170814,0.14347365
290,1436179579233,-0.6799196,-0.88684356,0.26075977
291,1436179579234,-0.73917353,-0.8975337,0.3032149
292,1436179579242,-0.74680936,-0.8196484,0.10498914
293,1436179579259,-0.5763779,-0.76039445,0.13339438
294,1436179579279,-0.3738761,-0.6238661,0.15385836
295,1436179579299,-0.18267527,-0.49405718,0.06406117
296,1436179579319,-0.07180323,-0.34073,-0.012602418
297,1436179579341,0.0051658005,-0.23077427,-0.11583864
298,1436179579360,0.054035008,-0.19106802,-0.16440243
299,1436179579381,0.098017305,-0.21733524,-0.19708371
300,1436179579405,0.14169417,-0.26528814,-0.18486641
301,1436179579423,0.18720363,-0.2674262,-0.15615575
302,1436179579441,0.19575576,-0.26284468,-0.17295454
303,1436179579462,0.16002013,-0.26406643,-0.2624463
304,1436179579480,0.011274442,-0.27384028,-0.31895134
305,1436179579502,-0.25078675,-0.31690627,-0.29909822
306,1436179579519,-0.49055135,-0.35050386,-0.21082819
307,1436179579544,-0.53911513,-0.30896503,-0.17081651
308,1436179579560,-0.5180403,-0.16724429,-0.11583864
309,1436179579579,-0.4835264,0.050529167,-0.11217345
310,1436179579599,-0.4254942,0.19347166,-0.07918673
311,1436179579635,-0.31034613,0.19163905,0.033212475
312,1436179579640,-0.17717749,0.1742294,0.02557666
313,1436179579659,-0.086463995,0.264332,0.027409256
314,1436179579682,-0.09287807,0.43812317,-0.042840246
315,1436179579703,-0.06661087,0.5853417,-0.12011471
316,1436179579723,0.008220121,0.6598672,-0.11797667
317,1436179579743,0.081829384,0.68979967,-0.09506923
318,1436179579763,0.039374247,0.71331793,-0.06971832
319,1436179579783,-0.06416741,0.7362254,-0.03153924
320,1436179579804,-0.10967687,0.70415497,-0.03062294
321,1436179579823,-0.1108986,0.6464282,-0.035815295
322,1436179579842,-0.09196178,0.59816986,-0.07460524
323,1436179579861,-0.08340967,0.556631,-0.08040846
324,1436179579880,-0.028431796,0.5163139,-0.09781812
325,1436179579949,0.031127572,0.45889258,-0.084073655
326,1436179579950,0.1389453,0.43567967,-0.101788744
327,1436179579951,0.19178511,0.41063422,-0.13019398
328,1436179579972,0.21499799,0.3675682,-0.15859921
329,1436179579981,0.2101111,0.33305436,-0.25328332
330,1436179580000,0.1914797,0.3193099,-0.304596
331,1436179580022,0.09710102,0.29518068,-0.20869015
332,1436179580040,-0.007662371,0.25883424,-0.20563583
333,1436179580060,-0.12250504,0.25364184,-0.19861089
334,1436179580082,-0.24040204,0.2182117,-0.1894479
335,1436179580100,-0.41816384,0.14063181,-0.18150665
336,1436179580124,-0.5876789,-0.015444264,-0.22090746
337,1436179580141,-0.68511194,-0.16266279,-0.34063706
338,1436179580160,-0.6741164,-0.17457467,-0.36232278
339,1436179580181,-0.5501107,-0.14952919,-0.18425554
340,1436179580203,-0.3928129,-0.1880137,-0.015656743
341,1436179580223,-0.29171473,-0.3172117,0.063755736
342,1436179580243,-0.30820808,-0.5160483,0.10498914
343,1436179580263,-0.34913605,-0.7142741,0.09979679
344,1436179580284,-0.3665457,-0.81323427,0.024965795
345,1436179580303,-0.3393622,-0.8556894,-0.043756545
346,1436179580322,-0.31737107,-0.90272605,-0.03764789
347,1436179580341,-0.31156784,-0.9351019,-0.002523141
348,1436179580360,-0.2944636,-0.93632364,0.094298996
349,1436179580384,-0.2831626,-0.9308258,0.08635775
350,1436179580407,-0.30515376,-0.9247172,0.09918592
351,1436179580422,-0.32195255,-0.8862327,0.12575856
352,1436179580440,-0.29935053,-0.8172049,0.11690101
353,1436179580462,-0.22299238,-0.76405966,0.08513602
354,1436179580480,-0.12250504,-0.6754842,0.10560001
355,1436179580500,0.016161367,-0.5887413,0.09765875
356,1436179580523,0.10840203,-0.4952789,0.021606036
357,1436179580541,0.18598191,-0.43449783,-0.047116302
358,1436179580562,0.23973806,-0.4024274,-0.073994376
359,1436179580580,0.22477184,-0.392959,-0.10392678
360,1436179580602,0.1746809,-0.36821896,-0.09690183
361,1436179580622,0.12672798,-0.32912356,-0.122252725
362,1436179580652,0.0128016025,-0.2927771,-0.16226439
363,1436179580723,-0.1557972,-0.2704805,-0.27985597
364,1436179580724,-0.41633123,-0.32301491,-0.20166521
365,1436179580725,-0.59378755,-0.4351087,-0.07674327
366,1436179580726,-0.7348975,-0.44213367,0.073835015
367,1436179580742,-0.72298557,-0.34836584,0.15966159
368,1436179580767,-0.59928536,-0.34592235,0.1569127
369,1436179580781,-0.45756465,-0.39937308,0.18653965
370,1436179580803,-0.3570773,-0.30560526,0.18348533
371,1436179580823,-0.30637547,-0.10157627,0.17646039
372,1436179580842,-0.31187326,0.24142458,0.28611067
373,1436179580863,-0.31553847,0.47019356,0.27816942
374,1436179580882,-0.30973524,0.5462463,0.26870102
375,1436179580905,-0.27735937,0.5780113,0.25404027
376,1436179580923,-0.20985878,0.6733063,0.21250144
