id,attr_time,attr_x,attr_y,attr_z
1,1436289167421,0.0077553242,-0.072480485,0.042800408
2,1436289167441,0.012947679,-0.084086925,0.042800408
3,1436289167460,0.012336813,-0.10058029,0.04402214
4,1436289167481,0.0053118616,-0.120433405,0.046465598
5,1436289167502,0.01203138,-0.0950825,0.03577546
6,1436289167522,0.013558544,-0.065150104,0.028139643
7,1436289167543,0.0013412386,-0.059346884,0.03730262
8,1436289167561,-0.013319526,-0.08286519,0.039135218
9,1436289167581,-0.007821739,-0.12806922,0.040051512
10,1436289167662,0.010809649,-0.08042173,0.031193968
11,1436289167663,-0.004767414,-0.016891748,0.030888535
12,1436289167664,-0.012708662,-0.06759356,0.034859158
13,1436289167665,-0.008432604,-0.09752596,0.034859158
14,1436289167681,0.0074498914,-0.085308656,0.030583102
15,1436289167700,0.01050422,-0.04376982,0.03730262
16,1436289167720,-0.013014093,-0.070647895,0.036691755
17,1436289167742,-0.024620533,-0.08683582,0.03455373
18,1436289167761,0.0013412386,-0.10607807,0.033331998
19,1436289167783,0.024554122,-0.08866841,0.030583102
20,1436289167801,0.00256297,-0.050183907,0.035164595
21,1436289167821,-0.007516306,-0.058125153,0.036691755
22,1436289167844,-0.0004913546,-0.0819489,0.034248296
23,1436289167861,-0.00018592551,-0.08133803,0.02661248
24,1436289167883,-0.0056837127,-0.060874045,0.026917912
25,1436289167903,-0.013319526,-0.07797827,0.03577546
26,1436289167921,0.0010358058,-0.095693365,0.027223345
27,1436289167941,-0.0035456829,-0.06453924,0.025085315
28,1436289167962,-0.013624959,-0.062095776,0.03363743
29,1436289167984,-0.010265201,-0.08897385,0.03363743
30,1436289168006,0.0053118616,-0.08958471,0.02569618
31,1436289168022,-0.0066000074,-0.050489336,0.024779884
32,1436289168042,-0.024925966,-0.058430586,0.033331998
33,1436289168061,-0.012097796,-0.114630185,0.029972238
34,1436289168082,0.0059227273,-0.101496585,0.024779884
35,1436289168102,0.0077553242,-0.03094165,0.025085315
36,1436289168122,-0.00904347,-0.045907848,0.030583102
37,1436289168143,-0.020344477,-0.09447163,0.028139643
38,1436289168164,-0.019733611,-0.10210745,0.027223345
39,1436289168184,-0.017901016,-0.09355534,0.023863586
40,1436289168206,0.0016466714,-0.06148491,0.025085315
41,1436289168224,0.0016466714,-0.052016497,0.022641854
42,1436289168243,-0.007210873,-0.044380687,0.022641854
43,1436289168263,-0.017901016,-0.051711068,0.02661248
44,1436289168281,-0.015457556,-0.0819489,0.02783421
45,1436289168303,-0.0069054402,-0.0932499,0.028750507
46,1436289168321,-0.0017130859,-0.05415453,0.0314994
47,1436289168383,-0.0026293844,-0.056292556,0.03455373
48,1436289168384,-0.004767414,-0.07522938,0.029361373
49,1436289168396,-0.00079678744,-0.06728813,0.021420125
50,1436289168403,-0.0059891455,-0.054765396,0.027528778
51,1436289168421,-0.009654336,-0.06576097,0.03577546
52,1436289168442,-0.009348903,-0.08347606,0.0324157
53,1436289168462,-0.0066000074,-0.07736741,0.031193968
54,1436289168481,-0.0099597685,-0.06423381,0.029361373
55,1436289168502,0.0053118616,-0.062095776,0.028445076
56,1436289168522,-0.0004913546,-0.044380687,0.0314994
57,1436289168547,-0.017901016,-0.06240121,0.03027767
58,1436289168564,-0.023398804,-0.08133803,0.03027767
59,1436289168597,-0.0059891455,-0.09019558,0.032110266
60,1436289168623,0.0028684027,-0.06392837,0.037913486
61,1436289168624,-0.0069054402,-0.07431308,0.03608089
62,1436289168641,-0.018511882,-0.08164346,0.034248296
63,1436289168661,-0.0023239516,-0.07614568,0.029666806
64,1436289168681,0.0016466714,-0.05659799,0.031804834
65,1436289168701,-0.00079678744,-0.056292556,0.03821892
66,1436289168721,-0.013014093,-0.088362984,0.03821892
67,1436289168741,-0.012708662,-0.08317062,0.02783421
68,1436289168761,0.0037847012,-0.059957746,0.031804834
69,1436289168781,-0.0069054402,-0.060874045,0.0324157
70,1436289168801,-0.007516306,-0.067898996,0.036997188
71,1436289168821,-0.013624959,-0.07797827,0.037913486
72,1436289168841,0.0019521043,-0.081032604,0.034859158
73,1436289168861,0.008977056,-0.07034246,0.033026565
74,1436289168881,-0.010265201,-0.067898996,0.03455373
75,1436289168901,-0.018817313,-0.085308656,0.03577546
76,1436289168921,-0.008738037,-0.094166204,0.033942863
77,1436289168941,-0.0056837127,-0.079505436,0.031193968
78,1436289168961,-0.00018592551,-0.059652314,0.033942863
79,1436289168982,0.0028684027,-0.056292556,0.034859158
80,1436289169003,0.00256297,-0.057514288,0.036386322
81,1436289169023,-0.0004913546,-0.052321933,0.030888535
82,1436289169044,-0.0020185187,-0.042242654,0.040051512
83,1436289169066,-0.0041565485,-0.07553481,0.044633005
84,1436289169082,0.008060757,-0.09752596,0.043411274
85,1436289169101,-0.00079678744,-0.07706197,0.031193968
86,1436289169121,-0.0023239516,-0.05445996,0.032110266
87,1436289169143,-0.004767414,-0.06270664,0.03608089
88,1436289169163,0.0037847012,-0.072175056,0.03455373
89,1436289169182,0.0010358058,-0.056903422,0.04035695
90,1436289169203,-0.0014076531,-0.0819489,0.03730262
91,1436289169225,-0.0023239516,-0.084392354,0.035470024
92,1436289169244,0.0031738356,-0.06759356,0.033026565
93,1436289169263,-0.00018592551,-0.05904145,0.034248296
94,1436289169281,-0.007821739,-0.059957746,0.03608089
95,1436289169302,-0.011486931,-0.09141731,0.039440647
96,1436289169322,0.0071444586,-0.08347606,0.032110266
97,1436289169345,0.012947679,-0.059957746,0.038829785
98,1436289169362,0.0013412386,-0.0792,0.041273244
99,1436289169385,-0.008127172,-0.099969424,0.039746083
100,1436289169403,-0.004767414,-0.08347606,0.03577546
101,1436289169423,-0.0011022203,-0.06820443,0.037608054
102,1436289169444,0.0056172945,-0.08469779,0.035470024
103,1436289169465,0.0074498914,-0.065150104,0.035470024
104,1436289169482,-0.008738037,-0.061790343,0.03821892
105,1436289169503,-0.008738037,-0.07706197,0.040662378
106,1436289169524,-0.0026293844,-0.082559764,0.036997188
107,1436289169542,0.008060757,-0.06576097,0.033942863
108,1436289169563,0.0050064325,-0.065150104,0.037913486
109,1436289169586,-0.011792364,-0.07889457,0.035164595
110,1436289169605,-0.012403229,-0.08958471,0.03730262
111,1436289169625,-0.0038511157,-0.099969424,0.03577546
112,1436289169645,0.0034792684,-0.069426164,0.032721132
113,1436289169663,0.0074498914,-0.048045874,0.033331998
114,1436289169772,0.0053118616,-0.06453924,0.03027767
115,1436289169773,-0.0035456829,-0.06301208,0.03455373
116,1436289169774,-0.004767414,-0.051100202,0.03455373
117,1436289169775,-0.00904347,-0.058125153,0.042800408
118,1436289169776,-0.0038511157,-0.08072717,0.03730262
119,1436289169803,-0.005072847,-0.08317062,0.033331998
120,1436289169804,0.011420514,-0.05568169,0.032721132
121,1436289169823,0.0071444586,-0.052627362,0.040051512
122,1436289169860,-0.009654336,-0.06820443,0.036386322
123,1436289169863,-0.0059891455,-0.078283705,0.036386322
124,1436289169908,-0.005072847,-0.09050101,0.039746083
125,1436289169909,-0.00018592551,-0.07186962,0.036386322
126,1436289169936,-0.0004913546,-0.06453924,0.044327572
127,1436289169942,0.0037847012,-0.08927928,0.035470024
128,1436289169962,0.0074498914,-0.055070825,0.0324157
129,1436289169982,0.011725947,-0.06453924,0.036691755
130,1436289170002,-0.0020185187,-0.07858914,0.037608054
131,1436289170022,-0.011181498,-0.09355534,0.045854732
132,1436289170049,0.00011950731,-0.103023745,0.042189542
133,1436289170062,0.0071444586,-0.081032604,0.035164595
134,1436289170082,0.00256297,-0.059957746,0.04035695
135,1436289170103,0.0059227273,-0.07858914,0.04188411
136,1436289170126,-0.0035456829,-0.09019558,0.036691755
137,1436289170144,-0.0026293844,-0.06453924,0.031193968
138,1436289170166,-0.00537828,-0.062095776,0.042800408
139,1436289170187,-0.0059891455,-0.06820443,0.04035695
140,1436289170203,0.01630744,-0.0660664,0.04035695
141,1436289170222,0.0068390258,-0.06545553,0.040967815
142,1436289170245,-0.0026293844,-0.08897385,0.03730262
143,1436289170264,0.0034792684,-0.07675654,0.035470024
144,1436289170283,-0.0041565485,-0.06301208,0.042494975
145,1436289170303,0.00256297,-0.08072717,0.037913486
146,1436289170326,-0.0038511157,-0.07186962,0.038829785
147,1436289170346,0.00011950731,-0.08072717,0.036386322
148,1436289170365,-0.0014076531,-0.09355534,0.039746083
149,1436289170383,-0.0059891455,-0.069426164,0.035164595
150,1436289170408,0.0047009997,-0.05781972,0.03608089
151,1436289170437,0.012947679,-0.052627362,0.040051512
152,1436289170443,-0.00018592551,-0.07339679,0.038829785
153,1436289170464,-0.0139303915,-0.069426164,0.035470024
154,1436289170486,-0.007210873,-0.055987123,0.041273244
155,1436289170502,0.00836619,-0.07339679,0.035470024
156,1436289170522,0.0059227273,-0.09080644,0.039135218
157,1436289170546,-0.010876067,-0.06973159,0.036691755
158,1436289170564,-0.0017130859,-0.070647895,0.042800408
159,1436289170583,-0.0026293844,-0.10180202,0.039135218
160,1436289170606,0.010198787,-0.09630423,0.039440647
161,1436289170626,0.0019521043,-0.072785914,0.039135218
162,1436289170643,-0.012708662,-0.058125153,0.04310584
163,1436289170664,-0.0026293844,-0.10058029,0.04157868
164,1436289170687,0.009282488,-0.08897385,0.034248296
165,1436289170707,0.0077553242,-0.048962176,0.033942863
166,1436289170726,-0.004767414,-0.046824142,0.046465598
167,1436289170747,-0.009348903,-0.09355534,0.04768733
168,1436289170767,0.004395567,-0.09813683,0.041273244
169,1436289170786,0.017223734,-0.07889457,0.043411274
170,1436289170804,0.0037847012,-0.081032604,0.046771035
171,1436289170827,-0.010876067,-0.08927928,0.043716706
172,1436289170847,0.0034792684,-0.094166204,0.033942863
173,1436289170867,0.01050422,-0.06392837,0.034248296
174,1436289170887,0.008671623,-0.061790343,0.043411274
175,1436289170905,0.006533593,-0.08653039,0.045854732
176,1436289170927,0.0056172945,-0.08042173,0.04157868
177,1436289170946,0.0047009997,-0.08286519,0.042189542
178,1436289170966,0.011115082,-0.07706197,0.036386322
179,1436289170984,0.015391141,-0.05904145,0.038524352
180,1436289171007,0.004395567,-0.060568612,0.04188411
181,1436289171027,0.01050422,-0.10607807,0.034248296
182,1436289171047,0.0071444586,-0.11249216,0.036691755
183,1436289171064,-0.005072847,-0.0669827,0.03608089
184,1436289171084,-0.0038511157,-0.0660664,0.036997188
185,1436289171149,0.01050422,-0.09050101,0.0324157
186,1436289171150,0.006533593,-0.08286519,0.0324157
187,1436289171151,0.0034792684,-0.06545553,0.03363743
188,1436289171164,-0.0026293844,-0.060874045,0.033026565
189,1436289171190,0.00622816,-0.060874045,0.034859158
190,1436289171206,0.012947679,-0.05904145,0.032110266
191,1436289171224,0.014474843,-0.052016497,0.029666806
192,1436289171247,0.010809649,-0.05873602,0.031804834
193,1436289171271,-0.0044619814,-0.06453924,0.039135218
194,1436289171284,-0.007210873,-0.08347606,0.037608054
195,1436289171304,0.009282488,-0.09263904,0.031193968
196,1436289171329,0.019361764,-0.0660664,0.02661248
197,1436289171344,0.004090134,-0.049267605,0.030888535
198,1436289171364,-0.0023239516,-0.06759356,0.034859158
199,1436289171384,0.0059227273,-0.07553481,0.022641854
200,1436289171404,-0.01484669,-0.052321933,0.030888535
201,1436289171424,-0.0066000074,-0.07553481,0.03455373
202,1436289171447,0.026997577,-0.082559764,0.026917912
203,1436289171467,0.012336813,-0.028803624,0.029666806
204,1436289171484,-0.014541257,-0.029109053,0.03608089
205,1436289171504,-0.019428179,-0.09813683,0.03577546
206,1436289171523,0.015696574,-0.12379317,0.0324157
207,1436289171546,0.020583492,-0.07767284,0.02905594
208,1436289171566,0.0028684027,-0.022389539,0.03455373
209,1436289171587,-0.0035456829,-0.07339679,0.034248296
210,1436289171632,0.00256297,-0.094166204,0.031804834
211,1436289171633,0.0053118616,-0.08042173,0.029972238
212,1436289171647,0.0013412386,-0.058430586,0.038829785
213,1436289171666,0.0074498914,-0.07492395,0.04035695
214,1436289171686,0.00073037297,-0.07675654,0.035164595
215,1436289171706,-0.0014076531,-0.07431308,0.033942863
216,1436289171727,-0.0029348172,-0.069426164,0.033331998
217,1436289171747,-0.0056837127,-0.07858914,0.034859158
218,1436289171767,0.00073037297,-0.072175056,0.030583102
219,1436289171785,-0.0023239516,-0.06881529,0.029361373
220,1436289171811,-0.008127172,-0.08042173,0.030583102
221,1436289171846,0.0013412386,-0.09294447,0.026917912
222,1436289171847,0.01050422,-0.05904145,0.027223345
223,1436289171863,0.0037847012,-0.05445996,0.02661248
224,1436289171884,-0.0056837127,-0.060874045,0.0324157
225,1436289171903,-0.00079678744,-0.07675654,0.02905594
226,1436289171926,0.00073037297,-0.053238228,0.027528778
227,1436289171946,0.008060757,-0.04285352,0.04035695
228,1436289171964,0.00042494014,-0.09141731,0.030888535
229,1436289171984,-0.0011022203,-0.058125153,0.021420125
230,1436289172009,-0.00537828,-0.050794773,0.031804834
231,1436289172026,-0.012403229,-0.07492395,0.032721132
232,1436289172048,-0.00018592551,-0.08286519,0.033026565
233,1436289172068,-0.0056837127,-0.074007645,0.030583102
234,1436289172088,-0.009348903,-0.06423381,0.028139643
235,1436289172108,-0.0029348172,-0.0801163,0.022641854
236,1436289172128,-0.0041565485,-0.050489336,0.026917912
237,1436289172147,-0.008127172,-0.06026318,0.032721132
238,1436289172167,-0.010876067,-0.085614085,0.0324157
239,1436289172191,-0.007516306,-0.08500323,0.025085315
240,1436289172207,0.00622816,-0.06301208,0.022641854
241,1436289172229,0.0077553242,-0.05659799,0.030583102
242,1436289172248,-0.017901016,-0.06850986,0.039135218
243,1436289172272,-0.008432604,-0.08714125,0.030583102
244,1436289172286,-0.0029348172,-0.06850986,0.030888535
245,1436289172309,0.00622816,-0.07645111,0.026917912
246,1436289172331,-0.0059891455,-0.06728813,0.03363743
247,1436289172372,-0.01606842,-0.07614568,0.04157868
248,1436289172373,-0.015762988,-0.10241288,0.035164595
249,1436289172417,-0.0056837127,-0.083781496,0.0314994
250,1436289172423,0.004395567,-0.06576097,0.028139643
251,1436289172431,0.008060757,-0.052321933,0.03577546
252,1436289172446,-0.00904347,-0.07522938,0.032721132
253,1436289172474,-0.016373852,-0.096915096,0.029972238
254,1436289172485,-0.022177072,-0.1100487,0.030888535
255,1436289172508,-0.012708662,-0.0801163,0.036997188
256,1436289172539,0.0047009997,-0.0669827,0.03730262
257,1436289172546,-0.00324025,-0.08286519,0.031804834
258,1436289172567,-0.012708662,-0.079505436,0.02661248
259,1436289172585,-0.007210873,-0.07522938,0.028445076
260,1436289172607,-0.007516306,-0.07675654,0.032721132
261,1436289172625,-0.0020185187,-0.08072717,0.034859158
262,1436289172648,-0.02064991,-0.091111876,0.039440647
263,1436289172682,-0.0041565485,-0.08317062,0.03608089
264,1436289172685,0.0016466714,-0.07125875,0.031804834
265,1436289172712,-0.0026293844,-0.05904145,0.029666806
266,1436289172725,-0.014541257,-0.059652314,0.035164595
267,1436289172752,-0.014235824,-0.07553481,0.039135218
268,1436289172768,-0.0056837127,-0.084086925,0.03577546
269,1436289172788,-0.00904347,-0.07675654,0.036691755
270,1436289172808,-0.012097796,-0.07003702,0.030888535
271,1436289172828,-0.00537828,-0.06301208,0.031193968
272,1436289172848,-0.0041565485,-0.07156418,0.02783421
273,1436289172868,-0.009348903,-0.06331751,0.0314994
274,1436289172885,-0.013014093,-0.05781972,0.03363743
275,1436289172906,-0.0038511157,-0.059957746,0.040051512
276,1436289172928,-0.0038511157,-0.06881529,0.03455373
277,1436289172947,-0.00018592551,-0.062095776,0.031804834
278,1436289172969,-0.0017130859,-0.046213277,0.037913486
279,1436289172987,-0.0038511157,-0.06423381,0.03577546
280,1436289173007,-0.013624959,-0.072480485,0.036691755
281,1436289173028,-0.012708662,-0.09294447,0.039135218
282,1436289173048,-0.0056837127,-0.09935856,0.04035695
283,1436289173068,0.008671623,-0.07522938,0.036386322
284,1436289173086,0.00073037297,-0.06270664,0.034248296
285,1436289173109,-0.021566207,-0.066677265,0.036997188
286,1436289173127,-0.016984718,-0.095998794,0.03730262
287,1436289173148,-0.0044619814,-0.08744668,0.038829785
288,1436289173168,0.0016466714,-0.079505436,0.04310584
289,1436289173187,-0.0004913546,-0.07675654,0.037608054
290,1436289173207,-0.0017130859,-0.066677265,0.02905594
291,1436289173279,-0.008738037,-0.047435008,0.030583102
292,1436289173280,-0.008432604,-0.057514288,0.039440647
293,1436289173281,0.0016466714,-0.10210745,0.043411274
294,1436289173289,0.009587921,-0.114630185,0.03455373
295,1436289173306,-0.007821739,-0.0669827,0.033331998
296,1436289173329,-0.016679285,-0.05445996,0.03730262
297,1436289173349,-0.008738037,-0.08469779,0.034859158
298,1436289173367,0.0047009997,-0.08317062,0.034859158
299,1436289173400,0.0053118616,-0.08286519,0.042494975
300,1436289173407,-0.01820645,-0.08133803,0.042800408
301,1436289173426,-0.0059891455,-0.0801163,0.03608089
302,1436289173448,0.0034792684,-0.07186962,0.030888535
303,1436289173471,0.0019521043,-0.057208855,0.033331998
304,1436289173486,0.00073037297,-0.06423381,0.038524352
305,1436289173509,-0.008432604,-0.09935856,0.042494975
306,1436289173529,-0.0026293844,-0.09233361,0.031193968
307,1436289173549,0.0034792684,-0.059346884,0.031804834
308,1436289173568,0.019667197,-0.04987847,0.029972238
309,1436289173587,0.0031738356,-0.059346884,0.032721132
310,1436289173609,-0.017901016,-0.061179478,0.037913486
311,1436289173629,-0.018817313,-0.08744668,0.041273244
312,1436289173649,0.002257537,-0.0950825,0.033942863
313,1436289173667,0.0034792684,-0.05568169,0.0324157
314,1436289173688,-0.008432604,-0.059652314,0.03363743
315,1436289173709,-0.008738037,-0.072480485,0.036386322
316,1436289173728,-0.0035456829,-0.089890145,0.034248296
317,1436289173747,-0.0044619814,-0.070953324,0.027528778
318,1436289173768,-0.00904347,-0.05781972,0.033331998
319,1436289173791,0.002257537,-0.06820443,0.035164595
320,1436289173811,0.0013412386,-0.07492395,0.0314994
321,1436289173831,-0.0017130859,-0.06301208,0.024779884
322,1436289173850,-0.007516306,-0.05415453,0.0314994
323,1436289173867,0.00256297,-0.06331751,0.03577546
324,1436289173888,-0.0038511157,-0.0792,0.031804834
325,1436289173908,-0.0099597685,-0.06881529,0.034859158
326,1436289173927,-0.0062945746,-0.06423381,0.039135218
327,1436289173950,0.008977056,-0.067898996,0.03455373
328,1436289174007,0.009587921,-0.05537626,0.031193968
329,1436289174008,-0.008432604,-0.053849094,0.03363743
330,1436289174009,-0.011181498,-0.07003702,0.03821892
331,1436289174027,-0.0059891455,-0.07706197,0.037913486
332,1436289174048,0.012336813,-0.069426164,0.0324157
333,1436289174067,-0.0023239516,-0.05659799,0.03027767
334,1436289174087,-0.0069054402,-0.044991553,0.03027767
335,1436289174108,-0.01606842,-0.07553481,0.031804834
336,1436289174129,-0.01729015,-0.078283705,0.039440647
337,1436289174147,-0.00904347,-0.07003702,0.041273244
338,1436289174168,-0.0014076531,-0.074007645,0.039746083
339,1436289174192,0.00622816,-0.07767284,0.030583102
340,1436289174207,0.008977056,-0.05873602,0.030583102
341,1436289174227,-0.0017130859,-0.049267605,0.04035695
342,1436289174250,-0.012708662,-0.09844226,0.037913486
343,1436289174270,-0.009348903,-0.09844226,0.036386322
344,1436289174290,-0.00537828,-0.08500323,0.040051512
345,1436289174310,-0.005072847,-0.085614085,0.04157868
346,1436289174330,0.0037847012,-0.10455091,0.035164595
347,1436289174349,-0.0029348172,-0.07858914,0.03577546
348,1436289174370,-0.016373852,-0.07522938,0.040051512
349,1436289174390,-0.0069054402,-0.09783139,0.039440647
350,1436289174409,0.0028684027,-0.078283705,0.037913486
351,1436289174427,-0.0066000074,-0.06759356,0.03608089
352,1436289174450,-0.008738037,-0.057208855,0.031804834
353,1436289174467,-0.0066000074,-0.04712958,0.029666806
354,1436289174487,-0.007821739,-0.04560242,0.043411274
355,1436289174508,-0.0099597685,-0.07858914,0.046465598
356,1436289174533,0.0016466714,-0.07797827,0.053795982
357,1436289174553,0.0050064325,-0.10607807,0.053185116
358,1436289174573,0.0077553242,-0.099969424,0.035164595
359,1436289174587,-0.0026293844,-0.04835131,0.027223345
360,1436289174607,-0.011181498,-0.055070825,0.0324157
361,1436289174628,-0.007210873,-0.07797827,0.03027767
362,1436289174647,0.0010358058,-0.053543665,0.02661248
363,1436289174668,0.004395567,-0.042242654,0.029666806
364,1436289174769,-0.00079678744,-0.05904145,0.03455373
