id,attr_time,attr_x,attr_y,attr_z
1,1435995489004,-0.6392518,9.973646,-1.3108255
2,1435995489024,-0.6859388,9.973646,-1.3844471
3,1435995489047,-0.7116765,10.005967,-1.4460979
4,1435995489063,-0.676362,9.980229,-1.4526819
5,1435995489084,-0.670975,9.988609,-1.3838485
6,1435995489106,-0.7290344,9.994595,-1.388637
7,1435995489122,-0.7230489,9.986814,-1.365892
8,1435995489142,-0.64703304,9.968259,-1.3204023
9,1435995489166,-0.6847417,9.98442,-1.328782
10,1435995489182,-0.6919243,9.975441,-1.3162124
11,1435995489207,-0.7236475,9.964667,-1.3347675
12,1435995489229,-0.7212533,9.997588,-1.3443443
13,1435995489245,-0.66379243,9.968858,-1.3533225
14,1435995489262,-0.6925228,10.010756,-1.3742718
15,1435995489286,-0.7314286,9.994595,-1.4030021
16,1435995489311,-0.724246,9.981427,-1.3664906
17,1435995489389,-0.7015011,9.987412,-1.3664906
18,1435995489390,-0.7200562,9.976639,-1.3826514
19,1435995489391,-0.7134721,9.991004,-1.3515269
20,1435995489392,-0.6943185,9.977237,-1.3389573
21,1435995489402,-0.70509243,9.985617,-1.3491327
22,1435995489421,-0.705691,9.990405,-1.4269443
23,1435995489445,-0.7386112,9.985018,-1.4389153
24,1435995489464,-0.64583594,10.001778,-1.3682863
25,1435995489481,-0.6434417,9.994595,-1.388637
26,1435995489503,-0.6967127,9.956287,-1.4867992
27,1435995489527,-0.6099229,9.956886,-1.4616601
28,1435995489545,-0.5770026,9.988011,-1.3916297
29,1435995489564,-0.670975,9.999982,-1.4275428
30,1435995489587,-0.6745663,9.995792,-1.3910311
31,1435995489602,-0.64823014,9.970055,-1.3281834
32,1435995489624,-0.66498953,9.989806,-1.3389573
33,1435995489647,-0.705691,9.980828,-1.316811
34,1435995489662,-0.6727707,9.97604,-1.347337
35,1435995489682,-0.6835446,9.982025,-1.3826514
36,1435995489704,-0.6823475,9.991004,-1.417966
37,1435995489726,-0.63087213,9.99639,-1.388637
38,1435995489745,-0.65301853,9.999982,-1.3892355
39,1435995489770,-0.64583594,9.986814,-1.3760674
40,1435995489787,-0.6560113,9.973047,-1.3856442
41,1435995489805,-0.6488287,9.970653,-1.3892355
42,1435995489827,-0.6464345,9.993997,-1.395221
43,1435995489843,-0.6536171,10.029909,-1.4634558
44,1435995489863,-0.61112,9.987412,-1.4203602
45,1435995489886,-0.60812724,9.982025,-1.3623008
46,1435995489902,-0.670975,9.977237,-1.3760674
47,1435995489928,-0.6500258,9.988011,-1.3862427
48,1435995489950,-0.6434417,9.988011,-1.3880384
49,1435995489963,-0.5835867,10.000581,-1.4275428
50,1435995489990,-0.6206968,9.998186,-1.3976152
51,1435995490053,-0.7224504,9.991004,-1.4095862
52,1435995490054,-0.712275,9.968259,-1.401805
53,1435995490055,-0.61890113,10.023924,-1.3551182
54,1435995490069,-0.7074866,9.977836,-1.441908
55,1435995490085,-0.7332243,10.030508,-1.4562732
56,1435995490101,-0.6356605,9.947908,-1.3443443
57,1435995490124,-0.58777654,9.97185,-1.2838906
58,1435995490142,-0.5919664,9.966463,-1.2551602
59,1435995490162,-0.705691,9.970055,-1.3066356
60,1435995490185,-0.6440403,9.9790325,-1.3096284
61,1435995490204,-0.62728083,9.993398,-1.3401544
62,1435995490223,-0.65780693,9.980229,-1.3892355
63,1435995490251,-0.66379243,9.980229,-1.4036007
64,1435995490263,-0.63206923,10.000581,-1.3904326
65,1435995490284,-0.6835446,9.997588,-1.3850456
66,1435995490307,-0.6727707,9.977836,-1.3652935
67,1435995490325,-0.6368576,9.999982,-1.3676877
68,1435995490345,-0.6159084,10.001179,-1.3730747
69,1435995490369,-0.6679823,9.979631,-1.4317327
70,1435995490385,-0.6781576,9.981427,-1.4562732
71,1435995490404,-0.688333,9.979631,-1.4425066
72,1435995490426,-0.63206923,9.970653,-1.4155718
73,1435995490443,-0.6751649,9.986814,-1.412579
74,1435995490466,-0.66139823,10.012551,-1.4526819
75,1435995490489,-0.6368576,10.001179,-1.4305356
76,1435995490506,-0.6410475,9.959879,-1.4293385
77,1435995490526,-0.6218939,9.991602,-1.4203602
78,1435995490547,-0.6584055,9.958682,-1.4215573
79,1435995490565,-0.635062,9.9790325,-1.4095862
80,1435995490586,-0.6254852,9.99639,-1.3730747
81,1435995490606,-0.61530983,9.983821,-1.3784616
82,1435995490626,-0.65780693,9.993997,-1.436521
83,1435995490690,-0.6631939,9.993997,-1.4718355
84,1435995490691,-0.66498953,9.994595,-1.4550761
85,1435995490692,-0.6404489,9.982624,-1.4257472
86,1435995490701,-0.6410475,9.974843,-1.429937
87,1435995490724,-0.6679823,9.98442,-1.4107834
88,1435995490741,-0.6596026,9.994595,-1.4257472
89,1435995490761,-0.64823014,9.993997,-1.4161704
90,1435995490786,-0.6422446,9.985617,-1.3784616
91,1435995490804,-0.6500258,9.977836,-1.3575124
92,1435995490826,-0.64942724,9.973646,-1.3928268
93,1435995490848,-0.6344634,9.985617,-1.4293385
94,1435995490866,-0.65660983,9.997588,-1.4610616
95,1435995490886,-0.66738373,9.983821,-1.447295
96,1435995490906,-0.6362591,9.964667,-1.4401124
97,1435995490926,-0.6428431,9.977836,-1.4101849
98,1435995490946,-0.6596026,9.968259,-1.4197617
99,1435995490969,-0.6410475,9.973047,-1.3868413
100,1435995490987,-0.60693014,9.986216,-1.3856442
101,1435995491004,-0.62847793,9.998186,-1.3706805
102,1435995491028,-0.6769605,9.97604,-1.4036007
103,1435995491044,-0.62728083,9.9951935,-1.3982137
104,1435995491064,-0.599149,9.977836,-1.3772645
105,1435995491087,-0.6404489,9.979631,-1.417966
106,1435995491109,-0.7164649,9.991004,-1.3916297
107,1435995491130,-0.6703765,9.969456,-1.3988123
108,1435995491157,-0.6392518,9.986814,-1.3664906
109,1435995491167,-0.6775591,9.985617,-1.4030021
110,1435995491187,-0.6931214,9.998785,-1.4149733
111,1435995491205,-0.65182143,9.985018,-1.3814543
112,1435995491222,-0.6428431,9.985018,-1.3880384
113,1435995491250,-0.6799533,9.952098,-1.3874398
114,1435995491332,-0.6889315,9.982025,-1.3628993
115,1435995491333,-0.6781576,9.98442,-1.3790601
116,1435995491334,-0.6548142,9.991602,-1.3874398
117,1435995491335,-0.65780693,9.998785,-1.3772645
118,1435995491342,-0.6607997,9.988011,-1.3623008
119,1435995491363,-0.682946,9.969456,-1.3551182
120,1435995491389,-0.6691794,9.993997,-1.3581109
121,1435995491405,-0.6973112,10.008362,-1.401805
122,1435995491422,-0.7062895,9.9928,-1.3892355
123,1435995491444,-0.65182143,9.970055,-1.3515269
124,1435995491462,-0.688333,9.962274,-1.3377602
125,1435995491482,-0.6811504,9.929952,-1.3856442
126,1435995491505,-0.6751649,9.907207,-1.3868413
127,1435995491522,-0.64823014,9.598354,-1.1737574
128,1435995491544,-0.6835446,9.624092,-1.0031705
129,1435995491565,-0.3429694,9.662399,-0.6434417
130,1435995491583,-0.095768064,9.956886,-0.16220717
131,1435995491603,-0.83856916,9.980229,-0.85054016
132,1435995491628,-1.050456,10.0748005,-1.5167267
133,1435995491643,-0.8678981,10.331579,-1.775899
134,1435995491663,-0.93373865,10.289082,-1.9081788
135,1435995491687,-1.1623849,10.032902,-1.8926164
136,1435995491718,-1.2707225,9.882666,-1.4047978
137,1435995491725,-0.9391256,9.860519,-0.30765492
138,1435995491746,-0.24779987,10.084976,1.2336124
139,1435995491766,0.24061728,9.967062,2.202067
140,1435995491786,0.7374141,9.8437605,2.4420857
141,1435995491809,0.320823,10.230424,1.3515269
142,1435995491829,-0.3645172,11.056423,-0.7080852
143,1435995491850,-1.0151415,11.81359,-2.4145525
144,1435995491867,-1.5047557,12.36246,-3.5422213
145,1435995491888,-0.78769237,12.175713,-4.0019083
146,1435995491976,0.41718966,11.064803,-3.192668
147,1435995491977,0.7679402,9.964069,-2.7401638
148,1435995491978,0.43514615,9.660604,-2.9873652
149,1435995491979,-0.12689269,9.354745,-3.3901896
150,1435995491991,-0.4866215,9.350554,-3.430891
151,1435995492003,-0.6063316,11.03727,-4.374805
152,1435995492026,-2.2068555,8.963891,-3.9103298
153,1435995492046,-1.9494787,6.8204823,-3.6349967
154,1435995492064,-1.8303672,7.318476,-4.1515455
155,1435995492083,-0.90500826,8.6257105,-4.222773
156,1435995492105,-0.94930094,8.136695,-3.9444473
157,1435995492123,-1.3210008,7.499837,-3.8606503
158,1435995492143,-1.2198458,7.888296,-3.027468
159,1435995492166,-0.6835446,9.033921,-2.6551697
160,1435995492184,-0.14844051,9.1590185,-2.5073278
161,1435995492205,0.047285482,9.175778,-2.1493945
162,1435995492227,-0.42197806,9.292496,-2.4157495
163,1435995492244,-1.0540473,8.919,-2.8999767
164,1435995492265,-2.0380642,8.215105,-3.6212301
165,1435995492288,-2.9293058,6.927024,-4.7405195
166,1435995492305,-2.9646204,5.3324857,-5.1810527
167,1435995492327,-1.757344,5.8837504,-4.943428
168,1435995492346,-0.14544775,13.4739685,0.6985083
169,1435995492365,3.9031472,19.608511,1.91596
170,1435995492384,1.7340006,9.523536,4.1024647
171,1435995492406,-2.4025815,1.8788497,-1.1456255
172,1435995492424,-6.145916,7.8050976,-2.533664
173,1435995492445,-5.159505,10.229825,-5.692813
174,1435995492464,-2.6880898,9.099164,-4.59567
175,1435995492485,-2.6036944,9.353547,-4.6884456
176,1435995492529,-3.1082723,9.493608,-5.9292407
177,1435995492530,-4.957793,9.57561,-8.020576
178,1435995492610,-5.524022,10.008362,-7.48607
179,1435995492611,-4.6740804,10.43872,-5.7305217
180,1435995492612,-3.271078,12.012308,-4.398747
181,1435995492613,-2.8562827,14.507666,-2.6234465
182,1435995492629,-0.961272,15.662868,-1.3108255
183,1435995492644,0.48602295,13.585897,0.9367314
184,1435995492663,0.90979666,11.610682,2.8999767
185,1435995492684,1.460463,12.134413,4.486734
186,1435995492705,1.8698715,12.516887,6.8001313
187,1435995492723,2.0979192,10.839748,10.075399
188,1435995492743,1.5023615,8.661623,11.845911
189,1435995492768,1.7992426,8.418612,6.0483522
190,1435995492789,5.285799,11.548432,7.685986
191,1435995492808,1.6071079,11.81359,2.4355016
192,1435995492828,-4.2371383,10.50875,-4.7842135
193,1435995492848,-11.306618,12.647969,-11.2689085
194,1435995492868,-13.678074,19.608511,-18.89923
195,1435995492889,-9.73662,10.333375,-14.299968
196,1435995492910,-6.9545574,6.3488245,-11.172543
197,1435995492926,-4.5723267,5.1666875,-12.655151
198,1435995492949,-3.4674027,2.1583729,-13.810952
199,1435995492968,0.13706805,-2.8269536,-12.044032
200,1435995492987,1.520318,-7.1125746,-6.1926026
201,1435995493007,-2.260725,-4.0462008,-7.9188223
202,1435995493028,-3.198055,-0.8631097,-10.275913
203,1435995493048,-3.6290112,0.036511578,-12.340314
204,1435995493069,-3.9725792,2.7222073,-13.98513
205,1435995493088,-5.4857144,8.822633,-10.251373
206,1435995493111,-1.8962077,11.374253,-4.8267107
207,1435995493136,-0.4165911,6.6852098,-4.243124
208,1435995493152,-6.123171,0.4285621,-3.50571
209,1435995493180,-4.777031,-4.736928,-0.91219085
210,1435995493228,-2.8191724,-3.289633,-8.998607
211,1435995493229,-9.367314,-2.5689783,-14.557344
212,1435995493230,-14.325108,-7.8733325,-17.485453
213,1435995493245,-17.835007,19.608511,-16.725893
214,1435995493266,-7.8344264,6.3631897,5.3833623
215,1435995493284,19.607914,19.608511,0.8738836
216,1435995493306,8.140884,18.942924,-18.666393
217,1435995493325,-18.735228,-11.060614,-10.594941
218,1435995493347,-19.60911,1.87047,-14.720749
219,1435995493368,-10.326192,16.60319,-14.864401
220,1435995493390,3.5098996,19.608511,-8.177995
221,1435995493408,7.24665,19.608511,-0.19512744
222,1435995493429,9.190742,18.784307,8.389283
223,1435995493448,4.979341,13.100473,10.809821
224,1435995493469,1.8381484,3.7894228,11.705252
225,1435995493489,3.0005333,3.7223852,10.600328
226,1435995493509,3.329736,8.508993,10.5207205
227,1435995493528,6.0740895,13.584102,6.938995
228,1435995493548,5.79337,12.596494,6.8839283
229,1435995493569,8.725668,12.670115,2.4073699
230,1435995493588,-5.2660465,11.437101,-6.479907
231,1435995493608,-13.527838,19.54327,-15.497069
232,1435995493632,-16.36377,12.388198,-17.74283
233,1435995493648,-10.871471,5.1158104,-14.825496
234,1435995493670,-6.5337763,5.5617304,-19.361311
235,1435995493688,-4.0252514,4.5621514,-19.32839
236,1435995493708,-2.5516205,1.2557588,-16.420034
237,1435995493726,-2.4121583,-3.3602622,-13.063363
238,1435995493749,-4.6261964,-7.697957,-13.334506
239,1435995493767,-3.9187095,-9.482236,-14.150929
240,1435995493789,-1.7794905,-5.319318,-12.564172
241,1435995493816,3.1112652,8.054693,-6.326678
242,1435995493870,0.17058687,19.595942,-11.533468
243,1435995493871,-13.401544,5.5324016,-6.7600284
244,1435995493872,-6.9437833,-2.6156654,-4.5633483
245,1435995493885,-7.257424,-1.5316905,-8.173206
246,1435995493905,-5.8639984,0.6727707,-9.980229
247,1435995493928,-4.7165775,5.559336,9.432556
248,1435995493946,1.8860323,19.608511,-19.532495
249,1435995493970,-0.59136784,7.417835,-0.24839842
250,1435995493985,-3.2770636,-10.970232,-14.904504
251,1435995494008,-14.400525,2.9257145,-9.759365
252,1435995494029,-2.6443958,8.954314,-19.605518
253,1435995494049,-10.410587,16.072275,-17.679983
254,1435995494068,-11.757326,14.73272,-11.447277
255,1435995494089,-3.8833952,14.186842,-5.9011087
256,1435995494109,1.01574,19.608511,-2.6839
257,1435995494132,3.116652,19.608511,-2.9412768
258,1435995494147,2.0757728,18.177378,0.34715924
259,1435995494167,2.6821043,13.83669,6.4152637
260,1435995494188,1.7340006,11.789648,11.464635
261,1435995494211,2.6617537,5.12838,15.695189
262,1435995494231,1.0959458,4.707599,14.621988
263,1435995494251,4.4603977,9.385869,10.76852
264,1435995494274,6.8641763,13.706206,10.672154
265,1435995494289,5.424064,12.901754,3.4320881
266,1435995494309,-3.2477345,14.707581,2.1260512
267,1435995494330,-8.772355,19.608511,-10.318411
268,1435995494349,-11.135432,16.670826,-11.6908865
269,1435995494370,-12.424111,10.222044,-13.259687
270,1435995494391,-11.418547,9.381081,-16.200365
271,1435995494410,-7.519589,6.7025676,-19.255367
272,1435995494430,-2.830545,3.1794999,-19.325996
273,1435995494447,-1.050456,-0.664391,-13.90313
274,1435995494466,-3.1094694,-2.043451,-11.893197
275,1435995494491,-4.370615,-5.204396,-13.317148
276,1435995494506,-2.433706,-6.5631056,-13.731944
277,1435995494526,-1.6496049,-0.55246204,-12.378023
278,1435995494547,-2.4983494,17.178398,-6.35062
279,1435995494572,-5.6664767,10.4249525,-2.6797101
280,1435995494588,-4.546589,-3.8947675,-2.9574378
281,1435995494607,-6.930017,-4.3556514,-6.8288617
282,1435995494629,-3.693056,-4.100669,-8.426991
283,1435995494647,-4.3275194,5.46297,-13.939042
284,1435995494667,-3.4685998,18.787899,0.079008654
285,1435995494687,-9.0081835,19.50257,-19.608511
286,1435995494707,1.3437457,-14.3418665,-6.3901243
287,1435995494727,-18.844164,-10.71106,-6.6163764
288,1435995494751,-3.4003649,5.699397,-13.651738
289,1435995494770,-7.6722193,17.30948,-17.390882
290,1435995494790,-14.86081,16.557102,-18.550274
291,1435995494810,-6.9228344,13.546991,-9.991004
292,1435995494831,0.0796072,17.062878,-2.5785553
293,1435995494848,2.3864205,19.608511,-3.5924997
294,1435995494870,1.5095441,19.608511,-2.190096
295,1435995494891,2.5797524,16.94556,6.2650275
296,1435995494911,2.0626047,10.790069,10.780492
297,1435995494931,2.7168205,3.9163153,14.55555
298,1435995494950,2.0147207,2.0949266,15.072098
299,1435995494970,0.44831428,5.659893,12.050017
300,1435995494990,5.415684,10.661979,9.507974
301,1435995495008,7.153875,11.775283,7.0808516
302,1435995495031,2.3756466,13.208811,6.7163343
303,1435995495053,-5.433641,19.505562,-6.7719994
304,1435995495071,-9.562442,19.39064,-12.027871
305,1435995495090,-7.079056,11.182717,-10.408792
306,1435995495160,-8.818443,12.488754,-11.486182
307,1435995495161,-7.6770077,9.803658,-17.029358
308,1435995495162,-2.534861,6.908469,-19.583372
309,1435995495167,-0.682946,3.9677908,-17.382504
310,1435995495186,-2.9131448,0.38965634,-15.71135
311,1435995495206,-5.731719,-2.3953989,-12.0159
312,1435995495227,-4.2024226,-5.6347537,-15.675437
313,1435995495246,-2.7138276,-6.729502,-15.150508
314,1435995495267,-2.179322,-1.6316484,-11.2689085
315,1435995495288,1.9859903,16.379332,-3.240552
316,1435995495307,1.2060791,16.202162,-5.269039
317,1435995495327,-6.694188,-5.1888337,-5.9047
318,1435995495354,-8.874707,-8.309077,-10.852917
319,1435995495367,-6.2123547,1.863886,-11.472416
320,1435995495405,-11.225813,10.571598,16.52059
321,1435995495406,-3.899556,19.608511,-19.608511
322,1435995495426,0.39085343,3.4380736,10.527305
323,1435995495447,-11.259332,-18.115726,-12.582129
324,1435995495467,-13.940838,0.8230068,-11.5203
325,1435995495486,0.57281274,9.919178,-18.89504
326,1435995495513,-13.790003,18.496405,-16.186
327,1435995495530,-12.199655,15.564705,-12.1523695
328,1435995495551,-3.7840357,11.747749,-5.9926867
329,1435995495570,-0.049679685,19.473839,-4.329315
330,1435995495593,-1.1432313,19.608511,-4.203021
331,1435995495611,0.94211835,17.889475,0.6847417
332,1435995495629,2.018312,15.318103,6.3422403
333,1435995495649,0.8702923,9.886257,8.292916
334,1435995495668,3.3345244,3.098097,12.052411
335,1435995495691,3.352481,2.8616695,13.25071
336,1435995495709,1.5622166,6.8091097,10.937312
337,1435995495730,6.5619082,11.306019,8.625112
338,1435995495750,8.449138,13.938444,8.556877
339,1435995495775,6.417658,14.7399025,7.2340803
340,1435995495816,-4.0904937,17.6321,-7.419631
341,1435995495817,-8.602965,19.608511,-12.088325
342,1435995495833,-7.3088994,12.779052,-11.580753
343,1435995495851,-8.846576,11.130644,-12.389396
344,1435995495867,-6.183026,9.395446,-17.71829
345,1435995495888,-0.49320555,7.577648,-19.608511
346,1435995495911,1.0408791,4.465186,-18.806454
347,1435995495929,-0.9792285,0.5069722,-14.909891
348,1435995495950,-3.3686419,-1.9237411,-15.212159
349,1435995495971,-5.005079,-4.935647,-13.239337
350,1435995495991,-3.7044287,-6.260239,-14.826094
351,1435995496012,-2.1751323,-2.7144263,-13.27944
352,1435995496029,1.6154876,12.170924,-3.915717
353,1435995496051,2.8491,17.714699,-3.345897
354,1435995496072,-5.9956794,-2.409764,-5.1265845
355,1435995496091,-8.593389,-7.234679,-9.08001
356,1435995496111,-6.081272,-1.6334441,-10.101735
357,1435995496132,-6.2542534,2.5737667,4.3795934
358,1435995496150,-0.5351041,19.608511,-19.560627
359,1435995496176,-4.6459484,12.938266,-9.3661175
360,1435995496192,-5.5910597,-18.975246,-19.360712
361,1435995496210,-19.284098,-1.4425066,-11.625047
362,1435995496231,1.5622166,6.202778,-15.808315
363,1435995496252,-7.644686,19.424757,-15.020623
364,1435995496270,-14.948797,15.927426,-15.355811
365,1435995496291,-7.9301944,10.465654,-5.9639564
366,1435995496311,-0.16759412,19.608511,-3.1010897
367,1435995496331,0.9331401,19.608511,-3.0621839
368,1435995496349,2.4785974,18.129494,0.25917232
369,1435995496372,2.920926,14.644733,5.1241903
370,1435995496389,0.55246204,10.585364,6.739678
371,1435995496409,-0.05207389,5.075109,9.4217825
372,1435995496438,2.3600843,2.6090813,11.978191
373,1435995496489,1.5131354,5.0254292,12.474389
374,1435995496490,5.2355204,9.36492,11.004948
375,1435995496491,9.020754,12.934674,9.719262
376,1435995496508,7.717709,14.775217,7.6363063
377,1435995496527,-1.388637,16.992249,-3.8510735
378,1435995496548,-7.234679,19.608511,-11.928512
379,1435995496572,-6.3446345,14.843452,-13.307571
380,1435995496590,-6.9425864,10.8385515,-13.681067
381,1435995496609,-5.9268465,9.928156,-17.687164
382,1435995496630,-0.78050977,7.9673047,-19.608511
383,1435995496652,1.0055647,5.205593,-19.424757
384,1435995496672,-1.8920178,1.0115502,-16.545729
385,1435995496690,-5.01286,-2.2840683,-14.656704
386,1435995496712,-7.1945763,-5.3486466,-15.351023
387,1435995496731,-3.4219127,-7.40766,-14.182054
388,1435995496750,-0.2088941,-5.5126495,-12.741343
389,1435995496772,1.1186907,4.829105,-1.7232267
390,1435995496793,6.88333,19.608511,-4.0252514
391,1435995496810,-5.015254,4.927267,-6.6175733
392,1435995496831,-14.041394,-8.325836,-10.655395
393,1435995496853,-7.97748,-3.0759506,-12.698247
394,1435995496870,-4.000711,-1.2797008,-6.6612678
395,1435995496892,-2.9412768,19.525911,-11.51192
396,1435995496914,-4.2700586,19.447502,-18.206707
397,1435995496930,-5.509058,-12.401366,-16.675615
398,1435995496951,-16.990452,-6.239888,-12.813169
399,1435995496971,-0.6512229,3.7493198,-15.184626
400,1435995496991,-7.371747,16.09502,-15.130756
401,1435995497021,-15.906478,19.376873,-15.82268
402,1435995497031,-9.215881,12.353482,-9.906608
403,1435995497050,0.7565677,14.085089,-2.1906946
404,1435995497069,1.785476,19.608511,-2.8293478
405,1435995497091,0.8038532,19.167978,-0.85413146
406,1435995497129,1.8848352,15.205575,4.445434
407,1435995497130,2.504335,12.248735,9.025542
408,1435995497149,2.9724014,6.4589577,13.169905
409,1435995497169,4.8069587,2.1188686,15.075689
410,1435995497189,0.93014735,4.2131963,13.095086
