id,attr_time,attr_x,attr_y,attr_z
1,1436466716609,-5.871181,7.7290816,-1.1611878
2,1436466716632,-5.8520274,7.6865845,-1.1480197
3,1436466716652,-5.9783216,7.735666,-1.1444284
4,1436466716670,-5.971139,7.6704235,-1.1180922
5,1436466716693,-5.9807158,7.6285253,-1.1067197
6,1436466716709,-5.9465985,7.603386,-1.086369
7,1436466716731,-5.9621606,7.61416,-1.1252748
8,1436466716750,-5.9747305,7.621941,-1.1079168
9,1436466716771,-5.9759274,7.6189485,-1.1091139
10,1436466716788,-5.9747305,7.5962033,-1.0971429
11,1436466716809,-5.9759274,7.6267295,-1.1426327
12,1436466716831,-5.981314,7.6321163,-1.1671734
13,1436466716884,-5.967548,7.6482773,-1.1504139
14,1436466716885,-5.9663506,7.629722,-1.1558008
15,1436466716888,-5.98311,7.6506715,-1.1534066
16,1436466716910,-5.9603653,7.6608467,-1.1755531
17,1436466716931,-5.945401,7.69257,-1.168969
18,1436466716959,-5.951387,7.697957,-1.2108675
19,1436466716970,-6.0405707,7.6746135,-1.1988965
20,1436466716991,-5.9867015,7.6201453,-1.1965023
21,1436466717009,-5.93343,7.52737,-1.1593921
22,1436466717031,-5.8478374,7.4693108,-1.1797429
23,1436466717052,-5.866991,7.5405383,-1.2378023
24,1436466717069,-6.321291,7.5207863,-1.1492168
25,1436466717091,-6.3769565,7.341221,-1.0444705
26,1436466717112,-6.5128274,7.1646485,-1.0378864
27,1436466717129,-6.6600704,6.950966,-1.0169371
28,1436466717152,-6.8468184,6.89171,-1.0031705
29,1436466717169,-7.1425023,7.026982,-1.0031705
30,1436466717190,-6.913856,7.0593038,-1.0857705
31,1436466717212,-6.746262,7.000047,-1.1210849
32,1436466717230,-6.75524,7.095815,-1.0809821
33,1436466717250,-6.872556,7.299921,-1.1282675
34,1436466717271,-6.7079544,7.465121,-1.1839328
35,1436466717289,-6.356007,7.381324,-1.1677719
36,1436466717310,-6.353613,7.349601,-1.122282
37,1436466717329,-6.3793507,7.2807674,-0.9768343
38,1436466717352,-6.1117983,7.2993226,-0.8595184
39,1436466717371,-5.804742,7.477092,-0.8714894
40,1436466717391,-5.801749,7.657854,-1.0043676
41,1436466717412,-5.763442,7.6722193,-1.1025299
42,1436466717431,-5.801151,7.7452426,-1.1420342
43,1436466717451,-5.559336,7.5704656,-1.1049241
44,1436466717470,-5.1170077,7.4226236,-1.0893618
45,1436466717492,-4.7387238,7.349601,-1.1300632
46,1436466717514,-4.540005,7.181408,-1.1492168
47,1436466717561,-4.107253,6.6870055,-0.9876082
48,1436466717562,-2.9586349,6.071097,-0.7044938
49,1436466717584,-1.3323733,5.6868277,-0.54887074
50,1436466717589,-0.11492168,5.4444146,-0.46926352
51,1436466717611,-0.15801731,5.29777,-0.39743748
52,1436466717631,-0.42556936,5.53719,-0.4141969
53,1436466717650,-0.89184016,6.5259953,-0.504578
54,1436466717669,-1.9746178,7.7308774,-0.55605334
55,1436466717695,-3.3087866,9.221268,-0.45848963
56,1436466717710,-3.6050692,10.858303,-0.7338228
57,1436466717735,-4.7614684,13.013683,-1.0378864
58,1436466717754,-5.9687448,14.805144,-1.441908
59,1436466717781,-7.515998,16.308704,-1.7980455
60,1436466717795,-9.782109,17.840393,-1.9063832
61,1436466717822,-12.224793,18.619108,-1.7262194
62,1436466717832,-14.277822,18.497602,-1.1953052
63,1436466717851,-15.42225,17.96609,-0.736217
64,1436466717930,-15.160085,16.24466,-0.7823054
65,1436466717931,-12.985552,13.84507,-1.0911574
66,1436466717932,-11.053431,11.343728,-1.3545196
67,1436466717933,-8.326435,8.599973,-1.2964603
68,1436466717950,-5.029021,5.641338,-0.96546185
69,1436466717969,-2.0925324,2.9526494,-0.635062
70,1436466717989,-0.06344634,0.7625532,-0.6512229
71,1436466718011,1.2000936,-1.0708067,-0.6548142
72,1436466718029,0.705691,-1.4544775,-0.3669114
73,1436466718051,-1.5580268,-0.05746084,-0.3866636
74,1436466718073,-2.0655975,0.75477207,-0.5363012
75,1436466718092,-1.122282,0.3878607,-0.5470751
76,1436466718113,0.58777654,-0.37828386,-0.43155485
77,1436466718131,1.903989,-0.682946,-0.28790274
78,1436466718152,1.8028339,-0.2633622,-0.19931729
79,1436466718171,1.4257472,0.5883751,-0.16400282
80,1436466718190,1.2018893,1.7609353,-0.29747957
81,1436466718211,-0.86011696,3.8642416,-0.38606504
82,1436466718231,-4.3317094,7.1275387,-0.45848963
83,1436466718250,-6.6804214,9.693524,-0.16759412
84,1436466718284,-8.929773,12.166735,0.41299978
85,1436466718290,-11.568783,13.515268,0.78649527
86,1436466718310,-12.369643,13.46918,1.163582
87,1436466718329,-14.599243,15.368381,1.1079168
88,1436466718353,-19.166782,17.756598,0.516549
89,1436466718370,-19.60911,18.714876,0.39564183
90,1436466718389,-19.05605,18.505383,0.6063316
91,1436466718411,-16.877924,17.52855,0.4345476
92,1436466718432,-14.735114,15.273809,0.61650693
93,1436466718453,-13.627197,12.174516,0.7182605
94,1436466718473,-11.894394,9.185355,0.6099229
95,1436466718491,-9.085397,6.3781533,0.5363012
96,1436466718514,-5.369596,3.7337575,0.4950012
97,1436466718534,-1.3413515,1.459266,0.18435353
98,1436466718558,2.3331497,-0.31902736,-0.092176765
99,1436466718570,3.0095115,-0.85772276,0.20530279
100,1436466718591,-1.2539631,0.45908818,0.46627077
101,1436466718610,-3.083732,1.5191209,0.25797522
102,1436466718631,-0.6027403,0.8912416,0.2645593
103,1436466718651,1.567005,-0.14664486,0.29448682
104,1436466718670,2.4241292,-0.6290765,0.30286652
105,1436466718692,2.0362685,-0.3788824,0.10115502
106,1436466718713,1.471237,0.338181,-0.107739076
107,1436466718734,1.5388732,1.0648212,-0.207697
108,1436466718753,1.9548657,1.5873557,-0.47105917
109,1436466718774,0.8882488,3.1184478,-0.6374562
110,1436466718792,-3.8564603,6.8881183,-0.82480246
111,1436466718813,-7.709928,9.780912,-1.0175357
112,1436466718834,-7.575853,12.77965,-0.64823014
113,1436466718854,-11.358691,13.925276,-0.13108255
114,1436466718874,-14.4130945,13.443442,-0.08678981
115,1436466718894,-18.775928,15.556326,-0.30705637
116,1436466718914,-19.60911,17.357365,-0.7206547
117,1436466718991,-19.60911,18.029535,-0.49200845
118,1436466718992,-19.60911,18.022951,-0.57760113
119,1436466718993,-19.054853,16.6822,-1.0923545
120,1436466718994,-15.873557,14.957775,-1.429937
121,1436466719014,-12.954427,11.581951,-1.192911
122,1436466719034,-9.129689,7.8966756,-0.62847793
123,1436466719051,-4.905121,3.887585,-0.11252748
124,1436466719071,-0.9091981,0.7068881,-0.002992752
125,1436466719105,2.6910827,-1.3084313,-0.17597382
126,1436466719111,4.2102036,-1.2054806,-0.037110128
127,1436466719131,0.26396075,1.1510124,-0.18974048
128,1436466719152,-1.9153614,1.6687586,-0.11372458
129,1436466719171,-0.15622166,0.7392098,-0.055066638
130,1436466719191,0.8038532,-0.10235212,0.08678981
131,1436466719211,1.0660183,-0.18555063,-0.044292733
132,1436466719235,1.2144588,-0.12928689,0.04189853
133,1436466719253,0.90261406,-0.107739076,0.11671733
134,1436466719274,0.557849,0.037708677,0.18555063
135,1436466719294,0.32321724,0.320823,0.23403321
136,1436466719314,0.5590461,1.009156,0.44472298
137,1436466719334,-1.1240777,3.1591492,0.62129533
138,1436466719354,-6.4326215,7.0491285,0.33758244
139,1436466719372,-11.891401,11.750143,-0.19572599
140,1436466719392,-15.448586,15.552734,-0.65301853
141,1436466719411,-18.261175,14.842255,0.2896984
142,1436466719434,-19.60911,16.09562,1.412579
143,1436466719454,-19.60911,17.179594,1.2557588
144,1436466719473,-19.60911,16.455946,0.83856916
145,1436466719494,-19.60911,15.828068,0.36511576
146,1436466719513,-19.53848,14.302961,-0.46327803
147,1436466719534,-14.25807,11.573571,-0.16220717
148,1436466719554,-8.701726,8.558673,0.23882163
149,1436466719575,-4.1479545,5.7466826,0.54647654
150,1436466719595,-0.6356605,3.1172507,0.41000703
151,1436466719615,3.019687,0.05925649,0.07182605
152,1436466719634,6.2351,-1.9620483,0.24660277
153,1436466719651,1.87047,0.108936176,0.64823014
154,1436466719719,-3.2052376,2.1140802,0.3537433
155,1436466719720,-1.6382325,1.9129672,0.09816227
156,1436466719721,1.5903485,0.38486794,0.047884032
157,1436466719731,2.7299886,-0.12150574,-0.11312603
158,1436466719756,2.2092497,0.3298013,-0.3417723
159,1436466719775,1.2413936,0.504578,-0.31304187
160,1436466719791,0.6937199,0.5506664,-0.25797522
161,1436466719815,0.45669398,0.56682724,-0.14065935
162,1436466719831,0.5650316,1.0001777,-0.032920275
163,1436466719856,-2.8269536,2.7934349,0.33039984
164,1436466719876,-8.789114,6.5864487,0.3345897
165,1436466719893,-13.472772,13.301586,0.1400608
166,1436466719911,-13.994109,17.465103,0.20111294
167,1436466719934,-16.035765,17.824234,1.0013748
168,1436466719955,-19.60911,19.236214,0.830788
169,1436466719975,-19.60911,19.559431,-0.090979666
170,1436466719995,-19.60911,18.173786,-0.04129998
171,1436466720015,-19.60911,17.547104,-1.1348516
172,1436466720034,-16.874334,14.796765,-1.620276
173,1436466720055,-9.761759,11.168951,-0.94690675
174,1436466720075,-4.701015,7.406463,-0.45848963
175,1436466720096,-1.5125369,4.076727,-0.108337626
176,1436466720112,1.2988545,1.4012065,-0.16340427
177,1436466720135,4.7961845,-0.961272,-0.46746787
178,1436466720155,5.015254,-0.9139865,-0.044292733
179,1436466720174,-1.0426749,1.2665327,-0.039504327
180,1436466720195,-2.6192567,1.7429788,-0.14604631
181,1436466720215,0.33997664,0.47105917,-0.29867667
182,1436466720233,1.7585411,-0.39504328,-0.219668
183,1436466720254,1.590947,-0.22924481,-0.3752911
184,1436466720275,1.3509283,-0.1340753,-0.39444473
185,1436466720296,0.8038532,-0.0053869537,-0.3705027
186,1436466720318,0.20111294,0.3333926,-0.18974048
187,1436466720335,-0.717662,1.0480618,-0.029927522
188,1436466720353,-2.0931308,2.4229321,0.3585317
189,1436466720374,-6.184223,6.287772,1.0402806
190,1436466720450,-13.578116,11.632229,0.0724246
191,1436466720452,-18.578407,15.438411,-0.44472298
192,1436466720453,-18.894442,17.799692,-0.6907272
193,1436466720454,-19.60911,19.0357,0.2801216
194,1436466720474,-19.60911,17.671602,1.1917139
195,1436466720496,-19.60911,15.565304,2.0165164
196,1436466720512,-19.60911,14.885949,0.23882163
197,1436466720540,-16.3512,12.561179,-1.5610195
198,1436466720565,-10.015544,9.003994,-1.6531962
199,1436466720573,-5.777209,6.2009826,-0.95827925
200,1436466720594,-3.2106245,3.383007,-0.6099229
201,1436466720613,1.0187328,0.12749124,-0.49440265
202,1436466720637,4.955399,-2.2272062,-0.35553896
203,1436466720653,1.6771383,-1.0953473,-0.1400608
204,1436466720676,-4.033033,1.4508862,-0.3681085
205,1436466720696,-3.4739866,1.3652935,-0.50637364
206,1436466720716,0.8487445,-0.54168814,-0.2621651
207,1436466720736,2.5995045,-1.2749124,0.020949265
208,1436466720755,2.4708161,-0.44532153,-0.12389994
209,1436466720776,1.7621324,0.45429978,-0.45609543
210,1436466720796,1.6089035,0.76075757,-0.6739678
211,1436466720816,1.7064673,1.2294226,-0.9295488
212,1436466720834,1.2455834,2.7257986,-1.0947487
213,1436466720854,-2.8275523,6.215946,-0.65660983
214,1436466720876,-9.32362,8.957906,-0.5494693
215,1436466720892,-12.542624,11.583148,-0.32621
216,1436466720914,-17.744625,18.464682,0.24540567
217,1436466720936,-19.60911,15.425243,-0.012569559
218,1436466720953,-19.60911,15.503654,2.5025394
219,1436466720978,-19.60911,16.284163,1.2030864
220,1436466720998,-19.60911,14.372992,0.36870706
221,1436466721016,-19.375675,12.962208,-0.5650316
222,1436466721033,-14.029424,10.04607,-1.4000094
223,1436466721052,-8.039131,7.141904,-1.0378864
224,1436466721075,-4.931457,4.2838254,-0.26156655
225,1436466721102,-3.276465,1.4574703,0.051475335
226,1436466721175,-0.27712885,-1.2030864,0.055066638
227,1436466721176,3.6493618,-2.6797101,-0.15263036
228,1436466721177,1.1905168,-0.02873042,-0.05865794
229,1436466721178,-3.1591492,1.6897079,-0.44472298
230,1436466721194,-0.7685388,0.7685388,-0.5422867
231,1436466721215,1.5113398,-0.038307227,-0.516549
232,1436466721244,1.0384849,0.39983168,-0.58777654
233,1436466721260,1.471237,0.59615624,-0.9840169
234,1436466721273,1.7597382,0.5710171,-1.1468226
235,1436466721296,1.4628572,0.9995792,-1.1540052
236,1436466721320,1.2366052,1.702876,-1.103727
237,1436466721334,-0.019153614,2.670732,-0.88645315
238,1436466721356,-4.395156,5.003283,0.09995792
239,1436466721373,-11.137826,7.9170265,0.973243
240,1436466721393,-16.573263,11.087548,1.1444284
241,1436466721415,-15.945982,15.509639,0.6075287
242,1436466721436,-17.52376,19.206884,-0.55126494
243,1436466721456,-19.60911,19.608511,-1.7052702
244,1436466721476,-19.60911,19.608511,-1.8590976
245,1436466721496,-17.512987,19.145233,-0.83258367
246,1436466721516,-16.306908,16.655264,-1.2030864
247,1436466721536,-13.825916,12.459426,-1.2707225
248,1436466721556,-9.099762,9.360131,-1.0977415
249,1436466721574,-6.333262,6.535572,-0.8230068
250,1436466721597,-2.9454668,3.493739,-0.51116204
251,1436466721616,1.5640123,0.18315643,-0.32800564
252,1436466721636,4.9015293,-2.328361,-0.061052144
253,1436466721656,1.2808979,-1.1186907,0.3752911
254,1436466721674,-3.793014,1.2108675,0.43993455
255,1436466721696,-1.6765398,0.56203884,0.36391866
256,1436466721716,1.4634558,-1.0193313,0.6374562
257,1436466721737,1.3257892,-1.0684125,0.58777654
258,1436466721757,1.2000936,-0.29209262,0.2908955
259,1436466721775,1.5747862,0.0664391,0.0011971008
260,1436466721797,1.5807717,0.32441434,-0.2657564
261,1436466721814,1.2773066,0.9103952,-0.55006784
262,1436466721843,1.4269443,1.7597382,-0.8391677
263,1436466721897,0.27473465,3.7989995,-0.84694886
264,1436466721898,-4.820725,7.441777,-0.7649474
265,1436466721899,-10.498574,10.9187565,-1.0684125
266,1436466721921,-12.810775,14.440029,-1.1324574
267,1436466721935,-15.308526,15.524602,-0.6374562
268,1436466721953,-19.408596,16.804304,-0.013766659
269,1436466721976,-19.60911,18.04031,-1.0522517
270,1436466721994,-19.60911,18.15583,-1.6238673
271,1436466722016,-19.60911,16.94556,-1.8405426
272,1436466722034,-19.60911,15.452776,-2.295441
273,1436466722054,-15.051149,12.52766,-2.2876596
274,1436466722075,-8.579621,9.60853,-2.0949266
275,1436466722094,-5.254674,6.3607955,-1.6112977
276,1436466722114,-1.8884265,2.6204538,-0.7212533
277,1436466722137,2.8694508,-0.8242039,-0.22445641
278,1436466722157,5.917868,-2.4893713,-0.05686229
279,1436466722177,1.168969,0.64703304,-0.21787235
280,1436466722198,-3.1435869,3.5793316,-1.0414777
281,1436466722217,-0.92655605,2.9029696,-1.0336965
282,1436466722237,2.5145104,0.5141548,-0.55006784
283,1436466722257,3.1196449,-0.31483752,-0.0796072
284,1436466722277,1.5454572,0.2136825,-0.22625206
285,1436466722298,0.83258367,0.41000703,-0.3333926
286,1436466722314,0.87687635,0.3597288,-0.30526072
287,1436466722337,0.7314286,0.82719666,-0.29209262
288,1436466722355,0.3657143,1.2156559,-0.20171149
289,1436466722375,0.034715924,2.5342624,0.14065935
290,1436466722395,-3.6254199,6.3470287,0.17657238
291,1436466722418,-9.054273,10.022128,-0.32920274
292,1436466722439,-13.193249,13.910911,-0.729633
293,1436466722459,-17.252018,16.639103,-0.6560113
294,1436466722477,-17.98704,17.108366,-0.3465607
295,1436466722495,-19.60911,19.608511,-0.62488663
296,1436466722516,-19.60911,19.223644,-0.80804306
297,1436466722536,-19.60911,17.489643,-0.18375498
298,1436466722556,-19.543869,15.519814,-0.8367735
299,1436466722578,-14.575301,12.097901,-1.2186487
300,1436466722627,-9.117719,8.424597,-0.97264445
301,1436466722628,-5.566519,4.84347,-0.46208093
302,1436466722639,-1.7513585,1.632247,-0.24959552
303,1436466722655,2.5582044,-1.2868834,-0.25977087
304,1436466722675,4.7381253,-2.6168625,-0.25079262
305,1436466722697,-0.8415619,0.2741361,-0.22625206
306,1436466722714,-4.435259,2.0566192,-0.729633
307,1436466722738,-1.3754689,0.8774749,-0.42556936
308,1436466722755,1.5705963,-0.41838676,0.11312603
309,1436466722774,2.1996727,-0.31364042,0.31124622
310,1436466722798,2.160767,0.1388637,0.17477672
311,1436466722814,1.846528,0.44113165,0.18076223
312,1436466722838,1.6502035,0.7044938,0.092176765
313,1436466722858,1.7597382,1.0283096,-0.045489833
314,1436466722878,2.1284454,1.435324,-0.06823475
315,1436466722899,0.6488287,3.709217,0.1412579
316,1436466722918,-4.745308,8.312668,0.11192893
317,1436466722938,-8.995016,11.370663,-0.7356185
318,1436466722958,-11.705851,14.035409,-0.8379706
319,1436466722978,-15.619173,15.618575,-0.57760113
320,1436466722998,-19.512743,18.270752,-0.061650693
321,1436466723019,-19.60911,19.608511,-0.28491
322,1436466723039,-19.60911,19.608511,-0.48482585
323,1436466723054,-19.60911,18.389864,-0.1364695
324,1436466723078,-18.72146,15.786767,-0.44472298
325,1436466723098,-15.897499,11.930905,-0.08319851
326,1436466723118,-11.573571,8.441357,0.35194764
327,1436466723138,-6.8162923,4.8255134,0.39324763
328,1436466723158,-1.8255788,1.7896658,0.36152446
329,1436466723178,2.5839422,-1.062427,0.30945057
330,1436466723198,5.161899,-2.235586,0.65780693
331,1436466723216,0.33399114,0.7679402,0.7930793
332,1436466723238,-3.2890346,2.7515364,0.10235212
333,1436466723258,-0.3866636,1.7405846,0.2873042
334,1436466723279,2.007538,0.39025488,0.25498247
335,1436466723299,2.3020248,0.5674258,0.15502456
336,1436466723321,1.9925743,1.0127473,-0.15143326
337,1436466723390,1.6956934,1.0660183,-0.1388637
338,1436466724973,1.5765818,1.0773908,-0.08678981
339,1436466724974,1.5292963,0.98341835,0.13467385
340,1436466724975,1.8806454,1.2922704,0.28191724
341,1436466724976,1.7609353,2.5983074,0.2645593
342,1436466724977,-2.9801826,5.9561753,0.55126494
343,1436466724978,-9.369708,9.710882,0.11133038
344,1436466724979,-11.791444,13.779828,-0.81283146
345,1436466724980,-12.855067,16.65287,-1.9405005
346,1436466724981,-15.83525,18.481441,-0.9696517
347,1436466724982,-19.60911,19.608511,-0.38726214
348,1436466724983,-19.60911,19.608511,0.9487024
349,1436466724984,-19.60911,18.270752,1.2270284
350,1436466724985,-19.60911,16.447567,0.48003745
351,1436466724986,-16.899473,12.622829,-0.5734113
352,1436466724987,-11.830948,8.2593975,-0.91697925
353,1436466724988,-6.9623384,5.0745106,-1.3042414
354,1436466724989,-3.301604,2.392406,-1.3509283
355,1436466724990,0.20530279,-0.31304187,-1.5424645
356,1436466724991,3.9653966,-1.8549078,-1.4526819
357,1436466724992,2.0883424,0.25258827,-1.3754689
358,1436466724993,-3.0190883,2.3469162,-1.4413095
359,1436466724994,-1.3545196,2.0578163,-0.94211835
360,1436466724995,2.5911248,-0.002992752,-0.74878657
361,1436466724996,2.980781,-0.9223662,-0.38307226
362,1436466724997,1.0516531,-0.18974048,-0.6171055
363,1436466724998,0.18136078,0.22565351,-0.56982
364,1436466724999,0.28909984,-0.094570965,-0.42676646
365,1436466725000,0.492607,0.25019407,-0.22625206
366,1436466725001,1.110311,0.99419224,-0.36990416
367,1436466725002,2.2170308,1.6825253,-0.7092823
368,1436466725003,0.8750807,4.203021,-0.676362
369,1436466725004,-4.8428717,9.481637,-1.2348095
370,1436466725005,-11.996746,12.838308,-2.083554
371,1436466725006,-14.6680765,13.377004,-1.9710265
372,1436466725007,-18.7047,16.261417,-0.79846627
373,1436466725008,-19.60911,18.673576,-0.42197806
374,1436466725009,-19.60911,17.111359,-0.11671733
375,1436466725010,-19.60911,15.7586355,0.29628247
376,1436466725011,-19.60911,15.046959,-0.37828386
377,1436466725012,-19.224243,13.585897,-1.3221979
378,1436466725013,-11.274895,9.528923,-1.2491747
379,1436466725014,-3.8576574,6.703166,-0.97982705
380,1436466725015,-1.882441,3.9474401,-0.6793547
381,1436466725016,-0.3645172,1.0767922,-0.22026655
382,1436466725017,3.4620156,-1.4670471,-0.1328782
383,1436466725018,4.213795,-1.3108255,0.45729253
384,1436466725019,-1.4718355,1.5131354,-0.29149407
385,1436466725020,-3.0304608,2.7084408,-0.46208093
386,1436466725021,0.027533319,1.3491327,-0.4782418
387,1436466725022,1.9506758,0.0688333,-0.16101007
388,1436466725023,2.1470003,0.23463176,-0.23044191
389,1436466725024,1.4622587,0.58119243,-0.34596214
390,1436466725025,1.6795325,0.4417302,-0.26994625
391,1436466725026,2.0380642,0.62009823,-0.23223756
392,1436466725027,1.3239936,1.496376,-0.1436521
393,1436466725028,-1.5831659,3.5458126,0.3309984
394,1436466725029,-6.8168907,7.143699,0.3645172
395,1436466725030,-10.890625,10.751761,0.11671733
396,1436466725031,-13.035232,14.053366,0.0017956513
397,1436466725032,-16.902466,15.707759,-0.12210429
398,1436466725033,-19.60911,18.289906,-0.18734628
399,1436466725034,-19.60911,19.608511,-0.6739678
400,1436466725035,-19.60911,18.968063,0.39863458
401,1436466725036,-19.542072,17.238852,1.2557588
402,1436466725037,-17.826628,14.759655,0.11971009
403,1436466725038,-13.186066,10.8385515,-0.44472298
404,1436466725039,-7.835025,7.4046674,-0.64823014
