id,attr_time,attr_x,attr_y,attr_z
1,1436466716603,19.48102,0.81522566,7.390302
2,1436466716623,19.607914,-3.0897174,6.0160303
3,1436466716644,19.607914,-3.8115692,2.8856115
4,1436466716663,19.607914,-0.8607155,0.7469909
5,1436466716684,14.954184,0.9923966,0.58657944
6,1436466716706,10.553042,1.4927847,-0.15741876
7,1436466716723,6.8773446,0.830788,-1.8662802
8,1436466716744,3.0897174,-0.58897364,-1.3072342
9,1436466716766,-2.4959552,-2.1039047,1.2862848
10,1436466716786,-5.5102553,-2.2230163,1.2922704
11,1436466716806,-7.996035,-0.45370123,-1.9656396
12,1436466716825,-4.7746367,1.6885108,-1.9961656
13,1436466716846,0.053869538,2.307412,-0.37708676
14,1436466716866,3.8013937,1.7998412,0.3513491
15,1436466716886,5.245696,0.4997896,-0.094570965
16,1436466716906,4.3418846,-0.694917,-0.14844051
17,1436466716926,1.3742718,-1.0295067,-0.17776948
18,1436466716944,-2.3355439,-0.6356605,-0.4321534
19,1436466716966,-4.132392,0.06823475,-0.6751649
20,1436466716983,-2.7665,0.25139117,-0.7691373
21,1436466717003,2.1811178,0.3286042,-0.5506664
22,1436466717023,9.895834,1.0444705,0.7410054
23,1436466717048,18.443733,2.5067291,4.787805
24,1436466717068,19.607914,1.7208325,0.96785605
25,1436466717089,19.607914,0.219668,-3.8127663
26,1436466717106,19.607914,-1.3479356,-1.7124528
27,1436466717124,19.607914,-1.525705,2.6144683
28,1436466717144,19.572,0.15382746,6.4481835
29,1436466717163,19.593548,0.56802434,8.301894
30,1436466717184,19.607914,-1.5059528,6.254852
31,1436466717209,19.607914,-0.48362875,1.2084733
32,1436466717264,19.55165,0.7368156,-1.4107834
33,1436466717265,13.846267,0.7152678,-1.9267339
34,1436466717266,8.359355,0.91697925,-1.477821
35,1436466717285,4.080917,0.47046062,-0.8391677
36,1436466717303,-1.364695,-1.429937,0.7320272
37,1436466717324,-8.101978,-2.834735,1.0402806
38,1436466717343,-8.158242,-1.5777789,-2.3415294
39,1436466717363,-2.7820623,1.5245079,-2.8419175
40,1436466717384,-0.3776853,2.4468741,-1.8261774
41,1436466717405,4.0414124,3.3315318,0.5279215
42,1436466717425,6.413468,2.4660277,1.7950528
43,1436466717443,5.2983685,-0.04369418,1.946486
44,1436466717466,1.8189948,-2.0697873,0.34715924
45,1436466717483,-2.2319946,-2.3517046,-1.6867151
46,1436466717505,-4.485537,-0.82360536,-3.0843303
47,1436466717524,-4.6800656,0.8218097,-2.9149406
48,1436466717547,-1.3263878,1.6310499,-1.0253168
49,1436466717566,5.097255,1.9734207,1.484405
50,1436466717586,14.366407,1.6496049,4.032434
51,1436466717606,19.607914,0.415394,2.2589293
52,1436466717624,19.607914,-1.0462662,-4.091092
53,1436466717647,19.607914,0.7685388,2.1296425
54,1436466717667,19.607914,0.58298814,5.9890957
55,1436466717684,19.607914,0.59615624,7.1849995
56,1436466717707,19.607914,-2.6868927,9.237429
57,1436466717725,19.607914,-4.5681367,7.577648
58,1436466717743,19.607914,-1.661576,2.3876176
59,1436466717763,14.904504,0.7529764,0.35314476
60,1436466717789,7.881712,1.0540473,-1.6466122
61,1436466717809,2.8975825,0.51834464,-3.4703953
62,1436466717830,0.97982705,0.39983168,-2.27928
63,1436466717847,-3.0825348,-0.17058687,2.2331917
64,1436466717865,-6.7965403,-0.88765025,2.1511903
65,1436466717885,-4.2862196,0.36032736,-1.050456
66,1436466717904,-0.6398504,1.1965023,-1.638831
67,1436466717925,3.3919852,1.8297687,0.020350715
68,1436466717990,5.3761797,1.7304093,1.2114661
69,1436466718001,3.7068229,0.55844754,0.95109665
70,1436466718004,2.1936872,-0.18914193,0.40641573
71,1436466718005,-0.8996213,-1.01574,-0.8619126
72,1436466718024,-3.0813377,-0.98700964,-1.9135658
73,1436466718044,-3.8133647,-0.4369418,-2.2218192
74,1436466718064,-1.9955671,0.110133275,-0.9451111
75,1436466718084,2.8604724,0.260968,1.2090719
76,1436466718107,11.319786,0.19093758,5.1559134
77,1436466718124,19.607914,0.24839842,6.3889275
78,1436466718144,19.607914,-0.36152446,-5.295376
79,1436466718165,19.607914,4.176685,0.13706805
80,1436466718185,19.607914,1.401805,5.8532248
81,1436466718205,19.607914,-1.4772224,9.385271
82,1436466718227,19.607914,-5.3713913,9.949105
83,1436466718248,19.607914,-3.8468835,4.775235
84,1436466718267,19.140446,0.12090719,-0.56203884
85,1436466718288,15.242086,1.7034745,-1.252766
86,1436466718307,7.964312,3.4051533,-0.91937345
87,1436466718327,2.7790697,2.0207062,-1.2348095
88,1436466718347,0.05746084,-0.521936,-1.5149311
89,1436466718367,-2.5121162,-2.3983915,0.85473
90,1436466718388,-5.341464,-2.5689783,1.7938557
91,1436466718405,-2.9203274,-0.014963761,-0.7906851
92,1436466718426,-0.5554548,1.9524715,-1.7998412
93,1436466718448,2.1625626,2.211644,0.25677812
94,1436466718465,4.0701427,1.4065934,1.4317327
95,1436466718486,3.1495724,-0.05925649,1.1228806
96,1436466718506,0.7745243,-1.0642227,-0.2896984
97,1436466718527,-1.2587515,-0.7068881,-1.3611037
98,1436466718549,-2.124854,0.36870706,-1.6681601
99,1436466718567,-2.0213048,0.9708488,-0.4997896
100,1436466718588,-0.9235633,1.2467805,0.46028528
101,1436466718607,4.004901,-0.079008654,2.2284033
102,1436466718625,13.95221,-1.1426327,5.437232
103,1436466718646,19.607914,-1.5502456,4.9422307
104,1436466718665,19.607914,-0.18315643,-3.3506854
105,1436466718686,19.607914,4.256891,4.55856
106,1436466718734,19.607914,2.9161377,8.002619
107,1436466718735,19.607914,-3.4955344,11.920731
108,1436466718754,19.607914,-6.891111,9.097368
109,1436466718764,19.132067,-3.5913026,3.098097
110,1436466718788,10.388441,0.011372458,-0.13946225
111,1436466718805,3.7894228,2.1260512,-2.622848
112,1436466718824,0.30585927,2.022502,-4.1174283
113,1436466718846,-2.1057005,1.4550761,-1.2270284
114,1436466718866,-5.298967,-1.2593501,1.8614918
115,1436466718885,-6.47033,-2.4839842,1.7280151
116,1436466718917,-3.793014,-1.3012487,-1.5837644
117,1436466718928,-0.40102878,0.005985504,-1.638831
118,1436466718946,3.539827,0.90381116,0.61052144
119,1436466718965,5.0661306,0.86849666,1.3880384
120,1436466718987,3.34051,0.26755205,1.0594343
121,1436466719008,0.4141969,-0.21188685,-0.5291186
122,1436466719028,-1.1941081,-0.030526072,-1.9806033
123,1436466719048,-1.7405846,0.11492168,-1.4634558
124,1436466719066,-0.45968673,0.37110126,0.036511578
125,1436466719088,4.198831,1.1348516,2.1332338
126,1436466719108,11.977592,1.2904748,5.8963203
127,1436466719128,19.607914,-0.6769605,4.602853
128,1436466719146,19.607914,0.60812724,-6.4457893
129,1436466719166,19.607914,2.7964275,5.443816
130,1436466719187,19.607914,3.858256,8.763975
131,1436466719207,16.992847,-4.2179847,12.50731
132,1436466719228,19.607914,-4.128801,10.09575
133,1436466719247,19.607914,-6.091448,5.2139726
134,1436466719267,19.439121,-1.2545617,-2.7401638
135,1436466719288,12.181698,3.1495724,-3.5703533
136,1436466719307,5.133168,4.4538136,-4.123414
137,1436466719328,1.8303672,2.4720132,-3.484162
138,1436466719347,-0.33997664,-0.8098387,-0.4782418
139,1436466719368,-4.988918,-3.5996823,3.0478187
140,1436466719386,-5.5725045,-1.6747441,1.6675615
141,1436466719412,-3.4219127,0.6572084,-1.4030021
142,1436466719461,0.28909984,1.1695676,-1.4760253
143,1436466719462,4.1359835,1.134253,-0.10055647
144,1436466719471,5.3420625,0.4441244,1.1504139
145,1436466719486,4.980538,-0.20051439,1.3814543
146,1436466719505,3.0214825,-1.4275428,0.80205756
147,1436466719528,-0.22864626,-1.8620903,-0.52852005
148,1436466719546,-3.5637693,-1.1079168,-1.5729905
149,1436466719565,-3.4662056,0.092775315,-1.4921862
150,1436466719587,1.5729905,1.30484,1.2384008
151,1436466719605,10.87207,0.94451255,5.7945666
152,1436466719629,19.607914,-0.43634325,9.040505
153,1436466719649,19.607914,-0.078410104,-4.421492
154,1436466719666,19.607914,3.1908724,0.6135142
155,1436466719688,19.447502,-2.2457612,7.521983
156,1436466719705,19.607914,-3.3375173,10.070611
157,1436466719728,19.607914,-5.5988407,8.866926
158,1436466719746,19.607914,-3.3291376,1.8830396
159,1436466719767,15.825673,-0.7703344,-0.87448215
160,1436466719788,12.021885,3.9480386,-1.1073183
161,1436466719807,6.1477113,4.308366,-1.4227544
162,1436466719829,2.168548,1.1641805,-3.0538042
163,1436466719849,-1.2862848,-2.7042508,-2.31639
164,1436466719867,-5.7682304,-4.731541,0.8924387
165,1436466719891,-6.0920463,-2.0560207,1.4317327
166,1436466719913,-3.537433,1.4784195,-0.6919243
167,1436466719932,0.110133275,2.9879637,-1.6071079
168,1436466719948,3.6780925,3.1669302,-0.41958386
169,1436466719970,5.0996494,1.6358383,0.5291186
170,1436466719989,4.613028,-0.39803603,0.9091981
171,1436466720216,1.9153614,-1.9363106,-0.15023616
172,1436466720217,-1.4425066,-1.9644425,-1.3186066
173,1436466720218,-3.6643257,-0.7846996,-1.721431
174,1436466720219,-3.435081,-0.207697,-0.7170634
175,1436466720220,-1.9536686,0.5805939,-0.3597288
176,1436466720221,4.335301,1.0588357,1.0516531
177,1436466720222,14.025233,1.0229226,4.3329067
178,1436466720223,19.607914,0.9032126,5.8095303
179,1436466720224,19.607914,1.7244238,-7.9810715
180,1436466720225,19.607914,2.8532898,0.36272156
181,1436466720226,19.607914,1.0073603,3.3129766
182,1436466720255,19.607914,-0.85173726,8.246229
183,1436466720256,19.607914,-6.193201,9.38168
184,1436466720266,19.607914,-7.454347,3.0125043
185,1436466720286,18.36233,-1.4808137,-1.4377182
186,1436466720306,12.426505,4.043208,-2.7605145
187,1436466720326,5.916671,4.619014,-2.135628
188,1436466720346,0.65301853,2.2577322,-0.047285482
189,1436466720366,-4.462792,0.9223662,1.9153614
190,1436466720386,-6.8623805,-2.0961237,1.6585833
191,1436466720406,-7.016208,-2.7323828,-1.3245921
192,1436466720427,-3.4045548,-0.6332663,-2.333748
193,1436466720448,0.1436521,0.30765492,-0.24061728
194,1436466720467,4.299388,1.4371196,0.87089086
195,1436466720486,5.1397524,1.18094,1.4209588
196,1436466720506,3.5063083,-0.29388827,0.59735334
197,1436466720526,1.027711,-1.5101427,-0.45310268
198,1436466720546,-1.3736732,-1.2791022,-0.9804256
199,1436466720566,-2.96881,-0.2717419,-1.3018472
200,1436466720585,-2.8203697,0.89782566,-0.65182143
201,1436466720605,0.17657238,1.5849615,-0.015562311
202,1436466720625,6.3949127,0.074220255,0.8571242
203,1436466720645,16.356588,-0.077811554,5.2840033
204,1436466720665,19.607914,-0.3333926,4.209605
205,1436466720685,19.607914,-3.2315738,-5.4384294
206,1436466720707,19.607914,1.1725603,2.055422
207,1436466720726,19.607914,2.373851,4.75668
208,1436466720745,19.607914,-0.23642741,8.7532015
209,1436466720770,19.607914,-1.8920178,8.052299
210,1436466720790,19.607914,-4.1120415,1.8303672
211,1436466720806,18.664,-1.8854338,-2.034473
212,1436466720827,11.995549,0.91099375,-2.468422
213,1436466720846,5.1810527,1.7202339,-2.2002714
214,1436466720868,0.14724341,1.074398,-1.2605472
215,1436466720898,-4.807557,-0.7272388,0.56443304
216,1436466720906,-8.12592,-2.1045034,0.40402153
217,1436466720927,-5.112818,-1.1288661,-0.9139865
218,1436466720946,-0.86490536,0.41479546,-1.1474211
219,1436466720967,1.0390835,0.961272,-0.29209262
220,1436466720988,4.4035354,1.8836381,0.31663316
221,1436466721006,5.0182467,1.6142905,1.1731589
222,1436466721028,3.7481227,0.19931729,0.6362591
223,1436466721050,1.4107834,-1.1414356,-0.5506664
224,1436466721070,-1.4449008,-1.4957775,-1.5717934
225,1436466721090,-3.6020765,-0.81522566,-1.9093759
226,1436466721107,-3.663727,0.717662,-1.2030864
227,1436466721129,-0.12090719,1.7316064,-0.8948329
228,1436466721150,7.3657618,1.8830396,-0.26994625
229,1436466721170,17.93676,2.144606,4.3873744
230,1436466721189,19.607914,-0.3800795,1.7585411
231,1436466721206,19.607914,-2.2750902,-4.0318356
232,1436466721226,19.607914,-1.06123,3.4680011
233,1436466721246,19.607914,0.985214,5.54557
234,1436466721268,19.607914,1.797447,6.7827735
235,1436466721288,19.607914,-1.0923545,7.575853
236,1436466721307,19.607914,-3.3063924,0.6476316
237,1436466721328,19.607914,-1.9393034,-3.0705638
238,1436466721347,12.890981,-0.41000703,-2.5031378
239,1436466721369,4.1413703,-0.2765303,-1.99437
240,1436466721387,-1.4335283,-0.10175357,-1.3192052
241,1436466721408,-4.6537294,0.05566519,0.8170213
242,1436466721428,-7.401076,0.09876082,1.1965023
243,1436466721448,-4.420295,0.27712885,-1.6358383
244,1436466721470,-0.4333505,0.6667852,-1.3162124
245,1436466721487,2.8921957,1.1875241,0.15382746
246,1436466721520,4.7459064,1.2252327,1.1438298
247,1436466721535,4.2880154,0.13227965,1.2036849
248,1436466721548,2.2583308,-0.830788,0.44113165
249,1436466721566,0.84575176,-0.9840169,-0.130484
250,1436466721590,-1.7202339,-0.557849,-1.0259154
251,1436466721607,-3.0974984,0.34356794,-1.2078748
252,1436466721628,-2.5737667,0.92895025,-0.16340427
253,1436466721652,-0.19273324,0.51116204,-0.19033903
254,1436466721668,5.4102974,-0.33758244,-0.076015905
255,1436466721688,13.463793,-0.6512229,2.7383683
256,1436466721712,19.607914,-1.4209588,5.522825
257,1436466721727,19.607914,-1.5951369,-6.319495
258,1436466721748,19.607914,4.324527,1.4867992
259,1436466721767,19.607914,-2.1918917,3.6984432
260,1436466721790,19.607914,1.4257472,9.960478
261,1436466721808,19.607914,-1.4652514,9.751583
262,1436466721829,19.607914,-3.8193502,1.2204443
263,1436466721851,19.421764,-1.8273745,-2.385822
264,1436466721869,16.740856,-0.75477207,-2.9400797
265,1436466721889,8.921394,-0.016759412,-3.2237926
266,1436466721907,2.3415294,-0.65660983,-2.255338
267,1436466721929,-2.979584,-0.7404069,0.88286185
268,1436466721948,-7.9355817,-1.1133038,1.9794062
269,1436466721968,-6.9425864,-0.83497787,-2.332551
270,1436466721987,-2.858677,0.55844754,-2.618658
271,1436466722009,0.66379243,1.2623428,-0.4429273
272,1436466722029,4.140772,1.941099,0.8900445
273,1436466722050,4.917092,1.1935096,1.6011224
274,1436466722071,3.436278,-0.089782566,0.8463503
275,1436466722088,0.729633,-0.8738836,-0.7691373
276,1436466722108,-1.5622166,-0.7020996,-1.4790181
277,1436466722127,-2.5570073,-0.29388827,-1.0474633
278,1436466722151,-2.0853498,0.109534726,-0.22864626
279,1436466722171,-1.2108675,0.23283611,0.4950012
280,1436466722241,1.9099745,0.16579847,0.919972
281,1436466722242,8.010401,-0.7404069,2.7964275
282,1436466722243,16.547525,-0.908001,5.109825
283,1436466722252,19.607914,-2.0219033,3.5356374
284,1436466722268,19.607914,5.583877,-5.3139305
285,1436466722289,19.607914,7.015011,2.6862943
286,1436466722308,19.58457,-0.374094,6.1848216
287,1436466722328,19.607914,-3.5482068,9.911995
288,1436466722349,19.607914,-8.26239,6.7803793
289,1436466722370,19.343353,-3.8325183,0.85054016
290,1436466722390,12.750919,1.8734628,-2.2601264
291,1436466722409,6.435614,4.630386,-3.767875
292,1436466722428,1.6705543,3.9079356,-3.5883098
293,1436466722450,-2.043451,1.1641805,-1.6950948
294,1436466722468,-4.1305966,-0.96187055,0.42676646
295,1436466722492,-5.8454432,-4.482544,2.3373394
296,1436466722510,-2.96881,-3.020884,1.483208
297,1436466722529,-0.3298013,-0.030526072,0.023942016
298,1436466722550,2.132635,1.447295,-0.4985925
299,1436466722570,3.9306808,1.9818004,-0.30645782
300,1436466722592,3.5290532,1.4580688,-0.15203181
301,1436466722610,2.136825,0.39743748,-0.6715736
302,1436466722631,-0.061650693,-0.27473465,-1.0564415
303,1436466722649,-2.469619,-0.6087258,-0.919972
304,1436466722671,-2.7383683,-0.47524905,-0.8295909
305,1436466722694,0.94690675,-0.36032736,-0.48841715
306,1436466722713,8.826823,0.11133038,1.857302
307,1436466722734,19.498978,0.7080852,9.969456
308,1436466722750,19.607914,-0.58418524,-1.8662802
309,1436466722768,19.607914,1.1773487,-4.518457
310,1436466722789,19.607914,5.225345,5.3438582
311,1436466722809,19.607914,-3.549404,8.271368
312,1436466722835,19.607914,-2.3505075,9.129689
313,1436466722853,19.607914,-3.3333273,6.579865
314,1436466722873,19.607914,-1.6831238,-0.39384618
315,1436466722892,15.932814,1.1139023,-2.392406
316,1436466722912,9.583391,2.259528,-1.7298107
317,1436466722975,3.4913447,1.0929531,-1.1426327
318,1436466722985,-0.97025025,-0.41718966,-1.0941502
319,1436466722987,-5.6539073,-2.4366987,-0.005985504
320,1436466722989,-7.7973166,-2.272696,0.22505496
321,1436466723009,-4.1222167,-0.20111294,-0.7374141
322,1436466723031,-0.15382746,1.3006501,-1.1270704
323,1436466723048,3.705027,2.1817162,-0.39324763
324,1436466723073,4.9961004,2.3116016,0.12150574
325,1436466723089,5.3079453,1.6280571,1.0390835
326,1436466723110,3.7433343,0.19153613,0.9020155
327,1436466723130,0.830788,-1.0821792,-0.17896658
328,1436466723150,-2.2631192,-1.5759833,-1.3239936
329,1436466723175,-3.9360676,-1.1468226,-1.5071499
330,1436466723193,-2.5312698,0.17357962,-1.0516531
331,1436466723212,2.9011738,0.95468795,-0.33638534
332,1436466723232,11.438298,0.13108255,2.5246856
333,1436466723251,19.607914,-0.12928689,8.009802
334,1436466723272,19.607914,-3.1184478,-5.3528366
335,1436466723292,19.607914,1.7052702,-0.4441244
336,1436466723312,18.377295,-2.4037786,2.4438813
337,1436466723332,19.607914,-1.5699978,9.381081
338,1436466723349,19.607914,-0.6027403,7.724293
339,1436466723370,19.607914,-1.3395559,6.9808936
340,1436466723390,19.607914,-3.6469676,2.3529017
341,1436466723413,18.551472,-2.1619642,-1.7459716
342,1436466723429,12.313978,1.3311762,-2.1200657
343,1436466723453,6.9796963,3.3770216,-0.7026982
344,1436466723469,2.9939492,2.4791958,-1.0708067
345,1436466723492,0.44113165,0.19273324,-0.2705448
346,1436466723513,-3.5553896,-2.8634653,1.8962077
347,1436466723532,-5.33907,-3.3848026,1.4808137
348,1436466723554,-2.508525,-1.6567876,-1.3575124
349,1436466723569,0.6386533,0.90381116,-1.8124107
350,1436466723590,2.7515364,2.492364,-0.66738373
351,1436466723610,3.3512838,2.6581624,-0.05566519
352,1436466723633,2.4432828,0.97384155,-0.1921347
353,1436466723651,1.0666169,-1.1659763,-0.61411273
354,1436466723706,0.2621651,-1.7699136,-0.6314707
355,1436466723707,-1.2336124,-1.5370775,-0.43993455
356,1436466723729,-1.4610616,-0.37349546,-1.2419921
357,1436466723730,1.757344,0.6799533,-1.9776106
358,1436466723752,8.546103,1.3078327,0.10354923
359,1436466723775,19.133263,1.3497312,8.5143795
360,1436466723789,19.607914,-1.6956934,-0.4758476
361,1436466723809,19.607914,2.5528176,0.53211135
362,1436466723831,17.053898,-2.3750482,6.4990606
363,1436466723851,19.607914,-4.2521024,9.788095
364,1436466723871,19.607914,-1.364695,7.757812
365,1436466723889,19.607914,-1.5957354,3.5116954
366,1436466723915,18.47007,-1.9758149,-0.7870938
367,1436466723932,13.015479,-0.17537527,-2.4019828
368,1436466723953,7.018004,1.7968484,-1.0749966
369,1436466723970,4.35625,2.2439656,-0.50637364
370,1436466723992,0.37349546,2.0368671,-0.8475474
371,1436466724013,-3.0184898,0.008978256,-0.29388827
372,1436466724033,-5.6670756,-1.6334441,-0.15322891
373,1436466724053,-3.793014,-1.0181342,-0.6997054
374,1436466724070,-0.8499416,0.40462008,-1.027711
375,1436466724092,1.4706384,1.7459716,-1.1731589
376,1436466724113,2.7383683,2.0919337,-0.05267244
377,1436466724129,1.62686,1.7082629,-0.36511576
378,1436466724153,0.7691373,0.09816227,-0.3196259
379,1436466724175,0.97862995,-0.8738836,-0.36511576
380,1436466724192,0.51834464,-2.19249,-0.53450555
381,1436466724212,1.4526819,-2.2601264,-1.5801731
382,1436466724233,5.130774,-0.7577648,-1.1623849
383,1436466724254,9.734824,2.1021092,1.471237
384,1436466724272,13.126211,2.825158,3.4512417
385,1436466724293,19.607914,2.328361,8.231864
386,1436466724313,19.607914,-3.0125043,-5.4420204
387,1436466724333,19.607914,1.7256209,4.1760864
388,1436466724352,18.409018,-3.1429882,5.747281
389,1436466724370,19.607914,0.866701,7.2005615
390,1436466724393,19.607914,0.14604631,4.621408
391,1436466724465,19.607914,-2.7682958,0.26515785
392,1436466724468,14.586075,-3.4099417,-1.7471687
393,1436466724469,7.837419,-0.21188685,-1.6537948
394,1436466724471,2.7760768,1.7585411,-0.23762453
395,1436466724490,-0.6679823,1.6986861,0.3298013
396,1436466724512,-3.1747115,0.23822308,1.0546459
397,1436466724530,-4.0982747,-0.86251116,0.34596214
398,1436466724550,-2.079364,-0.17178397,-1.3958195
399,1436466724572,-1.0839748,0.39324763,-2.112883
400,1436466724590,0.777517,1.9470845,-1.2024878
401,1436466724611,2.0967221,2.1649568,0.74519527
402,1436466724631,2.285864,0.6895301,1.3090298
403,1436466724653,1.5352819,-0.9415198,0.26276365
404,1436466724673,0.27353755,-1.4401124,-1.2000936
405,1436466724693,-0.86729956,-0.9391256,-1.4197617
406,1436466724713,-0.84934306,0.08798691,-0.74878657
407,1436466724733,1.3174095,0.10055647,-0.6679823
