id,attr_time,attr_x,attr_y,attr_z
1,1436372950611,0.004886922,0.12705997,0.07391469
2,1436372950634,0.015577064,0.12675454,0.087964594
3,1436372950653,0.017104227,0.121256754,0.093462385
4,1436372950673,0.02687807,0.12034045,0.09987647
5,1436372950693,0.030543262,0.11178834,0.10323623
6,1436372950715,0.035430185,0.10598512,0.105374254
7,1436372950733,0.038789943,0.10048734,0.10781772
8,1436372950752,0.03756821,0.083383106,0.10262536
9,1436372950774,0.032986723,0.07880162,0.08735373
10,1436372950795,0.028405234,0.073303826,0.07696902
11,1436372950815,0.020158553,0.07391469,0.06261369
12,1436372950833,0.017715093,0.06536258,0.05375614
13,1436372950851,0.019547688,0.06261369,0.040011674
14,1436372950874,0.011301007,0.04153884,0.028710667
15,1436372950914,0.0076358155,0.01863139,0.015271631
16,1436372950915,0.0012217305,0.0036651916,0.009468411
17,1436372950932,0.0015271631,-0.011301007,0.008246681
18,1436372950951,0.00030543262,-0.029932396,0.0061086523
19,1436372950974,-0.0021380284,-0.048563786,0.004886922
20,1436372950994,0.0021380284,-0.05375614,-0.0036651916
21,1436372951011,0.005497787,-0.05467244,0.00061086525
22,1436372951035,0.0061086523,-0.05467244,-0.0021380284
23,1436372951053,0.0061086523,-0.04795292,-0.0012217305
24,1436372951072,0.0009162979,-0.03940081,-0.002443461
25,1436372951095,-0.003970624,-0.02565634,-0.0033597588
26,1436372951114,-0.0076358155,-0.020463986,-0.009162978
27,1436372951132,-0.01038471,-0.016493361,-0.014966198
28,1436372951155,-0.01282817,-0.017104227,-0.016798794
29,1436372951175,-0.020158553,-0.027794369,-0.022296581
30,1436372951195,-0.02321288,-0.03023783,-0.025961773
31,1436372951215,-0.035430185,-0.03145956,-0.032375857
32,1436372951235,-0.03970624,-0.029932396,-0.03848451
33,1436372951255,-0.04428773,-0.031154128,-0.038789943
34,1436372951275,-0.051923547,-0.03481932,-0.03970624
35,1436372951293,-0.051618114,-0.046731193,-0.03359759
36,1436372951315,-0.052839845,-0.034513887,-0.032375857
37,1436372951335,-0.05222898,-0.016798794,-0.031154128
38,1436372951352,-0.036651913,-0.032986723,-0.018936822
39,1436372951374,-0.038179077,-0.04734206,-0.014049901
40,1436372951392,-0.03848451,-0.03023783,-0.0070249503
41,1436372951414,-0.032070424,-0.0018325958,0.0070249503
42,1436372951433,-0.023823744,0.0033597588,0.014966198
43,1436372951452,-0.015882496,-0.007330383,0.018020526
44,1436372951472,-0.009773844,-0.0027488936,0.027183503
45,1436372951492,-0.01160644,0.025961773,0.034208454
46,1436372951512,-0.010079277,0.060170226,0.040317107
47,1436372951532,-0.010995574,0.07147124,0.049785517
48,1436372951560,-0.009162978,0.058948494,0.049785517
49,1436372951673,-0.012217305,0.054061573,0.053450707
50,1436372951674,-0.017715093,0.05467244,0.058948494
51,1436372951675,-0.020158553,0.061086524,0.058337633
52,1436372951676,-0.018020526,0.054367006,0.051618114
53,1436372951677,-0.02076942,0.03573562,0.04917465
54,1436372951678,-0.022296581,0.026572637,0.042760566
55,1436372951717,-0.02687807,0.01282817,0.031154128
56,1436372951718,-0.030543262,-0.011911872,0.028710667
57,1436372951732,-0.03726278,-0.028710667,0.024129177
58,1436372951761,-0.03940081,-0.027183503,0.0125227375
59,1436372951772,-0.037873644,-0.016798794,0.0009162979
60,1436372951795,-0.041233405,-0.0125227375,-0.0070249503
61,1436372951821,-0.042760566,-0.015577064,-0.013744468
62,1436372951833,-0.03940081,-0.024129177,-0.02443461
63,1436372951856,-0.040317107,-0.036651913,-0.026572637
64,1436372951875,-0.040317107,-0.03726278,-0.025350908
65,1436372951895,-0.042760566,-0.028405234,-0.026267206
66,1436372951913,-0.043066,-0.02565634,-0.02687807
67,1436372951934,-0.04886922,-0.02443461,-0.027794369
68,1436372951953,-0.040317107,-0.025961773,-0.032070424
69,1436372951973,-0.042760566,-0.025045475,-0.027794369
70,1436372951996,-0.044898596,-0.025045475,-0.0290161
71,1436372952015,-0.042760566,-0.019547688,-0.030848695
72,1436372952034,-0.036957346,-0.010995574,-0.02687807
73,1436372952054,-0.042455133,-0.0018325958,-0.025350908
74,1436372952076,-0.03848451,0.015577064,-0.019242255
75,1436372952096,-0.037873644,0.04062254,-0.007330383
76,1436372952116,-0.041233405,0.06352998,0.0
77,1436372952133,-0.0421497,0.07971791,0.014660766
78,1436372952156,-0.047036625,0.08399397,0.027488936
79,1436372952175,-0.04153884,0.08002335,0.038179077
80,1436372952196,-0.032375857,0.058643065,0.042455133
81,1436372952216,-0.02687807,0.040011674,0.04184427
82,1436372952233,-0.02076942,0.039095376,0.040927973
83,1436372952256,-0.016798794,0.07971791,0.048258353
84,1436372952274,-0.004276057,0.12614368,0.050396383
85,1436372952294,0.002443461,0.16768251,0.056505036
86,1436372952314,0.013439035,0.18325958,0.053145275
87,1436372952335,0.034513887,0.19883664,0.047647487
88,1436372952384,0.03726278,0.22449298,0.05009095
89,1436372952396,0.03359759,0.24709499,0.05681047
90,1436372952397,0.01985312,0.258396,0.062308256
91,1436372952413,-0.0012217305,0.23976462,0.07513642
92,1436372952436,-0.0106901415,0.17379116,0.07544186
93,1436372952454,-0.032375857,0.087964594,0.06872234
94,1436372952474,-0.052839845,0.035430185,0.049785517
95,1436372952507,-0.06658431,0.033292156,0.026572637
96,1436372952514,-0.086437434,0.059864793,0.0033597588
97,1436372952533,-0.09315695,0.11026118,0.0033597588
98,1436372952554,-0.09682214,0.13988814,-0.04886922
99,1436372952576,-0.10293079,0.106901415,-0.056505036
100,1436372952599,-0.10445796,0.03970624,-0.058948494
101,1436372952615,-0.099571034,-0.05955936,-0.056199603
102,1436372952634,-0.09040806,-0.0888809,-0.048258353
103,1436372952661,-0.0870483,-0.054367006,-0.043982297
104,1436372952674,-0.07360926,-0.007941248,-0.038179077
105,1436372952695,-0.05100725,-0.010079277,-0.027794369
106,1436372952713,-0.032986723,-0.044898596,-0.0021380284
107,1436372952733,-0.010079277,-0.09407325,0.01282817
108,1436372952754,0.0030543262,-0.12767084,0.02443461
109,1436372952780,0.014660766,-0.14752395,0.03970624
110,1436372952794,0.01740966,-0.13958271,0.045814894
111,1436372952819,0.023518313,-0.12583824,0.046731193
112,1436372952835,0.024129177,-0.113926366,0.05009095
113,1436372952854,0.027488936,-0.118507855,0.047647487
114,1436372952876,0.018020526,-0.13439035,0.044593163
115,1436372952893,0.003970624,-0.16829337,0.035124753
116,1436372952914,-0.008552114,-0.17562376,0.029932396
117,1436372952934,-0.020463986,-0.15851954,0.022907447
118,1436372952955,-0.03268129,-0.12461651,0.01863139
119,1436372952974,-0.04795292,-0.09101892,0.011301007
120,1436372952994,-0.050396383,-0.05131268,-0.004276057
121,1436372953015,-0.04917465,-0.02107485,-0.017104227
122,1436372953038,-0.05131268,-0.00580322,-0.023823744
123,1436372953105,-0.052839845,0.004581489,-0.028405234
124,1436372953106,-0.053450707,0.015577064,-0.038789943
125,1436372953107,-0.05467244,0.03481932,-0.03848451
126,1436372953115,-0.057421334,0.07086037,-0.035430185
127,1436372953135,-0.047036625,0.099265605,-0.0290161
128,1436372953154,-0.034513887,0.0983493,-0.0143553335
129,1436372953176,-0.02687807,0.06261369,-0.005497787
130,1436372953201,-0.022296581,-0.00580322,0.0015271631
131,1436372953214,-0.016187929,-0.082161374,0.0036651916
132,1436372953236,-0.018936822,-0.122478485,0.009162978
133,1436372953254,-0.01740966,-0.116675265,0.0033597588
134,1436372953277,-0.02076942,-0.067500606,-0.0036651916
135,1436372953294,-0.021380283,-0.023823744,-0.0033597588
136,1436372953317,-0.027488936,-0.00061086525,-0.009162978
137,1436372953334,-0.03268129,0.019547688,-0.005192355
138,1436372953356,-0.040011674,0.032375857,-0.0036651916
139,1436372953377,-0.0421497,0.029626964,0.0033597588
140,1436372953396,-0.04550946,0.016493361,0.007941248
141,1436372953417,-0.044898596,-0.005192355,0.011301007
142,1436372953434,-0.04734206,-0.020158553,0.026267206
143,1436372953456,-0.047036625,-0.0106901415,0.018936822
144,1436372953475,-0.043982297,-0.0009162979,0.029321533
145,1436372953494,-0.044593163,0.0021380284,0.024129177
146,1436372953516,-0.03481932,0.0018325958,0.023823744
147,1436372953534,-0.029321533,0.0012217305,0.018936822
148,1436372953554,-0.022602014,-0.005497787,0.016798794
149,1436372953574,-0.018020526,-0.026572637,0.017104227
150,1436372953602,-0.017715093,-0.050701816,0.019242255
151,1436372953622,-0.013133603,-0.06383542,0.02076942
152,1436372953634,-0.008552114,-0.07788532,0.019242255
153,1436372953663,-0.0036651916,-0.06078109,0.006414085
154,1436372953674,0.002443461,-0.0030543262,-0.004276057
155,1436372953694,0.010079277,0.0580322,-0.015882496
156,1436372953714,0.022602014,0.13744467,-0.016798794
157,1436372953738,0.024740042,0.18081611,-0.015882496
158,1436372953757,0.019242255,0.16493362,-0.009773844
159,1436372953824,0.014049901,0.10934488,-0.008552114
160,1436372953825,-0.002443461,0.06047566,-0.008857546
161,1436372953826,-0.031154128,0.0015271631,-0.014966198
162,1436372953834,-0.049480084,-0.04184427,-0.03176499
163,1436372953854,-0.055588737,-0.06352998,-0.05009095
164,1436372953877,-0.059253927,-0.06780604,-0.06872234
165,1436372953894,-0.059864793,-0.04734206,-0.09621128
166,1436372953920,-0.051618114,-0.02076942,-0.11026118
167,1436372953934,-0.058337633,-0.029626964,-0.11148291
168,1436372953958,-0.06505715,-0.046731193,-0.101098195
169,1436372953975,-0.08460484,-0.027183503,-0.086437434
170,1436372953998,-0.11026118,0.032070424,-0.070554934
171,1436372954015,-0.1133155,0.054367006,-0.059864793
172,1436372954035,-0.12003502,0.025961773,-0.043982297
173,1436372954057,-0.122783914,-0.025350908,-0.03726278
174,1436372954078,-0.111177474,-0.07819075,-0.03481932
175,1436372954097,-0.08674286,-0.16584991,-0.029932396
176,1436372954118,-0.0720821,-0.23671028,-0.039095376
177,1436372954135,-0.07788532,-0.24709499,-0.043982297
178,1436372954157,-0.07086037,-0.2003638,-0.052839845
179,1436372954189,-0.056505036,-0.089186326,-0.048258353
180,1436372954195,-0.054061573,0.054367006,-0.027183503
181,1436372954215,-0.04795292,0.18051068,0.00061086525
182,1436372954235,-0.039095376,0.28069258,0.0143553335
183,1436372954258,-0.030543262,0.34300083,0.032375857
184,1436372954279,-0.02107485,0.38912117,0.044898596
185,1436372954297,-0.008246681,0.38026363,0.06811147
186,1436372954316,0.004581489,0.30726522,0.07971791
187,1436372954335,0.010079277,0.23976462,0.09712757
188,1436372954356,0.012217305,0.17623462,0.10445796
189,1436372954379,0.0021380284,0.13958271,0.10842858
190,1436372954398,-0.0018325958,0.119729586,0.10415252
191,1436372954418,0.0009162979,0.10262536,0.09621128
192,1436372954437,0.009162978,0.08674286,0.08246681
193,1436372954464,0.01160644,0.082161374,0.073303826
194,1436372954536,0.008857546,0.1020145,0.058337633
195,1436372954537,0.007330383,0.1469131,0.039095376
196,1436372954538,0.0143553335,0.17440203,0.028405234
197,1436372954539,0.02687807,0.1777618,0.015882496
198,1436372954555,0.027794369,0.16920967,0.010079277
199,1436372954575,0.032375857,0.15577064,0.006414085
200,1436372954595,0.03756821,0.14202617,0.0021380284
201,1436372954647,0.045814894,0.12064589,-0.00061086525
202,1436372954650,0.053450707,0.09040806,0.0015271631
203,1436372954657,0.06383542,0.06291912,-0.0018325958
204,1436372954675,0.06169739,0.049480084,-0.007330383
205,1436372954698,0.064751714,0.034513887,-0.01282817
206,1436372954715,0.065973446,0.01863139,-0.009773844
207,1436372954742,0.06261369,-0.008857546,-0.013744468
208,1436372954768,0.056199603,-0.022296581,-0.017104227
209,1436372954775,0.056505036,-0.035430185,-0.01985312
210,1436372954796,0.054061573,-0.043066,-0.018020526
211,1436372954876,0.04917465,-0.05100725,-0.022602014
212,1436372954877,0.043066,-0.061086524,-0.025961773
213,1436372954878,0.04184427,-0.07086037,-0.028405234
214,1436372954880,0.032375857,-0.0711658,-0.028405234
215,1436372954895,0.024740042,-0.07086037,-0.02565634
216,1436372954915,0.02321288,-0.06414085,-0.025045475
217,1436372954936,0.014660766,-0.05131268,-0.020158553
218,1436372954956,0.014966198,-0.031154128,-0.018936822
219,1436372954977,0.006414085,-0.017715093,-0.020158553
220,1436372954995,0.0021380284,-0.013439035,-0.018020526
221,1436372955020,0.0036651916,-0.020158553,-0.009468411
222,1436372955040,-0.002443461,-0.02321288,-0.007330383
223,1436372955061,-0.0033597588,-0.02321288,-0.0125227375
224,1436372955079,0.0015271631,-0.019242255,-0.014049901
225,1436372955096,-0.008246681,-0.013133603,-0.00580322
226,1436372955117,-0.0061086523,-0.005497787,-0.00061086525
227,1436372955137,-0.008246681,0.003970624,-0.0030543262
228,1436372955157,-0.010995574,0.0,0.00030543262
229,1436372955177,-0.01038471,-0.01038471,-0.0015271631
230,1436372955270,-0.004581489,-0.01863139,-0.00030543262
231,1436372955271,-0.0030543262,-0.02107485,0.0021380284
232,1436372955272,-0.0076358155,0.0009162979,0.0027488936
233,1436372955273,-0.0067195175,0.022602014,0.003970624
234,1436372955283,-0.010995574,0.034208454,0.008857546
235,1436372955296,-0.017715093,0.02443461,0.0125227375
236,1436372955316,-0.016187929,0.01985312,0.01160644
237,1436372955336,-0.017715093,0.02107485,0.01282817
238,1436372955361,-0.016798794,-0.008857546,0.024129177
239,1436372955377,-0.020463986,-0.04550946,0.022296581
240,1436372955396,-0.032070424,-0.041233405,0.014049901
241,1436372955420,-0.025961773,-0.017715093,0.014049901
242,1436372955436,-0.027794369,-0.0076358155,0.018020526
243,1436372955456,-0.032070424,0.009162978,0.0125227375
244,1436372955479,-0.03268129,0.021380283,0.002443461
245,1436372955499,-0.03634648,0.029626964,0.008552114
246,1436372955519,-0.03573562,0.04337143,0.008857546
247,1436372955539,-0.034208454,0.038789943,0.005497787
248,1436372955558,-0.039095376,0.005192355,0.01160644
249,1436372955579,-0.038179077,-0.01985312,0.011911872
250,1436372955599,-0.03848451,-0.025350908,0.015577064
251,1436372955619,-0.032986723,-0.02321288,0.01740966
252,1436372955641,-0.034208454,-0.03481932,0.0106901415
253,1436372955656,-0.02687807,-0.055283304,0.002443461
254,1436372955679,-0.029321533,-0.06994407,-0.00580322
255,1436372955699,-0.029321533,-0.05589417,-0.01038471
256,1436372955718,-0.026572637,-0.05131268,-0.01160644
257,1436372955738,-0.026267206,-0.05955936,-0.012217305
258,1436372955759,-0.022602014,-0.058948494,-0.01740966
259,1436372955779,-0.025045475,-0.04062254,-0.02321288
260,1436372955797,-0.01985312,-0.029321533,-0.029321533
261,1436372955819,-0.025350908,-0.015271631,-0.029321533
262,1436372955838,-0.02565634,-0.009162978,-0.03145956
263,1436372955858,-0.02565634,-0.017104227,-0.022296581
264,1436372955879,-0.023823744,-0.029932396,-0.02107485
265,1436372955900,-0.029626964,-0.03848451,-0.017715093
266,1436372955919,-0.032070424,-0.057726767,-0.0067195175
267,1436372955970,-0.03848451,-0.0842994,-0.006414085
268,1436372955971,-0.04337143,-0.108123146,-0.008857546
269,1436372955979,-0.039095376,-0.121256754,-0.0143553335
270,1436372955996,-0.04520403,-0.1160644,-0.022907447
271,1436372956018,-0.048258353,-0.09437868,-0.031154128
272,1436372956036,-0.058948494,-0.054367006,-0.029626964
273,1436372956056,-0.059864793,-0.032070424,-0.03573562
274,1436372956082,-0.05497787,-0.028710667,-0.03756821
275,1436372956099,-0.047647487,-0.024740042,-0.03756821
276,1436372956118,-0.041233405,-0.024740042,-0.023823744
277,1436372956138,-0.040317107,0.05009095,-0.0106901415
278,1436372956159,-0.03940081,0.053450707,0.00061086525
279,1436372956180,-0.03481932,0.022602014,0.00030543262
280,1436372956196,-0.019242255,-0.030848695,-0.0027488936
281,1436372956220,-0.010995574,-0.06383542,-0.011301007
282,1436372956240,-0.0018325958,-0.0421497,-0.02107485
283,1436372956260,0.004581489,0.048258353,-0.03268129
284,1436372956280,0.01038471,0.14172074,-0.043982297
285,1436372956300,0.013439035,0.25137106,-0.03726278
286,1436372956320,0.011911872,0.32895094,-0.01863139
287,1436372956340,0.0106901415,0.35246924,-0.0015271631
288,1436372956360,0.021991149,0.3378085,0.02107485
289,1436372956378,0.027794369,0.28802297,0.040011674
290,1436372956398,0.021991149,0.21655174,0.062002823
291,1436372956420,0.028710667,0.15057829,0.08124508
292,1436372956438,0.027794369,0.10934488,0.10048734
293,1436372956458,0.030543262,0.09162979,0.12064589
294,1436372956478,0.020158553,0.048563786,0.13652839
295,1436372956497,0.00580322,-0.036957346,0.1554652
296,1436372956519,0.004581489,-0.14996742,0.1441642
297,1436372956540,0.0033597588,-0.21502456,0.11728613
298,1436372956560,0.0012217305,-0.26419923,0.076358154
299,1436372956581,0.0033597588,-0.24037547,0.043676864
300,1436372956601,-0.009162978,-0.17806722,0.017715093
301,1436372956621,-0.015882496,-0.09896017,0.008857546
302,1436372956640,-0.02443461,-0.055283304,-0.002443461
303,1436372956659,-0.024129177,-0.013439035,-0.0012217305
304,1436372956732,-0.032375857,0.005192355,0.0
305,1436372956733,-0.028710667,-0.025045475,0.005497787
306,1436372956734,-0.02687807,-0.056199603,0.007330383
307,1436372956742,-0.01985312,-0.063224554,-0.005497787
308,1436372956757,-0.0030543262,-0.052839845,-0.014660766
309,1436372956779,0.02321288,-0.026267206,-0.03756821
310,1436372956798,0.03726278,0.050701816,-0.064446285
311,1436372956818,-0.004886922,0.15974127,-0.081855945
312,1436372956840,-0.076052725,0.2434298,-0.08307768
313,1436372956859,-0.10293079,0.204029,-0.06383542
314,1436372956878,-0.089491755,0.13775012,-0.05955936
315,1436372956901,-0.0852157,0.13530666,-0.06505715
316,1436372956919,-0.099571034,0.13744467,-0.086132
317,1436372956941,-0.096516706,0.112399206,-0.09896017
318,1436372956959,-0.06627888,0.0842994,-0.090713486
319,1436372956981,-0.048258353,0.04886922,-0.07238753
320,1436372957001,-0.043676864,0.03145956,-0.04734206
321,1436372957021,-0.043982297,0.049785517,-0.028710667
322,1436372957041,-0.027794369,0.087659165,-0.0033597588
323,1436372957061,-0.011301007,0.094989546,0.02076942
324,1436372957081,0.0076358155,0.050396383,0.030543262
325,1436372957102,0.02443461,0.00061086525,0.038179077
326,1436372957119,0.03940081,-0.0061086523,0.04795292
327,1436372957141,0.040927973,0.061086524,0.05100725
328,1436372957160,0.04062254,0.15332718,0.057726767
329,1436372957180,0.0421497,0.20647246,0.07147124
330,1436372957200,0.0421497,0.21471913,0.08246681
331,1436372957221,0.03390302,0.15760323,0.08093964
332,1436372957241,0.03268129,0.06963864,0.06658431
333,1436372957262,0.028405234,0.01863139,0.05955936
334,1436372957280,0.015577064,0.01863139,0.04642576
335,1436372957300,0.004276057,0.03390302,0.03145956
336,1436372957319,-0.003970624,0.081855945,0.01863139
337,1436372957340,-0.016187929,0.09865474,0.011301007
338,1436372957360,-0.015882496,0.073303826,0.01038471
339,1436372957378,-0.02321288,0.05009095,0.013744468
340,1436372957433,-0.03145956,0.02107485,0.016187929
341,1436372957434,-0.032070424,-0.004581489,0.010079277
342,1436372957447,-0.037873644,-0.018020526,0.0125227375
343,1436372957458,-0.032070424,-0.021685716,0.015882496
344,1436372957483,-0.028099801,-0.023823744,0.021685716
345,1436372957499,-0.02565634,-0.024129177,0.019547688
346,1436372957529,-0.02443461,-0.026572637,0.02076942
347,1436372957538,-0.018325957,-0.024740042,0.024740042
348,1436372957559,-0.0143553335,-0.016493361,0.027183503
349,1436372957579,-0.014049901,-0.009468411,0.027183503
350,1436372957627,-0.012217305,-0.011301007,0.027183503
351,1436372957630,-0.008552114,-0.029321533,0.030543262
352,1436372957638,-0.007941248,-0.05375614,0.030543262
353,1436372957661,-0.016187929,-0.07849618,0.03023783
354,1436372957681,-0.024129177,-0.08979719,0.021991149
355,1436372957701,-0.017715093,-0.07849618,0.014966198
356,1436372957721,-0.012217305,-0.073303826,0.008857546
357,1436372957741,-0.0036651916,-0.076358154,-0.00061086525
358,1436372957761,0.0061086523,-0.09162979,-0.022907447
359,1436372957781,0.004276057,-0.09040806,-0.034513887
360,1436372957801,0.008857546,-0.069027774,-0.049480084
361,1436372957820,0.016187929,-0.01038471,-0.049785517
362,1436372957841,0.0033597588,0.04428773,-0.040011674
363,1436372957861,0.006414085,0.081855945,-0.03573562
364,1436372957881,0.007941248,0.06627888,-0.02687807
365,1436372957901,0.0143553335,0.004276057,-0.021991149
366,1436372957922,0.0067195175,-0.029932396,-0.01282817
