id,attr_time,attr_x,attr_y,attr_z
1,1436898151002,-1.8195933,9.798869,-1.4030021
2,1436898151020,-1.8189948,9.788095,-1.4173675
3,1436898151041,-1.8237832,9.78989,-1.3982137
4,1436898151066,-1.8124107,9.781511,-1.3964181
5,1436898151081,-1.7836803,9.776124,-1.411382
6,1436898151103,-1.7830818,9.807847,-1.4203602
7,1436898151123,-1.7872716,9.787497,-1.4550761
8,1436898151143,-1.8076223,9.776723,-1.4508862
9,1436898151163,-1.827973,9.791088,-1.4107834
10,1436898151182,-1.8249803,9.802461,-1.4167689
11,1436898151201,-1.8243817,9.78989,-1.4257472
12,1436898151223,-1.7908629,9.794679,-1.4395138
13,1436898151243,-1.8076223,9.776723,-1.4371196
14,1436898151263,-1.775899,9.762358,-1.4520833
15,1436898151283,-1.7956513,9.779716,-1.4347254
16,1436898151301,-1.8016368,9.794679,-1.4227544
17,1436898151324,-1.834557,9.811439,-1.3880384
18,1436898151344,-1.83336,9.789292,-1.42455
19,1436898151363,-1.7992426,9.790489,-1.4251486
20,1436898151383,-1.7872716,9.76954,-1.4532804
21,1436898151402,-1.7794905,9.781511,-1.4466964
22,1436898151423,-1.8495208,9.798869,-1.4460979
23,1436898151443,-1.8417397,9.8042555,-1.4149733
24,1436898151464,-1.7717092,9.784504,-1.3970166
25,1436898151484,-1.7741034,9.79827,-1.4377182
26,1436898151504,-1.8130093,9.783307,-1.4257472
27,1436898151521,-1.8106151,9.798869,-1.4640543
28,1436898151542,-1.7944542,9.771336,-1.4377182
29,1436898151561,-1.7908629,9.812635,-1.4197617
30,1436898151583,-1.7753005,9.7803135,-1.3940239
31,1436898151629,-1.7986441,9.76116,-1.4550761
32,1436898151630,-1.8058267,9.770737,-1.4580688
33,1436898151649,-1.8393455,9.810242,-1.4622587
34,1436898151660,-1.7980455,9.81084,-1.4053963
35,1436898151683,-1.8189948,9.792285,-1.3850456
36,1436898151701,-1.8148049,9.781511,-1.4293385
37,1436898151721,-1.7998412,9.776723,-1.4664485
38,1436898151742,-1.7836803,9.782708,-1.4431051
39,1436898151762,-1.79206,9.776124,-1.4514848
40,1436898151785,-1.8836381,9.797672,-1.5179238
41,1436898151805,-1.7998412,9.7803135,-1.4155718
42,1436898151822,-1.797447,9.795278,-1.4335283
43,1436898151843,-1.8028339,9.782109,-1.4502877
44,1436898151864,-1.7860745,9.785102,-1.4143747
45,1436898151884,-1.7926586,9.788095,-1.4329298
46,1436898151902,-1.8052281,9.785102,-1.4401124
47,1436898151923,-1.8602947,9.79827,-1.4508862
48,1436898151944,-1.869273,9.771336,-1.4359225
49,1436898151964,-1.846528,9.773131,-1.4089876
50,1436898151984,-1.8112136,9.805453,-1.3874398
51,1436898152004,-1.7806876,9.792884,-1.4239515
52,1436898152023,-1.8004397,9.825804,-1.3730747
53,1436898152042,-1.780089,9.803658,-1.3844471
54,1436898152064,-1.8537107,9.762956,-1.4413095
55,1436898152082,-1.8028339,9.762956,-1.4556746
56,1436898152102,-1.8561049,9.76116,-1.5167267
57,1436898152123,-1.8423382,9.782708,-1.459266
58,1436898152143,-1.858499,9.785102,-1.4263457
59,1436898153619,-1.8537107,9.787497,-1.4311341
60,1436898153620,-1.7723078,9.779716,-1.4425066
61,1436898153621,-1.79206,9.784504,-1.4915876
62,1436898153622,-1.7926586,9.781511,-1.4784195
63,1436898153623,-1.8734628,9.7641535,-1.5071499
64,1436898153624,-1.875857,9.775525,-1.5029601
65,1436898153625,-1.8716671,9.776723,-1.471237
66,1436898153626,-1.7603368,9.784504,-1.4688427
67,1436898153627,-1.9063832,9.768942,-1.5209166
68,1436898153628,-1.8363527,9.743802,-1.5011644
69,1436898153629,-1.8154035,9.755175,-1.4885949
70,1436898153630,-1.8321629,9.762956,-1.513734
71,1436898153631,-1.8124107,9.763555,-1.5053543
72,1436898153632,-1.8579005,9.751583,-1.5382746
73,1436898153633,-1.8890251,9.766547,-1.5927427
74,1436898153634,-1.8525136,9.75697,-1.5640123
75,1436898153635,-1.8142064,9.766547,-1.560421
76,1436898153636,-1.8405426,9.758766,-1.5562311
77,1436898153637,-1.8620903,9.746197,-1.5544355
78,1436898153638,-1.863886,9.753379,-1.5999253
79,1436898153639,-1.834557,9.783307,-1.5741876
80,1436898153640,-1.8734628,9.768942,-1.5747862
81,1436898153641,-1.8602947,9.783307,-1.555034
82,1436898153642,-1.8166006,9.770737,-1.5693992
83,1436898153643,-1.785476,9.776124,-1.5544355
84,1436898153644,-1.7657237,9.766547,-1.5472529
85,1436898153645,-1.822586,9.776723,-1.5580268
86,1436898153646,-1.8447324,9.764751,-1.5658079
87,1436898153647,-1.8411411,9.786898,-1.5705963
88,1436898153648,-1.8441339,9.739613,-1.5520413
89,1436898153649,-1.8513165,9.763555,-1.5454572
90,1436898153650,-1.8525136,9.763555,-1.5664065
91,1436898153651,-1.8686744,9.766547,-1.5849615
92,1436898153652,-1.851915,9.76535,-1.5592239
93,1436898153653,-1.8339585,9.763555,-1.5233108
94,1436898153654,-1.8064252,9.764751,-1.5490485
95,1436898153655,-1.8770541,9.774927,-1.5328877
96,1436898153656,-1.7902644,9.75697,-1.5298948
97,1436898153657,-1.8142064,9.76116,-1.5616181
98,1436898153658,-1.8555063,9.7803135,-1.5610195
99,1436898153659,-1.8375498,9.766547,-1.5735891
100,1436898153660,-1.8417397,9.762956,-1.5682021
101,1436898153661,-1.8189948,9.767744,-1.5412674
102,1436898153662,-1.8734628,9.7563715,-1.5286977
103,1436898153663,-1.8267759,9.762956,-1.5143325
104,1436898153664,-1.8249803,9.766547,-1.5370775
105,1436898153665,-1.8369513,9.7719345,-1.5532384
106,1436898153666,-1.7950528,9.759365,-1.5496471
107,1436898153667,-1.8082209,9.753379,-1.5400703
108,1436898153668,-1.8303672,9.767146,-1.5113398
109,1436898153669,-1.9243397,9.76535,-1.5448587
110,1436898153670,-1.863886,9.792285,-1.5221137
111,1436898153671,-1.8154035,9.765948,-1.5304934
112,1436898153672,-1.9237411,9.729437,-1.560421
113,1436898153673,-1.7806876,9.780912,-1.5023615
114,1436898153674,-1.804031,9.759963,-1.4945804
115,1436898153675,-1.839944,9.770737,-1.5496471
116,1436898153676,-1.8297687,9.753379,-1.4999673
117,1436898153677,-1.7986441,9.74859,-1.5221137
118,1436898153678,-1.87047,9.781511,-1.578976
119,1436898153679,-1.863886,9.788693,-1.5592239
120,1436898153680,-1.9165585,9.787497,-1.5215151
121,1436898153681,-1.7962499,9.7563715,-1.5316905
122,1436898153682,-1.8130093,9.7563715,-1.5179238
123,1436898153683,-1.7753005,9.749189,-1.4820108
124,1436898153684,-1.8130093,9.7958765,-1.4580688
125,1436898153685,-1.7196354,9.818023,-1.400608
126,1436898153686,-1.8393455,9.704298,-1.5286977
127,1436898153687,-1.875857,9.743204,-1.541866
128,1436898153688,-1.9261353,9.77792,-1.6023195
129,1436898153689,-1.8746599,9.750985,-1.614889
130,1436898153690,-1.8926164,9.689334,-1.6124948
131,1436898153691,-1.8106151,9.734824,-1.5987282
132,1436898153692,-2.0602105,9.713875,-1.7316064
133,1436898153693,-2.005144,9.776124,-1.6903064
134,1436898153694,-1.8255788,9.747394,-1.5610195
135,1436898153695,-1.8261774,9.681553,-1.5221137
136,1436898153701,-1.7998412,9.627684,-1.584363
137,1436898153721,-1.8459295,9.76116,-1.678934
138,1436898153741,-1.7166426,9.841366,-1.7316064
139,1436898153761,-1.690905,9.870695,-1.762731
140,1436898153781,-1.4766239,9.800665,-1.5400703
141,1436898153801,-1.5711949,9.709685,-1.6843209
142,1436898153821,-1.5777789,9.668385,-1.7549498
143,1436898153841,-1.5298948,9.69951,-1.762731
144,1436898153861,-1.5562311,9.745,-1.7884687
145,1436898153881,-1.6843209,9.763555,-1.7196354
146,1436898153903,-1.8201919,9.629479,-1.7495629
147,1436898153929,-1.8273745,9.701904,-1.7884687
148,1436898153943,-1.8590976,9.721058,-1.8614918
149,1436898153963,-1.8614918,9.712678,-1.905186
150,1436898153986,-2.0901382,9.717466,-1.9758149
151,1436898154004,-2.1278467,9.7719345,-1.9351135
152,1436898154023,-2.0847511,9.73662,-1.9075803
153,1436898154043,-2.2750902,9.7324295,-1.9835961
154,1436898154063,-2.2343888,9.680356,-2.018312
155,1436898154085,-2.1625626,9.603143,-1.8992004
156,1436898154106,-2.124854,9.595362,-1.9381063
157,1436898154124,-2.0248961,9.694721,-1.9494787
158,1436898154143,-1.858499,9.750386,-1.7274165
159,1436898154164,-1.905186,9.755774,-1.745373
160,1436898154192,-2.0428526,9.494206,-1.834557
161,1436898154270,-2.099715,9.636064,-1.9614497
162,1436898154271,-2.4666264,9.886856,-2.1290438
163,1436898154272,-2.0871453,9.774328,-1.3850456
164,1436898154273,-2.1751323,9.673173,-1.560421
165,1436898154286,-1.9812019,9.6528225,-1.6885108
166,1436898154306,-1.8171991,9.706094,-1.7687165
167,1436898154324,-1.9841946,9.686341,-1.7531542
168,1436898154343,-1.965041,9.720459,-1.6466122
169,1436898154365,-2.0266917,9.664195,-1.5801731
170,1436898154384,-2.0500352,9.702502,-1.5490485
171,1436898154405,-2.2679076,9.642049,-1.702876
172,1436898154424,-2.3080103,9.68694,-1.614889
173,1436898154445,-2.3690627,9.6845455,-1.6406267
174,1436898154466,-2.4271219,9.614515,-1.8243817
175,1436898154486,-2.4492683,9.615114,-1.8291701
176,1436898154505,-2.19668,9.64564,-1.7363948
177,1436898154526,-1.9021933,9.796474,-1.477821
178,1436898154547,-1.8986019,9.774328,-1.3634979
179,1436898154566,-1.9907787,9.717466,-1.3084313
180,1436898154587,-1.9375077,9.730635,-1.4466964
181,1436898154607,-1.9315223,9.753978,-1.5939398
182,1436898154626,-1.9800048,9.775525,-1.5705963
183,1436898154646,-1.8537107,9.764751,-1.8004397
184,1436898154666,-1.8968062,9.74859,-1.5448587
185,1436898154687,-2.0326772,9.730036,-1.5071499
186,1436898154709,-1.9590555,9.727641,-1.5676036
187,1436898154724,-2.078167,9.752781,-1.6693572
188,1436898154746,-2.1045034,9.739613,-1.6220716
189,1436898154766,-2.0679917,9.744401,-1.5334862
190,1436898154786,-2.0805612,9.744401,-1.6274586
191,1436898154810,-2.110489,9.706094,-1.7357962
192,1436898154826,-2.03567,9.673173,-1.6639702
193,1436898154844,-1.9015948,9.679757,-1.4490906
194,1436898154865,-1.8495208,9.702502,-1.3808558
195,1436898154883,-2.043451,9.670779,-1.4065934
196,1436898154907,-2.2110453,9.647436,-1.4598645
197,1436898154926,-2.180519,9.686341,-1.460463
198,1436898154997,-2.2415714,9.664195,-1.5592239
199,1436898154998,-2.1493945,9.695918,-1.6136919
200,1436898154999,-2.0799627,9.704298,-1.6645688
201,1436898155006,-2.2936451,9.654618,-1.8339585
202,1436898155025,-2.2619221,9.663596,-1.8064252
203,1436898155045,-2.0536265,9.7007065,-1.6406267
204,1436898155064,-2.082357,9.698911,-1.6537948
205,1436898155084,-2.1176715,9.685144,-1.6035166
206,1436898155105,-2.0500352,9.689933,-1.5280992
207,1436898155125,-2.0278888,9.722853,-1.4921862
208,1436898155145,-1.9794062,9.73662,-1.4879963
209,1436898155165,-1.8195933,9.741408,-1.4634558
210,1436898155184,-1.7956513,9.738416,-1.4999673
211,1436898155204,-1.8082209,9.739613,-1.5436616
212,1436898155226,-1.899799,9.749788,-1.5568297
213,1436898155247,-1.9674352,9.752182,-1.5071499
214,1436898155268,-2.1164744,9.730635,-1.5807717
215,1436898155287,-2.1218612,9.68694,-1.5879543
216,1436898155307,-2.1218612,9.715671,-1.6184803
217,1436898155328,-2.0973208,9.727043,-1.6089035
218,1436898155347,-2.0482395,9.705495,-1.620276
219,1436898155368,-2.0159178,9.743204,-1.6286557
220,1436898155385,-2.1254525,9.716867,-1.5993267
221,1436898155408,-2.1697452,9.7162695,-1.5993267
222,1436898155426,-2.0769699,9.735423,-1.5215151
223,1436898155446,-2.0045455,9.737817,-1.4550761
224,1436898155464,-1.9339164,9.705495,-1.4401124
225,1436898155487,-1.9297266,9.711481,-1.496376
226,1436898155513,-1.9871874,9.737817,-1.5532384
227,1436898155524,-1.9554642,9.743204,-1.4431051
228,1436898155544,-1.899799,9.745598,-1.4508862
229,1436898155564,-1.91596,9.719262,-1.471237
230,1436898155584,-1.9069817,9.730036,-1.4646529
231,1436898155606,-1.9722236,9.759963,-1.4688427
232,1436898155628,-1.9764135,9.755175,-1.4718355
233,1436898155647,-1.951873,9.767146,-1.4784195
234,1436898155765,-1.9788077,9.749788,-1.4532804
235,1436898155766,-2.0135236,9.739014,-1.4939818
236,1436898155767,-2.0967221,9.730635,-1.489792
237,1436898155768,-2.059612,9.725247,-1.5077485
238,1436898155769,-2.0111294,9.716867,-1.4736311
239,1436898155770,-2.03148,9.723452,-1.5041572
240,1436898155786,-1.9853917,9.743802,-1.5221137
241,1436898155805,-1.939902,9.746795,-1.4975731
242,1436898155824,-2.0015526,9.751583,-1.5622166
243,1436898155850,-1.988983,9.778519,-1.5316905
244,1436898155865,-1.8794483,9.733028,-1.4700398
245,1436898155886,-1.9231426,9.751583,-1.4730326
246,1436898155905,-2.0093338,9.750386,-1.4562732
247,1436898155926,-1.9458874,9.7402115,-1.4077905
248,1436898155948,-1.9351135,9.749788,-1.489792
249,1436898155969,-2.0500352,9.7240505,-1.5191209
250,1436898155988,-1.9949685,9.725247,-1.5646108
251,1436898156008,-1.9859903,9.724648,-1.5771804
252,1436898156029,-1.9393034,9.735423,-1.5556326
253,1436898156047,-2.0248961,9.734824,-1.590947
254,1436898156068,-1.988983,9.71986,-1.5771804
255,1436898156088,-2.0039468,9.717466,-1.5370775
256,1436898156108,-2.0590134,9.734824,-1.5227122
257,1436898156128,-2.0841527,9.730635,-1.5221137
258,1436898156147,-2.0141222,9.725247,-1.513734
259,1436898156168,-2.005144,9.71986,-1.5640123
260,1436898156188,-2.0548236,9.753978,-1.5358804
261,1436898156205,-2.0207062,9.7402115,-1.5197195
262,1436898156228,-1.9393034,9.759365,-1.4909891
263,1436898156248,-1.8788497,9.75697,-1.4251486
264,1436898156268,-1.9339164,9.720459,-1.4676456
265,1436898156288,-1.9818004,9.719262,-1.5041572
266,1436898156309,-1.9847932,9.767744,-1.5197195
267,1436898156328,-1.9758149,9.7563715,-1.4826094
268,1436898156348,-1.9985598,9.7641535,-1.4490906
269,1436898156368,-1.9752164,9.7402115,-1.459266
270,1436898156387,-1.9806033,9.731832,-1.4425066
271,1436898156415,-1.9841946,9.741408,-1.4796166
272,1436898156469,-1.9997569,9.752182,-1.5167267
273,1436898156470,-2.018312,9.745,-1.4652514
274,1436898156471,-1.9674352,9.736021,-1.4401124
275,1436898156488,-2.011728,9.728839,-1.4760253
276,1436898156509,-2.0123265,9.731832,-1.4856021
277,1436898156527,-1.9800048,9.745,-1.513734
278,1436898156548,-1.982399,9.733028,-1.436521
279,1436898156565,-1.9614497,9.758167,-1.4556746
280,1436898156587,-2.0626047,9.759365,-1.4449008
281,1436898156605,-1.9327193,9.766547,-1.412579
282,1436898156629,-1.982399,9.76116,-1.3958195
283,1436898156651,-1.8914193,9.751583,-1.423353
284,1436898156675,-1.9919758,9.750985,-1.4395138
285,1436898156718,-1.9231426,9.761759,-1.4526819
286,1436898156719,-2.0296845,9.743204,-1.4730326
287,1436898156771,-2.022502,9.729437,-1.4945804
288,1436898156772,-1.963844,9.736021,-1.4808137
289,1436898156773,-1.99437,9.734824,-1.4640543
290,1436898156785,-1.9446903,9.755774,-1.448492
291,1436898156805,-1.988983,9.749189,-1.4610616
292,1436898156825,-1.9955671,9.752182,-1.4556746
293,1436898156845,-1.9231426,9.749189,-1.4401124
294,1436898156865,-1.9542671,9.7240505,-1.4580688
295,1436898156903,-1.9782091,9.743204,-1.4616601
296,1436898156906,-2.0386627,9.762358,-1.4999673
297,1436898156925,-1.9907787,9.7641535,-1.4730326
298,1436898156945,-1.9309237,9.740809,-1.4425066
299,1436898156969,-1.9297266,9.747394,-1.4634558
300,1436898156989,-1.9698294,9.745598,-1.4873978
301,1436898157008,-2.010531,9.75697,-1.4879963
302,1436898157028,-2.0278888,9.743204,-1.4975731
303,1436898157048,-1.9620483,9.755774,-1.4371196
304,1436898157069,-1.9434932,9.7641535,-1.4000094
305,1436898157088,-1.9434932,9.739613,-1.4227544
306,1436898157108,-1.9907787,9.722853,-1.4802152
307,1436898157126,-2.0428526,9.7641535,-1.4676456
308,1436898157147,-1.9327193,9.759365,-1.38325
309,1436898157169,-1.9213469,9.749189,-1.435324
310,1436898157192,-1.9536686,9.721058,-1.4706384
311,1436898157205,-1.977012,9.735423,-1.483208
312,1436898157225,-2.0213048,9.746795,-1.4652514
313,1436898157245,-1.9566613,9.788095,-1.4143747
314,1436898157267,-1.9746178,9.762358,-1.4185646
315,1436898157288,-1.9506758,9.750386,-1.4287399
316,1436898157307,-1.9165585,9.7402115,-1.4526819
317,1436898157327,-1.951873,9.743204,-1.4443022
318,1436898157349,-1.9877859,9.745,-1.4514848
319,1436898157369,-1.9925743,9.749189,-1.4341269
320,1436898157389,-1.9788077,9.753978,-1.4347254
321,1436898157405,-1.9818004,9.76116,-1.4383167
322,1436898157429,-1.939902,9.750985,-1.459266
323,1436898157449,-1.9674352,9.742605,-1.4275428
324,1436898157469,-2.0081367,9.734824,-1.4335283
325,1436898157489,-1.9782091,9.762956,-1.4311341
326,1436898157509,-1.9357121,9.744401,-1.3922282
327,1436898157529,-1.9428947,9.771336,-1.4185646
328,1436898157548,-1.9859903,9.754577,-1.4281414
329,1436898157567,-1.946486,9.751583,-1.4119805
330,1436898157589,-1.9075803,9.760562,-1.4544775
331,1436898157608,-1.9692309,9.742605,-1.4197617
332,1436898157626,-1.9566613,9.766547,-1.4305356
333,1436898157648,-1.9871874,9.749788,-1.4508862
334,1436898157670,-2.0081367,9.755774,-1.4574703
335,1436898157692,-1.9758149,9.774328,-1.4383167
336,1436898157717,-1.9321208,9.766547,-1.412579
337,1436898157727,-1.9488802,9.747394,-1.401805
338,1436898157748,-1.9488802,9.761759,-1.423353
339,1436898157767,-1.9931729,9.749189,-1.4550761
340,1436898157790,-1.9901801,9.76954,-1.4490906
341,1436898157808,-1.9632454,9.746197,-1.448492
342,1436898157831,-1.9734207,9.742605,-1.4502877
343,1436898157876,-1.951873,9.764751,-1.4269443
344,1436898157879,-1.941099,9.762956,-1.4173675
345,1436898157895,-1.9315223,9.750386,-1.417966
346,1436898157907,-1.9273324,9.759963,-1.4000094
347,1436898157930,-1.9267339,9.757569,-1.4089876
348,1436898157970,-1.9614497,9.750386,-1.4454993
349,1436898157971,-1.9937714,9.754577,-1.4341269
350,1436898157995,-2.0027497,9.753379,-1.4311341
351,1436898158008,-1.970428,9.731233,-1.4616601
352,1436898158028,-2.0069396,9.768343,-1.400608
353,1436898158049,-1.9081788,9.762358,-1.3533225
354,1436898158070,-1.9351135,9.776124,-1.4317327
355,1436898158087,-1.9476831,9.730036,-1.4460979
356,1436898158110,-1.9458874,9.740809,-1.4580688
357,1436898158130,-1.9847932,9.722853,-1.4820108
358,1436898158150,-1.9500773,9.749189,-1.4550761
359,1436898158170,-1.9949685,9.754577,-1.4706384
360,1436898158190,-1.9309237,9.736021,-1.4532804
361,1436898158207,-1.9273324,9.726444,-1.484405
362,1436898158230,-1.8938135,9.702502,-1.525705
363,1436898158252,-2.0320787,9.724648,-1.5370775
364,1436898158268,-2.0099323,9.752182,-1.4688427
365,1436898158290,-1.9458874,9.747394,-1.3850456
366,1436898158310,-1.9961656,9.743802,-1.4263457
367,1436898158331,-1.9877859,9.765948,-1.4143747
368,1436898158350,-1.970428,9.733627,-1.4580688
369,1436898158369,-1.9470845,9.723452,-1.4867992
370,1436898158390,-2.135628,9.648034,-1.6250644
371,1436898158411,-1.9147629,9.781511,-1.460463
372,1436898158431,-1.927931,9.740809,-1.3982137
373,1436898158450,-2.107496,9.731233,-1.4257472
374,1436898158469,-2.03567,9.725247,-1.3706805
375,1436898158492,-2.0733786,9.7240505,-1.3509283
376,1436898158509,-2.0548236,9.701305,-1.4520833
377,1436898158536,-1.9363106,9.794081,-1.5849615
378,1436898158608,-1.910573,9.733028,-1.6980876
379,1436898158609,-1.839944,9.757569,-1.5867572
380,1436898158610,-1.7651252,9.723452,-1.423353
381,1436898158611,-1.822586,9.736021,-1.5113398
382,1436898158628,-1.8968062,9.634268,-1.650802
383,1436898158648,-2.2493525,9.745598,-1.9033904
384,1436898158669,-2.3289597,9.828198,-2.0991163
385,1436898158690,-2.3732524,9.619304,-1.7345991
386,1436898158718,-2.2720973,9.59177,-1.7872716
387,1436898158730,-1.9099745,9.881469,-1.2479776
388,1436898158754,-1.8950106,9.81084,-1.2856863
389,1436898158793,-1.7938557,9.798869,-1.5526398
390,1436898158797,-1.8794483,9.808446,-1.5699978
391,1436898158812,-2.082357,9.698911,-1.5861586
392,1436898158847,-2.1086931,9.653421,-1.6801311
393,1436898158848,-2.0919337,9.680955,-1.7884687
394,1436898158869,-1.9698294,9.689933,-1.8339585
395,1436898158889,-1.822586,9.698911,-1.9213469
396,1436898158908,-1.7848774,9.677961,-2.0787656
397,1436898158978,-1.8507179,9.67018,-2.1523874
398,1436898158979,-1.9273324,9.585785,-2.303222
399,1436898158980,-1.75076,9.739014,-2.1254525
400,1436898158987,-1.6879122,9.8198185,-2.1170728
401,1436898159009,-1.887828,9.841965,-1.9572599
402,1436898159027,-1.4466964,10.162787,-1.6035166
403,1436898159048,-1.163582,10.369886,-1.0648212
404,1436898159068,-1.4694413,10.147225,-1.1965023
405,1436898159090,-0.16400282,11.159973,0.40342298
406,1436898159107,-2.2218192,10.49199,-0.7733272
407,1436898159133,0.17956513,11.7268,-0.22744916
408,1436898159146,-2.8778305,10.775703,0.20171149
409,1436898159166,-2.4067712,10.453085,-0.79966336
410,1436898159186,-3.9175124,15.133749,1.3754689
411,1436898159206,-0.078410104,9.312247,3.5122938
412,1436898159226,-1.7513585,11.4377,-0.3824737
