id,attr_time,attr_x,attr_y,attr_z
1,1437142188016,0.021991149,0.014966198,-0.021685716
2,1437142188031,0.014660766,0.022602014,-0.020158553
3,1437142188057,0.021380283,0.028099801,-0.013133603
4,1437142188071,0.018325957,0.022296581,-0.011911872
5,1437142188098,0.01985312,0.0018325958,-0.009162978
6,1437142188113,0.018020526,0.006414085,-0.009773844
7,1437142188129,0.01863139,0.015882496,-0.013133603
8,1437142188149,0.01863139,0.02107485,-0.019547688
9,1437142188169,0.013744468,0.020463986,-0.0125227375
10,1437142188196,0.020463986,0.014049901,-0.0070249503
11,1437142188211,0.015577064,0.009773844,-0.0070249503
12,1437142188231,0.014049901,0.008552114,-0.014660766
13,1437142188250,0.008552114,0.019547688,-0.017104227
14,1437142188279,0.017715093,0.021685716,-0.009773844
15,1437142188290,0.013133603,0.028099801,-0.0061086523
16,1437142188338,0.01160644,0.013744468,-0.00580322
17,1437142188339,0.011911872,0.0106901415,-0.009468411
18,1437142188358,0.004886922,0.018936822,-0.016187929
19,1437142188369,0.011911872,0.02443461,-0.025045475
20,1437142188389,0.00061086525,0.026572637,-0.014966198
21,1437142188410,0.0,0.03726278,-0.0106901415
22,1437142188429,0.004886922,0.036651913,-0.010995574
23,1437142188450,0.004581489,0.02107485,-0.016493361
24,1437142188470,-0.00061086525,0.01985312,-0.019547688
25,1437142188495,-0.0012217305,0.034208454,-0.025045475
26,1437142188510,-0.009468411,0.042455133,-0.015577064
27,1437142188532,-0.006414085,0.040927973,-0.015271631
28,1437142188549,-0.009468411,0.03940081,-0.02076942
29,1437142188573,-0.0067195175,0.040011674,-0.021380283
30,1437142188593,-0.009468411,0.043066,-0.021991149
31,1437142188612,-0.008857546,0.03481932,-0.02443461
32,1437142188633,-0.009773844,0.04642576,-0.02076942
33,1437142188650,-0.008552114,0.040317107,-0.009468411
34,1437142188673,-0.016493361,0.02687807,-0.0125227375
35,1437142188693,-0.0125227375,0.027183503,-0.025961773
36,1437142188712,-0.01160644,0.03390302,-0.028405234
37,1437142188731,-0.013439035,0.042760566,-0.022602014
38,1437142188750,-0.009468411,0.043066,-0.020158553
39,1437142188773,-0.014660766,0.037873644,-0.020158553
40,1437142188794,-0.010995574,0.03848451,-0.02107485
41,1437142188811,-0.011911872,0.032070424,-0.024740042
42,1437142188832,-0.010995574,0.036651913,-0.027488936
43,1437142188865,-0.013439035,0.041233405,-0.028405234
44,1437142188932,-0.01160644,0.046731193,-0.022907447
45,1437142188933,-0.016493361,0.04642576,-0.017104227
46,1437142188934,-0.013439035,0.03848451,-0.021380283
47,1437142188935,-0.013744468,0.03481932,-0.022602014
48,1437142188951,-0.008857546,0.047036625,-0.025961773
49,1437142188969,-0.008246681,0.042455133,-0.029932396
50,1437142188990,-0.013133603,0.04062254,-0.027488936
51,1437142189010,-0.013133603,0.043066,-0.029321533
52,1437142189048,-0.015577064,0.042760566,-0.03176499
53,1437142189057,-0.01160644,0.047036625,-0.032070424
54,1437142189078,-0.010995574,0.04550946,-0.03268129
55,1437142189103,-0.008246681,0.043676864,-0.029932396
56,1437142189117,-0.013744468,0.042760566,-0.0290161
57,1437142189133,-0.013439035,0.042455133,-0.023518313
58,1437142189150,-0.008552114,0.043982297,-0.024129177
59,1437142189170,-0.005497787,0.039095376,-0.03359759
60,1437142189191,-0.0067195175,0.04184427,-0.03756821
61,1437142189224,-0.0067195175,0.044898596,-0.03176499
62,1437142189231,-0.01038471,0.04337143,-0.026572637
63,1437142189252,-0.007330383,0.038179077,-0.03268129
64,1437142189271,-0.0027488936,0.03390302,-0.03970624
65,1437142189291,-0.008857546,0.044593163,-0.037873644
66,1437142189313,-0.01282817,0.051618114,-0.018936822
67,1437142189333,-0.008246681,0.041233405,-0.011911872
68,1437142189352,-0.00580322,0.017715093,-0.01985312
69,1437142189373,-0.00580322,0.03573562,-0.030543262
70,1437142189393,-0.008552114,0.04428773,-0.028099801
71,1437142189413,-0.0106901415,0.042455133,-0.02443461
72,1437142189433,-0.013133603,0.040927973,-0.022602014
73,1437142189452,-0.0143553335,0.036651913,-0.016798794
74,1437142189473,-0.013744468,0.035430185,-0.016493361
75,1437142189494,-0.01038471,0.038789943,-0.01985312
76,1437142189512,-0.013744468,0.03481932,-0.02107485
77,1437142189531,-0.01038471,0.05222898,-0.02076942
78,1437142189553,-0.0143553335,0.04886922,-0.013744468
79,1437142189571,-0.0125227375,0.024740042,-0.01985312
80,1437142189591,-0.0036651916,0.020463986,-0.031154128
81,1437142189611,-0.009773844,0.031154128,-0.039095376
82,1437142189636,-0.01282817,0.043982297,-0.032375857
83,1437142189656,-0.01038471,0.0421497,-0.03145956
84,1437142189676,-0.009773844,0.03756821,-0.02687807
85,1437142189694,-0.0106901415,0.03604105,-0.023518313
86,1437142189710,-0.010079277,0.03481932,-0.02565634
87,1437142189730,-0.009773844,0.032986723,-0.027488936
88,1437142189750,-0.00580322,0.036651913,-0.030543262
89,1437142189773,-0.003970624,0.049480084,-0.028405234
90,1437142189795,-0.002443461,0.046120327,-0.027488936
91,1437142189843,-0.0036651916,0.033292156,-0.028405234
92,1437142189844,-0.004581489,0.032070424,-0.03634648
93,1437142189862,-0.004886922,0.040011674,-0.037873644
94,1437142189870,-0.0076358155,0.040317107,-0.036651913
95,1437142189896,-0.006414085,0.04795292,-0.035430185
96,1437142189912,0.0,0.044593163,-0.03359759
97,1437142189933,0.0012217305,0.036957346,-0.03634648
98,1437142189951,0.002443461,0.027794369,-0.037873644
99,1437142189971,-0.00030543262,0.035124753,-0.03848451
100,1437142189995,-0.0036651916,0.03756821,-0.043066
101,1437142190014,-0.00580322,0.042760566,-0.044593163
102,1437142190032,-0.0061086523,0.043676864,-0.03726278
103,1437142190054,0.00030543262,0.035124753,-0.044593163
104,1437142190073,-0.004276057,0.03634648,-0.04062254
105,1437142190093,-0.0012217305,0.040011674,-0.043676864
106,1437142190111,-0.0076358155,0.043676864,-0.03634648
107,1437142190133,-0.0009162979,0.04734206,-0.024740042
108,1437142190154,0.0033597588,0.02321288,-0.02321288
109,1437142190174,-0.00061086525,0.023518313,-0.030543262
110,1437142190194,-0.0036651916,0.03176499,-0.03359759
111,1437142190214,-0.005497787,0.03390302,-0.03604105
112,1437142190235,-0.0067195175,0.03604105,-0.02443461
113,1437142190251,-0.003970624,0.037873644,-0.023518313
114,1437142190274,-0.00580322,0.033292156,-0.022907447
115,1437142190294,0.00030543262,0.03390302,-0.029932396
116,1437142190314,0.0027488936,0.028405234,-0.025961773
117,1437142190334,-0.0012217305,0.034513887,-0.026267206
118,1437142190354,0.0036651916,0.036957346,-0.029932396
119,1437142190374,0.0027488936,0.033292156,-0.034513887
120,1437142190394,0.005192355,0.03970624,-0.03756821
121,1437142190414,0.0030543262,0.03970624,-0.037873644
122,1437142190434,0.004581489,0.03145956,-0.034513887
123,1437142190455,0.005192355,0.03573562,-0.040011674
124,1437142190475,0.0076358155,0.03390302,-0.035124753
125,1437142190494,0.004886922,0.025350908,-0.038789943
126,1437142190514,-0.0012217305,0.015882496,-0.051923547
127,1437142190582,0.0009162979,0.028405234,-0.058643065
128,1437142190583,0.006414085,0.0290161,-0.061086524
129,1437142190584,0.012217305,0.032375857,-0.05497787
130,1437142190592,0.0076358155,0.0030543262,-0.054367006
131,1437142190628,0.0067195175,-0.0009162979,-0.06719518
132,1437142190641,-0.002443461,0.04337143,-0.081855945
133,1437142190683,-0.002443461,0.064751714,-0.08552113
134,1437142190684,-0.008857546,0.061086524,-0.087964594
135,1437142190703,-0.01160644,0.05955936,-0.08582657
136,1437142190711,-0.026267206,0.050396383,-0.093767814
137,1437142190732,-0.03604105,0.059253927,-0.09712757
138,1437142190751,-0.04428773,0.092240654,-0.096516706
139,1437142190771,-0.047036625,0.09254608,-0.093462385
140,1437142190792,-0.05681047,0.0842994,-0.09285152
141,1437142190812,-0.06780604,0.0729984,-0.09712757
142,1437142190834,-0.07971791,0.0852157,-0.108123146
143,1437142190854,-0.086437434,0.112399206,-0.12186762
144,1437142190872,-0.098043874,0.12339478,-0.12950343
145,1437142190892,-0.11178834,0.112399206,-0.13133603
146,1437142190912,-0.12308934,0.11759156,-0.12736541
147,1437142190932,-0.12705997,0.12736541,-0.1328632
148,1437142190958,-0.13958271,0.116675265,-0.13927728
149,1437142190972,-0.1469131,0.14080444,-0.14508049
150,1437142190995,-0.15790866,0.15668693,-0.13958271
151,1437142191015,-0.16462818,0.18967366,-0.13469578
152,1437142191035,-0.17104226,0.24251351,-0.099571034
153,1437142191055,-0.19150625,0.2706133,-0.031154128
154,1437142191077,-0.21471913,0.3454443,0.058643065
155,1437142191095,-0.22540927,0.4804455,0.15974127
156,1437142191117,-0.22235495,0.6786713,0.2648101
157,1437142191134,-0.27152961,0.7486154,0.4266894
158,1437142191181,-0.31123585,0.6908886,0.5674938
159,1437142191182,-0.30879238,0.5662721,0.6249151
160,1437142191191,-0.28405234,0.54519725,0.657291
161,1437142191215,-0.2489276,0.6658431,0.9663888
162,1437142191246,-0.09437868,0.698219,1.2382239
163,1437142191251,0.057726767,0.5375614,1.3594806
164,1437142191273,0.09590584,1.1777482,1.570229
165,1437142191293,0.08093964,1.613906,1.6859881
166,1437142191311,0.0711658,1.6881261,1.7027869
167,1437142191331,0.11178834,1.5344934,1.5531249
168,1437142191353,0.19730948,1.0363328,1.402852
169,1437142191380,0.34055737,0.34574974,1.1093313
170,1437142191395,0.46517387,-0.49602258,0.7153232
171,1437142191411,0.5329799,-0.9593639,0.38789943
172,1437142191431,0.58184916,-1.0317514,-0.05589417
173,1437142191451,0.6041457,-0.90224797,-0.45998153
174,1437142191471,0.6020077,-0.9095783,-0.8622363
175,1437142191491,0.5891795,-1.1820242,-1.138042
176,1437142191511,0.5699373,-1.3753631,-1.4712689
177,1437142191531,0.50426924,-1.4969252,-1.7489072
178,1437142191551,0.42546764,-1.3778065,-1.8793269
179,1437142191572,0.2929099,-1.2574661,-1.9306396
180,1437142191593,0.15210545,-1.133155,-1.8930714
181,1437142191615,0.03970624,-1.0598512,-1.7986927
182,1437142191634,-0.12614368,-1.1169671,-1.616044
183,1437142191655,-0.28344148,-1.3536774,-1.3680327
184,1437142191673,-0.3662137,-1.4880677,-1.1798862
185,1437142191693,-0.40194935,-1.4446963,-0.89675015
186,1437142191714,-0.33414328,-1.119716,-0.6026186
187,1437142191735,-0.2415972,-0.7556403,-0.3744604
188,1437142191755,-0.087964594,-0.5946773,0.26816985
189,1437142191775,-0.30970868,-0.70280045,0.10934488
190,1437142191795,-0.6395759,0.08857546,0.2510656
191,1437142191813,0.29138273,0.8695667,1.6533068
192,1437142191832,0.070249505,-1.4789047,0.68661255
193,1437142191854,-0.0580322,-0.37720928,0.8772025
194,1437142191873,0.057726767,0.094989546,0.91813046
195,1437142191918,0.21410827,-0.5897904,0.8353582
196,1437142191919,0.27763826,-0.13347405,0.8381071
197,1437142191936,0.21777347,0.06414085,0.81581056
198,1437142191953,0.10567969,-0.04520403,0.6954701
199,1437142191972,0.09590584,-0.111177474,0.58459806
200,1437142191993,0.07544186,-0.32895094,0.57696223
201,1437142192012,0.011301007,-0.22204952,0.5852089
202,1437142192032,0.03359759,0.015882496,0.34116822
203,1437142192053,0.071776666,-0.124311075,0.12461651
204,1437142192075,0.1432479,-0.21410827,-0.10293079
205,1437142192095,0.17562376,-0.18509217,-0.2764165
206,1437142192115,0.18020524,-0.21074851,-0.37384954
207,1437142192135,0.13897185,-0.17073683,-0.4364632
208,1437142192155,0.09254608,-0.15118915,-0.5027421
209,1437142192175,0.050701816,-0.13713925,-0.5421429
210,1437142192195,0.035430185,-0.089186326,-0.5885687
211,1437142192215,0.059864793,-0.077579886,-0.6218608
212,1437142192235,0.09285152,-0.10262536,-0.6478226
213,1437142192255,0.12797627,0.015577064,-0.6542367
214,1437142192279,0.15485434,0.09315695,-0.6200282
215,1437142192296,0.14508049,0.13897185,-0.57940567
216,1437142192316,0.116675265,0.1704314,-0.54519725
217,1437142192336,0.04337143,0.16523905,-0.50946164
218,1437142192357,-0.0021380284,0.16432275,-0.49632803
219,1437142192376,0.0070249503,0.27458394,-0.4334089
220,1437142192395,0.013744468,0.25167647,-0.37140608
221,1437142192415,0.026267206,0.21868975,-0.28588495
222,1437142192435,0.02565634,0.115453534,-0.23487769
223,1437142192456,0.009162978,0.17165314,-0.1740966
224,1437142192476,-0.03268129,0.33750305,-0.14049901
225,1437142192497,-0.03390302,0.23701571,-0.14110987
226,1437142192514,-0.02076942,0.19853121,-0.10048734
227,1437142192541,-0.028099801,0.14874569,0.004886922
228,1437142192596,-0.0018325958,0.10140363,0.19211712
229,1437142192597,-0.032986723,0.04917465,0.33353242
230,1437142192598,-0.15210545,-0.09590584,0.43493605
231,1437142192613,-0.1282817,-0.1328632,0.49632803
232,1437142192635,-0.106595986,0.12583824,0.5662721
233,1437142192656,-0.081855945,0.23182335,0.6808093
234,1437142192674,-0.076052725,0.25442538,0.7315111
235,1437142192694,-0.105374254,0.28069258,0.6948592
236,1437142192715,-0.13775012,0.45234573,0.5216789
237,1437142192734,-0.19456059,0.6096435,0.29077184
238,1437142192754,-0.2742785,0.7516697,0.1600467
239,1437142192773,-0.39400807,0.82527894,0.06841691
240,1437142192797,-0.47403142,1.0305296,0.060170226
241,1437142192813,-0.5177083,1.215011,-0.004886922
242,1437142192837,-0.56688297,1.2932017,-0.12583824
243,1437142192856,-0.6618725,1.0720685,-0.1301143
244,1437142192906,-0.7849618,0.32559118,0.12644911
245,1437142192907,-0.6554584,-0.57696223,1.0173961
246,1437142192915,-0.10842858,-1.9614882,1.9975294
247,1437142192937,0.12064589,-2.1704042,2.6441302
248,1437142192957,0.0711658,-0.7611381,3.107166
249,1437142192977,0.09101892,1.1728612,3.424205
250,1437142192997,0.07727446,2.778826,3.5442402
251,1437142193013,0.19425514,2.7791314,3.4468071
252,1437142193037,0.39828414,2.4553728,3.1584787
253,1437142193053,0.54183745,1.6801848,2.6893342
254,1437142193074,0.6792821,0.6973027,2.2996023
255,1437142193094,0.8491027,0.011301007,1.7101172
256,1437142193115,0.97158116,-0.44257188,1.001819
257,1437142193134,0.97066486,-0.41630468,0.44623706
258,1437142193156,0.89552844,-0.23823744,-0.2941316
259,1437142193175,0.80878556,-0.07544186,-1.0155635
260,1437142193196,0.77304995,-0.056505036,-1.5146403
261,1437142193219,0.7287622,-0.23487769,-2.147802
262,1437142193235,0.59437186,-0.73761976,-2.6502388
263,1437142193256,0.49174652,-1.1533136,-2.8655689
264,1437142193278,0.27397305,-1.464244,-3.0201178
265,1437142193326,-0.023823744,-1.6471981,-2.9648345
266,1437142193327,-0.2932153,-1.5845845,-2.7394252
267,1437142193341,-0.605062,-1.2950343,-2.5076017
268,1437142193354,-0.7828238,-0.88514376,-2.082745
269,1437142193378,-0.77671516,-0.54733527,-1.5012014
270,1437142193395,-0.7107417,-0.7519751,-1.022283
271,1437142193414,-0.5122105,-0.90041536,-0.49968776
272,1437142193448,-0.30726522,-0.8216137,-0.1600467
273,1437142193455,-0.21044308,-0.2574797,-0.07696902
274,1437142193475,-0.13255776,0.15057829,-0.0012217305
275,1437142193496,0.0571159,-0.06627888,0.07666359
276,1437142193517,0.61483586,-0.8527679,0.5766568
277,1437142193535,0.055588737,-2.0772474,0.5864306
278,1437142193558,-0.312763,0.64660084,0.52870387
279,1437142193578,-0.080634214,2.6401596,0.7318166
280,1437142193597,-0.22968534,-0.4813618,0.78893244
281,1437142193617,-0.18784106,-1.0940597,0.4633413
282,1437142193637,-0.15393804,0.50854534,0.40683624
283,1437142193658,-0.23671028,-0.027488936,0.23243423
284,1437142193678,-0.22327125,-0.0983493,0.21166481
285,1437142193697,-0.24220806,0.11301007,-0.0015271631
286,1437142193715,-0.16554448,0.04917465,-0.093767814
287,1437142193737,-0.031154128,0.00580322,-0.10629055
288,1437142193758,0.06780604,-0.35460728,-0.26145032
289,1437142193778,0.12950343,-0.2406809,-0.41783184
290,1437142193797,0.14172074,0.06566802,-0.56413406
291,1437142193816,0.08552113,-0.03023783,-0.6395759
292,1437142193837,0.022907447,-0.16920967,-0.70829827
293,1437142193859,-0.027183503,-0.22693644,-0.7623598
294,1437142193878,-0.015882496,-0.24251351,-0.8072584
295,1437142193898,0.039095376,-0.1777618,-0.786489
296,1437142193918,0.13164146,-0.22937989,-0.7144069
297,1437142193934,0.1872302,-0.37873647,-0.7144069
298,1437142193955,0.16065755,-0.3200934,-0.8011498
299,1437142193975,0.07544186,-0.09712757,-0.79320854
300,1437142193995,-0.0106901415,0.016493361,-0.65668017
301,1437142194024,-0.02565634,0.031154128,-0.5152648
302,1437142194035,-0.01282817,0.03023783,-0.43096542
303,1437142194111,-0.008857546,-0.014049901,-0.34391713
304,1437142194123,0.008857546,0.023823744,-0.21563543
305,1437142194124,0.016493361,-0.0021380284,-0.116675265
306,1437142194140,0.021991149,0.047036625,0.055588737
307,1437142194144,0.048258353,0.060170226,0.21288654
308,1437142194163,0.04795292,0.10140363,0.2828306
309,1437142194175,0.049785517,0.17012598,0.3481932
310,1437142194195,0.05009095,0.1777618,0.4083634
311,1437142194215,0.025961773,0.13255776,0.44715336
312,1437142194235,-0.018325957,0.15393804,0.48747048
313,1437142194267,-0.06414085,0.19181168,0.48533243
314,1437142194275,-0.112704635,0.31764993,0.47158796
315,1437142194295,-0.15454891,0.3912592,0.4111123
316,1437142194316,-0.23396139,0.37904188,0.30390546
317,1437142194335,-0.2855795,0.4792238,0.23762658
318,1437142194355,-0.312763,0.58276546,0.22571471
319,1437142194375,-0.40317106,0.54336464,0.1966986
320,1437142194398,-0.47678033,0.49418998,0.2501493
321,1437142194418,-0.4560109,0.67347896,0.33505958
322,1437142194438,-0.33200526,1.0256428,0.35888332
323,1437142194458,-0.30207285,1.4089607,0.51343226
324,1437142194478,-0.3200934,1.5137241,1.1032226
325,1437142194498,-0.21655174,0.6646214,1.9483547
326,1437142194519,-0.28588495,-0.78801614,3.0418036
327,1437142194536,-0.15882497,-1.0115929,3.2736268
328,1437142194558,-0.15577064,0.958753,3.5463781
329,1437142194579,-0.009773844,2.552806,3.5393531
330,1437142194598,0.10048734,2.4373524,3.3887749
331,1437142194618,0.29260445,2.05434,3.1138856
332,1437142194638,0.44532076,1.4337007,2.5008824
333,1437142194658,0.5702427,0.4605924,1.996613
334,1437142194677,0.75319684,-0.37415496,1.31672
335,1437142194697,0.81183994,-1.2757921,0.3753767
336,1437142194718,0.7797695,-1.2253957,-0.29932398
337,1437142194739,0.72143185,-0.8549059,-1.1117748
338,1437142194758,0.6444628,-0.8008443,-1.8619173
339,1437142194775,0.5314528,-1.208597,-2.3499987
340,1437142194800,0.34483343,-1.4065173,-2.805704
341,1437142194857,0.12522738,-1.4547756,-3.0607402
342,1437142194858,-0.12583824,-1.3698653,-3.1138856
343,1437142194859,-0.258396,-1.0754282,-3.0341678
344,1437142194875,-0.40286562,-0.9202685,-2.7107146
345,1437142194895,-0.56016344,-0.73761976,-2.2525656
346,1437142194919,-0.67256266,-0.3848451,-1.8414533
347,1437142194935,-0.70096785,-0.1386664,-1.1334605
348,1437142194956,-0.6301075,-0.22907446,-0.4908302
349,1437142194978,-0.52626044,-0.25320363,-0.14844026
350,1437142194996,-0.35124752,-0.2846632,0.1704314
351,1437142195017,-0.16157386,-0.6795876,0.3359759
352,1437142195037,0.09132435,-1.1236867,0.3680463
353,1437142195059,0.6239988,-1.3460416,0.52534413
354,1437142195076,-0.015577064,-1.7938058,-0.11881329
355,1437142195096,-0.6178902,2.0980167,0.7079928
356,1437142195117,-0.3827071,1.4764613,0.8503244
357,1437142195136,-0.44135013,-1.1362094,0.48472157
358,1437142195157,-0.27000242,-0.3915646,0.1423316
359,1437142195178,-0.27275133,0.5882632,-0.0729984
360,1437142195199,-0.24220806,0.13652839,-0.14905111
361,1437142195219,-0.21410827,-0.13897185,-0.31337386
362,1437142195239,-0.20769419,-0.04917465,-0.38545597
363,1437142195258,-0.172264,0.004886922,-0.23732115
364,1437142195276,-0.061086524,-0.19150625,-0.20861048
365,1437142195299,0.05467244,-0.12705997,-0.3585779
366,1437142195319,0.15241088,-0.0711658,-0.5531385
367,1437142195336,0.16707164,-0.1255328,-0.7067711
368,1437142195357,0.13530666,-0.23793201,-0.84329945
369,1437142195378,0.09560041,-0.3145956,-0.9575313
370,1437142195400,0.096516706,-0.23243423,-0.93492925
371,1437142195420,0.13744467,-0.16707164,-0.9083566
372,1437142195439,0.16218472,-0.16340645,-0.9309586
373,1437142195494,0.14844026,0.016798794,-0.9074403
374,1437142195496,0.17379116,0.4089743,-0.8539896
375,1437142195497,0.18387043,0.54061574,-0.788627
376,1437142195517,0.1337795,0.45081854,-0.7281514
377,1437142195538,0.12858713,0.33475417,-0.65668017
378,1437142195607,0.099265605,0.35918877,-0.52931476
379,1437142195608,0.04917465,0.4868596,-0.39278635
