id,attr_time,attr_x,attr_y,attr_z
1,1437142188016,0.022880886,-0.031353317,-0.025789136
2,1437142188039,0.020742858,-0.031353317,-0.024261974
3,1437142188059,0.027462374,-0.028604425,-0.022123946
4,1437142188079,0.03173843,-0.03165875,-0.01693159
5,1437142188097,0.03479276,-0.029826157,-0.013266399
6,1437142188118,0.03540362,-0.017303418,-0.017542455
7,1437142188135,0.03479276,-0.029826157,-0.01693159
8,1437142188155,0.030822134,-0.047235817,-0.021818513
9,1437142188175,0.02104829,-0.046930384,-0.016626157
10,1437142188195,0.026240645,-0.0536499,-0.016320724
11,1437142188219,0.042734005,-0.04998471,-0.01570986
12,1437142188235,0.051896982,-0.040210865,-0.012350101
13,1437142188255,0.04334487,-0.019136013,-0.011128371
14,1437142188275,0.02440805,-0.036240242,-0.01448813
15,1437142188295,0.016772233,-0.06525634,-0.011128371
16,1437142188318,0.020742858,-0.06220201,-0.014182697
17,1437142188337,0.037847083,-0.060980286,-0.010517505
18,1437142188358,0.030822134,-0.055482496,-0.013266399
19,1437142188377,0.030211268,-0.05120644,-0.008990342
20,1437142188397,0.02440805,-0.060063984,-0.015098995
21,1437142188422,0.016161367,-0.05639879,-0.012350101
22,1437142188436,0.02471348,-0.058842253,-0.004408853
23,1437142188456,0.025324346,-0.061285716,-0.0056305826
24,1437142188475,0.03387646,-0.049679276,-0.010822938
25,1437142188496,0.043650303,-0.028909858,-0.01570986
26,1437142188515,0.031127566,-0.018525148,-0.009295775
27,1437142188553,0.028378673,-0.020663176,-0.0037979875
28,1437142188556,0.029905837,-0.014554525,-0.0034925546
29,1437142188575,0.030211268,-0.014554525,-0.006546881
30,1437142188597,0.03845795,-0.022495773,-0.005019719
31,1437142188617,0.04823179,-0.01974688,-0.0077686124
32,1437142188639,0.029905837,-0.02219034,-0.008074044
33,1437142188656,0.017383099,-0.030742455,-0.004408853
34,1437142188676,0.016772233,-0.028604425,-0.0034925546
35,1437142188700,0.032349296,-0.027077261,-0.0007436611
36,1437142188720,0.0595328,-0.02432837,-0.00990664
37,1437142188741,0.06472515,-0.014249092,-0.00868491
38,1437142188778,0.045177467,-0.006307844,-0.00990664
39,1437142188779,0.028989539,-0.010889333,-0.0056305826
40,1437142188796,0.02471348,-0.024939235,-0.002576258
41,1437142188817,0.043650303,-0.031047884,-0.0013545267
42,1437142188836,0.06380886,-0.009973034,-0.012350101
43,1437142188863,0.04914809,-0.009973034,-0.018153321
44,1437142188879,0.031127566,-0.025244664,-0.015098995
45,1437142188904,0.02227002,-0.0396,-0.009601207
46,1437142188917,0.023797184,-0.037767403,-0.006241448
47,1437142188989,0.048537225,-0.027688127,-0.0074631795
48,1437142188990,0.059227366,-0.0060024112,-0.00868491
49,1437142188991,0.052202415,0.008658355,-0.006852314
50,1437142188996,0.04426117,0.008658355,-0.006852314
51,1437142189028,0.039068814,-0.011805631,0.00017263554
52,1437142189049,0.039068814,-0.016081687,0.00017263554
53,1437142189091,0.04578833,-0.009056738,-0.0034925546
54,1437142189092,0.05006439,-0.0060024112,-0.00043822825
55,1437142189097,0.052507848,-0.017914284,-0.0034925546
56,1437142189117,0.052202415,-0.024939235,-0.0041034203
57,1437142189140,0.046704628,-0.02585553,-0.0019653924
58,1437142189157,0.042734005,-0.026466396,0.0013943668
59,1437142189177,0.049453523,-0.026466396,0.002921529
60,1437142189199,0.04914809,-0.0105839,0.0023106653
61,1437142189217,0.04792636,-0.017608851,0.004754126
62,1437142189237,0.05495131,-0.03013159,0.007197587
63,1437142189260,0.0586165,-0.027688127,0.008113883
64,1437142189277,0.057700202,-0.023412071,0.009335615
65,1437142189300,0.0586165,-0.021274041,0.007197587
66,1437142189317,0.05403501,-0.031353317,0.003226962
67,1437142189337,0.049453523,-0.050595574,0.0075030196
68,1437142189358,0.05036982,-0.046014085,0.011168212
69,1437142189376,0.055562176,-0.0386837,0.010862779
70,1437142189396,0.06411429,-0.023412071,0.0078084506
71,1437142189418,0.06411429,-0.026466396,0.007197587
72,1437142189436,0.06167083,-0.032269616,0.006586721
73,1437142189459,0.051286116,-0.030437022,0.00994648
74,1437142189476,0.04212314,-0.021884907,0.0114736445
75,1437142189496,0.045177467,-0.020663176,0.009335615
76,1437142189516,0.053118713,-0.02219034,0.005059559
77,1437142189536,0.04334487,-0.029215291,0.003226962
78,1437142189556,0.04792636,-0.012111064,0.0026160982
79,1437142189576,0.048537225,0.00041167438,0.0038378276
80,1437142189596,0.0445666,-0.0011154888,0.0056704246
81,1437142189616,0.046399195,-0.016081687,0.003226962
82,1437142189636,0.03387646,-0.026160963,0.0020052325
83,1437142189656,0.027462374,-0.035629377,0.006892154
84,1437142189676,0.026546078,-0.024022937,0.011168212
85,1437142189696,0.029905837,-0.01974688,0.0016997997
86,1437142189716,0.03967968,0.016599603,-0.0053251516
87,1437142189736,0.05159155,0.013545277,-0.00013279542
88,1437142189757,0.03998511,-0.025244664,0.0023106653
89,1437142189777,0.027767807,-0.034102213,0.0062812883
90,1437142189796,0.030822134,-0.03471308,-0.00043822825
91,1437142189816,0.03998511,-0.03593481,-0.00013279542
92,1437142189837,0.049453523,-0.03471308,0.0013943668
93,1437142189858,0.050675254,-0.041127164,-0.0022708252
94,1437142189877,0.0454829,-0.03593481,-0.0031871218
95,1437142189897,0.03662535,-0.029520724,-0.00868491
96,1437142189918,0.04212314,-0.023717504,-0.0013545267
97,1437142189940,0.05495131,-0.0014209216,0.0026160982
98,1437142189957,0.06075453,-0.0014209216,-0.00013279542
99,1437142189977,0.06258713,-0.004169815,0.0026160982
100,1437142189999,0.060143664,-0.0038643824,-0.004408853
101,1437142190017,0.055562176,-0.0069187097,-0.0010490939
102,1437142190037,0.046093762,-0.008445872,-0.00013279542
103,1437142190058,0.046704628,-0.011500198,-0.0016599596
104,1437142190081,0.04792636,-0.033491347,-0.00013279542
105,1437142190101,0.058311068,-0.0405163,-0.002576258
106,1437142190121,0.050980687,-0.03593481,-0.009295775
107,1437142190139,0.035098188,-0.039294567,-0.008074044
108,1437142190159,0.033571027,-0.038072836,-0.0034925546
109,1437142190190,0.040290542,-0.037156537,-0.002576258
110,1437142190207,0.042734005,-0.037767403,0.0007835012
111,1437142190218,0.041817706,-0.0405163,-0.0007436611
112,1437142190239,0.041817706,-0.03654567,-0.0056305826
113,1437142190258,0.040901408,-0.03654567,0.0035323948
114,1437142190278,0.056478474,-0.02799356,0.0016997997
115,1437142190298,0.055562176,-0.0017263545,-0.0019653924
116,1437142190319,0.05739477,-0.0072241407,-0.006852314
117,1437142190341,0.053424146,-0.0020317873,-0.0053251516
118,1437142190360,0.03845795,0.0013279719,-0.005019719
119,1437142190378,0.029294971,-0.0017263545,-0.0071577467
120,1437142190398,0.029600404,-0.0023372192,-0.0022708252
121,1437142190424,0.047620926,-0.0035589505,0.0016997997
122,1437142190439,0.05586761,0.012934412,-0.010517505
123,1437142190461,0.052507848,-0.0075295735,-0.012655534
124,1437142190483,0.041512273,-0.008140439,-0.008074044
125,1437142190499,0.028684106,0.0074366243,0.00017263554
126,1437142190519,0.03173843,-0.008140439,-0.0031871218
127,1437142190540,0.05281328,-0.025550097,-0.0053251516
128,1437142190560,0.06258713,-0.01638712,-0.006852314
129,1437142190584,0.051286116,-0.014554525,-0.004714286
130,1437142190646,0.039374247,-0.005086113,-0.002881689
131,1437142190647,0.02471348,-0.013027361,-0.006852314
132,1437142190648,0.021964587,-0.042959757,-0.013266399
133,1437142190667,0.019521127,-0.045708653,-0.0053251516
134,1437142190679,0.022880886,-0.048457544,-0.009295775
135,1437142190698,0.009747283,-0.04448692,-0.00990664
136,1437142190719,0.0018060345,-0.04173803,-0.0077686124
137,1437142190740,-0.022323143,-0.04326519,-0.005019719
138,1437142190762,-0.024766603,-0.06983782,-0.0013545267
139,1437142190780,-0.0067460793,-0.08572033,-0.004408853
140,1437142190800,0.008830985,-0.10862777,-0.0037979875
141,1437142190820,0.011579879,-0.1098495,0.0035323948
142,1437142190839,0.015245071,-0.10190825,0.0056704246
143,1437142190859,0.016161367,-0.105573446,0.016055133
144,1437142190880,0.028378673,-0.12634286,0.02155292
145,1437142190901,0.043650303,-0.13061893,0.021858353
146,1437142190920,0.061365396,-0.117485315,0.022774652
147,1437142190940,0.07999679,-0.095494166,0.032853927
148,1437142190961,0.07999679,-0.081138834,0.03804628
149,1437142190980,0.077247895,-0.08846922,0.042627774
150,1437142191000,0.09526842,-0.10801691,0.048736423
151,1437142191020,0.11267808,-0.14405796,0.05056902
152,1437142191040,0.1203139,-0.15596983,0.05759397
153,1437142191063,0.12153562,-0.15077747,0.05637224
154,1437142191106,0.1297823,-0.13825475,0.06675695
155,1437142191107,0.1569658,-0.1425308,0.07103301
156,1437142191126,0.17315373,-0.13703302,0.07622536
157,1437142191143,0.16582334,-0.14283623,0.07714166
158,1437142191159,0.16429618,-0.15963502,0.08966439
159,1437142191193,0.15574408,-0.1519992,0.099438235
160,1437142191199,0.17223743,-0.15627527,0.10157627
161,1437142191222,0.20736219,-0.16146763,0.099132806
162,1437142191243,0.23362939,-0.1678817,0.09241329
163,1437142191261,0.2403489,-0.17124146,0.099438235
164,1437142191282,0.21041651,-0.19750866,0.11165555
165,1437142191302,0.17162657,-0.22133242,0.13883905
166,1437142191320,0.15666036,-0.21125314,0.17121491
167,1437142191340,0.22019036,-0.18498594,0.22436018
168,1437142191360,0.32251027,-0.19078915,0.2683425
169,1437142191381,0.47186685,-0.20209016,0.30438352
170,1437142191402,0.59709424,-0.23813121,0.30102378
171,1437142191429,0.6184745,-0.30105034,0.2649827
172,1437142191439,0.50729704,-0.36213684,0.19228975
173,1437142191461,0.3310624,-0.4091735,0.15227808
174,1437142191479,0.21988492,-0.38168454,0.18557024
175,1437142191501,0.20125353,-0.29127648,0.22191672
176,1437142191531,0.23546198,-0.23110625,0.24054812
177,1437142191592,0.24248694,-0.1697143,0.25520885
178,1437142191593,0.18842536,-0.15383181,0.2677316
179,1437142191594,0.16429618,-0.17276862,0.26040125
180,1437142191612,0.16704507,-0.21216944,0.27353483
181,1437142191621,0.21133281,-0.28455696,0.27384025
182,1437142191639,0.2308805,-0.3270121,0.2478785
183,1437142191669,0.2140817,-0.34258917,0.19870384
184,1437142191680,0.21347083,-0.37313244,0.16999318
185,1437142191701,0.24126521,-0.341062,0.15105635
186,1437142191720,0.25745314,-0.27142337,0.14006078
187,1437142191742,0.22843704,-0.24821049,0.1299815
188,1437142191761,0.14535937,-0.25431913,0.080501415
189,1437142191780,0.07480443,-0.20178473,0.0053649917
190,1437142191800,0.024102617,-0.15841329,-0.026705435
191,1437142191823,-0.058669627,-0.18987286,-0.034952115
192,1437142191841,-0.14968856,-0.16940887,-0.04839115
193,1437142191861,-0.21260767,-0.04784668,-0.078934416
194,1437142191880,-0.2599497,0.026373446,-0.11131027
195,1437142191901,-0.33875135,0.0049931635,-0.17514569
196,1437142191923,-0.4169421,-0.054260764,-0.21393563
197,1437142191940,-0.42549422,-0.060980286,-0.21882255
198,1437142191961,-0.35188496,-0.0020317873,-0.25150383
199,1437142191981,-0.270029,0.06669055,-0.2884612
200,1437142192065,-0.04278713,0.006214894,-0.26463744
201,1437142192066,0.11023462,-0.24362901,-0.2267638
202,1437142192067,-0.011022136,-0.50263584,-0.27410585
203,1437142192068,-0.2324608,-0.3887095,-0.34557712
204,1437142192096,-0.29202014,0.08410022,-0.22004429
205,1437142192100,-0.26544753,0.0605819,-0.15376541
206,1437142192120,-0.13624951,-0.19995213,-0.1574306
207,1437142192148,-0.012854731,-0.47026,-0.2362322
208,1437142192161,0.008830985,-0.40245396,-0.2145465
209,1437142192188,-0.04431429,-0.23171712,-0.17025876
210,1437142192203,-0.19550344,-0.17001973,-0.16476098
211,1437142192220,-0.41266605,-0.104046285,-0.26647004
212,1437142192245,-0.5861518,-0.03257505,-0.34466082
213,1437142192264,-0.99512607,-0.036851104,-0.43598515
214,1437142192280,-1.3204118,-0.04326519,-0.5251715
215,1437142192301,-1.2165647,-0.15627527,-0.52059
216,1437142192321,-0.9019691,-0.3737433,-0.5251715
217,1437142192347,-0.58034855,-0.4122278,-0.5868689
218,1437142192361,-0.49330026,-0.25309741,-0.6290186
219,1437142192383,-0.4404604,-0.031353317,-0.59694815
220,1437142192400,-0.37693042,0.106091365,-0.531891
221,1437142192424,-0.29263103,0.10303703,-0.4643904
222,1437142192446,-0.22849017,0.12441732,-0.4103288
223,1437142192543,-0.24864873,0.116476074,-0.36084872
224,1437142192544,-0.34699804,0.08745997,-0.3196153
225,1437142192554,-0.46428415,0.047448296,-0.3406902
226,1437142192557,-0.5033795,-0.028909858,-0.36817908
227,1437142192581,-0.4749743,0.0007171063,-0.337025
228,1437142192582,-0.39861614,0.051418923,-0.24600606
229,1437142192583,-0.3644077,0.07066117,-0.21088131
230,1437142192600,-0.38364995,-0.002642652,-0.2866286
231,1437142192627,-0.39525637,-0.09366158,-0.32969457
232,1437142192645,-0.34363827,-0.14283623,-0.2844906
233,1437142192667,-0.29843423,-0.1434471,-0.1977477
234,1437142192683,-0.30301574,-0.13642214,-0.15529257
235,1437142192700,-0.31828737,-0.117179886,-0.15284911
236,1437142192721,-0.30881894,-0.10679518,-0.14399156
237,1437142192743,-0.31920364,-0.1293972,-0.1152809
238,1437142192763,-0.3381405,-0.20086843,-0.10000926
239,1437142192782,-0.3729598,-0.23690948,-0.07710181
240,1437142192801,-0.38151193,-0.21797265,-0.0825996
241,1437142192824,-0.22635214,-0.1706306,-0.046863988
242,1437142192842,0.009136418,-0.13458955,0.010251913
243,1437142192861,0.32373202,-0.13947648,0.08447204
244,1437142192883,0.441629,-0.20880967,0.107684925
245,1437142192903,0.37809902,-0.26928532,0.1150153
246,1437142192923,0.18109497,-0.27233967,0.1281489
247,1437142192944,-0.045841455,-0.28425154,0.13792275
248,1437142192967,-0.012854731,-0.3673292,0.12326199
249,1437142193031,0.10290424,-0.49225113,0.15960847
250,1437142193032,0.34175253,-0.5838809,0.1965658
251,1437142193033,0.73728776,-0.6568793,0.07927968
252,1437142193052,0.817922,-0.19292718,0.080195986
253,1437142193063,0.7357606,-0.19628693,0.19473322
254,1437142193080,0.7837135,-0.5298193,0.3593614
255,1437142193110,0.88389546,-0.5090499,0.42258596
256,1437142193121,0.78921133,-0.07319759,0.50322014
257,1437142193147,0.86495864,0.1748137,0.5728588
258,1437142193162,1.1502327,0.14457586,0.6046238
259,1437142193182,1.2940915,0.08654368,0.5478133
260,1437142193205,1.2177333,0.18275495,0.43724674
261,1437142193221,1.0372226,0.30095738,0.40456545
262,1437142193242,0.8060101,0.31561813,0.4259457
263,1437142193261,0.8176166,0.19313966,0.4436608
264,1437142193283,0.9199365,0.11342174,0.41861534
265,1437142193306,1.1508435,0.14091067,0.3593614
266,1437142193395,1.3105848,0.18153322,0.3361485
267,1437142193396,1.302949,0.14243785,0.35325277
268,1437142193397,1.2553015,0.0773807,0.359056
269,1437142193398,1.1636717,0.02790061,0.338592
270,1437142193405,0.9956838,-0.006613277,0.2994966
271,1437142193424,0.8777868,-0.035629377,0.22313845
272,1437142193611,0.86159885,-0.016692553,0.15685958
273,1437142193612,0.8762596,-0.093967006,0.087526366
274,1437142193613,0.77821577,-0.32548493,0.034686524
275,1437142193614,0.6245831,-0.42597228,0.011168212
276,1437142193615,0.39153805,-0.3309827,0.013306238
277,1437142193616,0.23760001,-0.14589055,0.0038378276
278,1437142193617,0.23118593,-0.102519125,-0.064579085
279,1437142193618,0.258064,-0.06372918,-0.13513401
280,1437142193619,0.20919478,-0.016692553,-0.21607366
281,1437142193625,0.052202415,0.056611277,-0.23470505
282,1437142193643,-0.12739196,0.09356862,-0.27135697
283,1437142193664,-0.26666924,-0.03593481,-0.3043437
284,1437142193685,-0.3430274,-0.16940887,-0.31564468
285,1437142193707,-0.22604671,-0.23813121,-0.25516903
286,1437142193723,-0.062334817,-0.23477145,-0.24142458
287,1437142193742,-0.0015537245,-0.23293886,-0.25975055
288,1437142193761,-0.035456747,-0.29005477,-0.24386802
289,1437142193784,-0.21199681,-0.43482983,-0.21179761
290,1437142193805,-0.4114443,-0.43513525,-0.23745394
291,1437142193824,-0.6875554,-0.2763103,-0.3183936
292,1437142193844,-0.94259167,-0.09885393,-0.3532129
293,1437142193863,-0.925182,-0.09366158,-0.2502821
294,1437142193884,-0.81614256,-0.08572033,-0.23775938
295,1437142193904,-0.8158371,-0.17948814,-0.25394732
296,1437142193925,-0.9123538,-0.11656903,-0.33274895
297,1437142193945,-1.0827852,0.19558312,-0.4937119
298,1437142193962,-1.2385559,0.3928926,-0.5486898
299,1437142193992,-1.2101506,0.36418194,-0.54533005
300,1437142194057,-0.98962826,0.2917944,-0.42376786
301,1437142194058,-0.8011763,0.4118294,-0.25455818
302,1437142194059,-0.714128,0.3892274,-0.19133362
303,1437142194074,-0.79292965,0.2588077,-0.17545111
304,1437142194087,-0.8005655,0.12960967,-0.22798553
305,1437142194103,-0.7773526,0.19924831,-0.23226158
306,1437142194131,-0.7471148,0.27255213,-0.22493121
307,1437142194143,-0.66861856,0.25514248,-0.24020284
308,1437142194164,-0.61241895,0.14610302,-0.24570063
309,1437142194182,-0.61211354,0.045004837,-0.2408137
310,1437142194203,-0.59928536,-0.027688127,-0.22615294
311,1437142194224,-0.5751562,-0.102519125,-0.22493121
312,1437142194248,-0.5030741,-0.13489498,-0.23806481
313,1437142194264,-0.46856022,-0.13153522,-0.22462578
314,1437142194285,-0.46733847,-0.118707046,-0.19499882
315,1437142194302,-0.46245155,-0.12359397,-0.15834689
316,1437142194325,-0.44259843,-0.13397868,-0.11925152
317,1437142194345,-0.38273364,-0.12115051,-0.049918316
318,1437142194365,-0.22268695,-0.06708893,0.04354407
319,1437142194385,-0.06019679,0.015988737,0.11837506
320,1437142194423,0.03173843,0.081351325,0.14464226
321,1437142194424,0.04823179,0.057222143,0.14006078
322,1437142194446,-0.005524348,-0.09060724,0.13028693
323,1437142194470,-0.05195011,-0.2146129,0.11379357
324,1437142194523,-0.085242264,-0.23416059,0.09455132
325,1437142194524,-0.037289344,-0.27905917,0.08905353
326,1437142194545,0.02562978,-0.2970797,0.09241329
327,1437142194546,0.0036386303,-0.3370914,0.07164387
328,1437142194565,0.021659156,-0.42505598,0.04934729
329,1437142194585,0.13650182,-0.47178715,0.06248089
330,1437142194602,0.39795214,-0.5350117,0.074698195
331,1437142194622,0.659097,-0.7026942,0.09577305
332,1437142194646,0.976747,-0.6031232,0.19748211
333,1437142194664,1.0250053,-0.21827808,0.2900282
334,1437142194682,0.9608645,-0.3202926,0.3584451
335,1437142194702,0.94681454,-0.4122278,0.4464097
336,1437142194723,1.0121771,-0.1602459,0.48458874
337,1437142194744,1.1832194,0.08807084,0.45832157
338,1437142194762,1.0961711,0.09265232,0.40853608
339,1437142194782,1.0048468,0.20780042,0.38623947
340,1437142194808,1.0329466,0.26338917,0.39937305
341,1437142194827,1.1199949,0.25392076,0.39631873
342,1437142194848,1.1951313,0.28293684,0.40456545
343,1437142194864,1.2094866,0.2667489,0.42289138
344,1437142194883,1.1566467,0.21665797,0.47420406
345,1437142194902,1.0503563,0.22551551,0.46962255
346,1437142194925,0.9232963,0.27255213,0.40761977
347,1437142194946,0.8029558,0.30889863,0.3031618
348,1437142194967,0.7837135,0.37762097,0.27872717
349,1437142195008,0.7983743,0.28874007,0.23841007
350,1437142195009,0.7482834,0.2132982,0.18190505
351,1437142195022,0.6557373,0.16687246,0.119291365
352,1437142195045,0.5497522,0.13694005,0.08996983
353,1437142195062,0.52256864,0.09937185,0.07530906
354,1437142195083,0.48133525,0.119835824,0.085999206
355,1437142195102,0.37718272,0.17145394,0.090580694
356,1437142195126,0.37687728,0.3153127,-0.0059360154
357,1437142195146,0.37962618,0.47749743,-0.13513401
358,1437142195163,0.29593766,0.48513323,-0.1742294
359,1437142195185,0.16185272,0.3864785,-0.12902537
360,1437142195206,0.005471226,0.19680485,-0.1284145
361,1437142195223,-0.04736862,0.050808057,-0.13818833
362,1437142195244,-0.076690145,0.04622657,-0.17086963
363,1437142195263,-0.05683703,-0.040210865,-0.21760082
364,1437142195284,0.017688531,-0.23171712,-0.23837024
365,1437142195305,0.04578833,-0.46812198,-0.22401491
366,1437142195329,-0.2501759,-0.66420966,-0.23317789
367,1437142195348,-0.7089357,-0.5292085,-0.36543024
368,1437142195365,-0.82774895,-0.16818714,-0.46500123
369,1437142195383,-0.8778399,0.021791957,-0.5419703
370,1437142195404,-0.8140045,0.0010225391,-0.50256944
371,1437142195427,-0.8744802,-0.36855093,-0.4295711
372,1437142195528,-1.133487,-0.6012906,-0.4084962
373,1437142195529,-1.2501622,-0.51882374,-0.5529659
374,1437142195530,-1.1667792,-0.28547326,-0.68674535
375,1437142195531,-1.0116194,-0.025244664,-0.6733063
