id,attr_time,attr_x,attr_y,attr_z
1,1436796648005,-0.000244141,-0.00216675,-0.008255
2,1436796648024,-0.017334,-0.00216675,-0.0125275
3,1436796648044,-0.0386963,-0.0128479,-0.0114594
4,1436796648064,-0.0280151,-0.0171204,-0.00932312
5,1436796648084,-0.0119934,-0.00964355,-0.000778198
6,1436796648104,-0.00238037,-0.00216675,-0.00184631
7,1436796648124,-0.0162659,-0.00537109,0.00135803
8,1436796648143,-0.0344238,-0.00857544,-0.00291443
9,1436796648163,-0.0322876,-0.00323486,-0.00932312
10,1436796648183,-0.00344849,-0.00216675,0.000289917
11,1436796648203,0.0189819,-0.00964355,0.00456238
12,1436796648222,0.010437,-0.00643921,0.00456238
13,1436796648243,-0.00131226,0.00210571,0.0109711
14,1436796648262,-0.00344849,0.0010376,0.0120392
15,1436796648282,0.00509644,0.0010376,0.00349426
16,1436796648302,0.0211182,-0.00216675,0.00563049
17,1436796648322,0.0093689,-0.00643921,0.00669861
18,1436796648342,-0.00344849,-0.00857544,0.00883484
19,1436796648361,-0.00238037,-0.00643921,0.0109711
20,1436796648381,-0.00665283,0.0010376,0.00669861
21,1436796648401,-0.0119934,0.00210571,0.00349426
22,1436796648421,0.000823975,-3.05176e-05,-0.000778198
23,1436796648441,0.00616455,-0.00216675,-0.00184631
24,1436796648460,0.00616455,-0.00216675,0.00135803
25,1436796648481,-0.00238037,0.0010376,0.00776672
26,1436796648500,0.00189209,0.00210571,0.0109711
27,1436796648520,0.00723267,0.00744629,0.0141754
28,1436796648540,0.0093689,0.0085144,0.00669861
29,1436796648560,0.0125732,-3.05176e-05,-0.000778198
30,1436796648580,0.0264587,-0.0117798,0.00456238
31,1436796648600,0.0328674,-0.00323486,0.00883484
32,1436796648619,0.0125732,0.0085144,0.00563049
33,1436796648639,-0.00985718,0.0010376,-0.00184631
34,1436796648659,-0.000244141,-0.0117798,-0.00291443
35,1436796648678,0.00723267,-0.0107117,-0.000778198
36,1436796648698,-0.00665283,0.0010376,0.000289917
37,1436796648719,-0.0194702,0.00424194,-0.00398254
38,1436796648738,-0.026947,-0.00857544,-0.00505066
39,1436796648758,-0.026947,-0.0149841,-0.00398254
40,1436796648779,-0.017334,-0.00964355,-0.00718689
41,1436796648799,-0.00344849,-0.00323486,-0.00184631
42,1436796648817,0.00616455,-0.00643921,-0.00184631
43,1436796648837,0.00723267,-0.00537109,0.000289917
44,1436796648858,0.00509644,-0.00323486,0.00456238
45,1436796648877,0.00296021,-0.00109863,0.00456238
46,1436796648897,-0.000244141,-0.00323486,0.00349426
47,1436796648916,0.000823975,-0.00750732,0.00456238
48,1436796648936,-0.000244141,-0.00750732,0.00456238
49,1436796648957,-0.00344849,-0.00750732,0.000289917
50,1436796648976,-0.0151978,-0.00643921,-0.00184631
51,1436796648995,-0.0141296,-0.00323486,-0.00291443
52,1436796649016,-0.00238037,-0.00216675,-0.00398254
53,1436796649035,0.0115051,-0.00537109,0.00242615
54,1436796649055,0.0179138,-0.00323486,0.00563049
55,1436796649076,0.0115051,-0.00216675,0.00883484
56,1436796649095,-0.00131226,-3.05176e-05,0.00456238
57,1436796649115,0.0147095,-0.00430298,0.000289917
58,1436796649135,0.0296631,-0.00430298,-0.00291443
59,1436796649155,0.0371399,-0.00964355,-0.00184631
60,1436796649175,0.0253906,-0.0107117,-0.00505066
61,1436796649195,0.0264587,-0.00857544,0.000289917
62,1436796649214,0.0189819,-3.05176e-05,0.00135803
63,1436796649234,0.0136414,0.0159912,-0.00398254
64,1436796649254,0.0157776,0.0106506,-0.00184631
65,1436796649274,0.0179138,-0.00537109,0.00135803
66,1436796649293,0.00616455,-0.0107117,0.00669861
67,1436796649313,0.00509644,-0.00109863,0.0131073
68,1436796649333,-0.000244141,0.0085144,0.00883484
69,1436796649353,-0.000244141,0.00317383,0.00349426
70,1436796649377,0.000823975,-0.00964355,-0.00291443
71,1436796649394,-0.00665283,-0.0107117,-0.0135956
72,1436796649414,-0.00344849,-0.00857544,-0.0114594
73,1436796649434,0.0115051,-0.00750732,-0.0146637
74,1436796649453,0.00830078,-0.00750732,-0.00611877
75,1436796649475,-0.000244141,-0.00109863,-0.000778198
76,1436796649493,-0.017334,0.00210571,0.00135803
77,1436796649514,-0.017334,-3.05176e-05,-0.00291443
78,1436796649533,0.00189209,-0.00216675,-0.00184631
79,1436796649554,-0.000244141,-0.00643921,0.00135803
80,1436796649574,-0.0248108,-0.013916,-0.000778198
81,1436796649592,-0.0419006,-0.0117798,-0.00291443
82,1436796649612,-0.0504456,-0.00964355,-0.00398254
83,1436796649633,-0.0419006,-0.00643921,-0.00398254
84,1436796649652,-0.0333557,-0.00430298,-0.000778198
85,1436796649671,-0.0333557,-0.00430298,-0.00291443
86,1436796649692,-0.045105,-0.0117798,-0.00932312
87,1436796649714,-0.0376282,-0.0213928,-0.0125275
88,1436796649732,-0.0301514,-0.0267334,-0.017868
89,1436796649751,-0.0045166,-0.0224609,-0.0157318
90,1436796649769,0.0125732,-0.00857544,-0.00718689
91,1436796649792,-0.00772095,-0.00430298,-0.00718689
92,1436796649880,-0.0237427,-0.00323486,-0.00718689
93,1436796649881,-0.00985718,-3.05176e-05,-0.000778198
94,1436796649882,0.00723267,0.0170593,0.00242615
95,1436796649883,0.0115051,0.0320129,0.00776672
96,1436796649889,-0.00558472,0.0277405,0.0109711
97,1436796649909,-0.017334,0.0149231,0.0152435
98,1436796649930,-0.0130615,0.0117188,0.0141754
99,1436796649949,0.00189209,0.0106506,0.0141754
100,1436796649970,0.010437,0.00317383,0.00669861
101,1436796649989,-0.00131226,-0.0171204,-0.000778198
102,1436796650009,-0.00772095,-0.0331421,-0.0125275
103,1436796650029,-0.00344849,-0.0288696,-0.0146637
104,1436796650049,0.00296021,-0.0149841,-0.0125275
105,1436796650069,0.00509644,-0.00323486,-0.00718689
106,1436796650089,-0.00772095,0.00210571,0.00669861
107,1436796650111,-0.0290833,-3.05176e-05,0.0131073
108,1436796650128,-0.0290833,-0.00109863,0.0109711
109,1436796650146,0.00616455,-0.00216675,0.0120392
110,1436796650171,0.0350037,-0.00216675,0.0152435
111,1436796650186,0.0424805,-0.00109863,0.0152435
112,1436796650209,0.0403442,-0.0107117,0.0173798
113,1436796650224,0.0317993,-0.0160522,0.0131073
114,1436796650244,0.0317993,-0.0149841,0.0141754
115,1436796650264,0.0371399,-0.0203247,0.00456238
116,1436796650283,0.0179138,-0.0245972,-0.00505066
117,1436796650308,-0.00558472,-0.0256653,-0.0135956
118,1436796650325,-0.017334,-0.013916,-0.0200043
119,1436796650344,-0.0237427,-0.00430298,-0.0146637
120,1436796650364,-0.0344238,-0.00430298,-0.00718689
121,1436796650384,-0.0216064,-0.00216675,0.00349426
122,1436796650404,0.00509644,-3.05176e-05,0.00883484
123,1436796650424,0.00616455,0.00531006,0.00776672
124,1436796650444,-0.00665283,-0.00857544,0.00563049
125,1436796650463,-0.000244141,-0.0213928,0.00135803
126,1436796650483,0.0125732,-0.0117798,-0.00505066
127,1436796650506,0.0136414,0.00424194,-0.0125275
128,1436796650525,-0.00772095,0.00424194,-0.00398254
129,1436796650543,-0.0109253,-0.00216675,0.00563049
130,1436796650565,0.00189209,0.00424194,0.0184479
131,1436796650584,0.00509644,0.00637817,0.0184479
132,1436796650604,-0.0184021,-0.00216675,0.00456238
133,1436796650624,-0.0258789,-0.00750732,-0.00611877
134,1436796650644,-0.00665283,-0.00323486,-0.0135956
135,1436796650663,0.0115051,0.00424194,-0.0135956
136,1436796650682,-0.00878906,-0.00216675,-0.00718689
137,1436796650705,-0.0162659,-0.0160522,-0.008255
138,1436796650722,-0.00665283,-0.0213928,-0.00718689
139,1436796650744,-0.000244141,-0.0128479,-0.00932312
140,1436796650762,-0.00985718,-0.00323486,-0.00932312
141,1436796650783,-0.017334,-3.05176e-05,-0.00611877
142,1436796650805,-0.0333557,-0.00216675,-0.00184631
143,1436796650822,-0.0440369,-0.00430298,-0.00291443
144,1436796650842,-0.0205383,-0.00750732,-0.00611877
145,1436796650862,0.010437,-0.0128479,-0.008255
146,1436796650882,0.010437,-0.0149841,-0.00611877
147,1436796650900,-0.00772095,-0.0128479,-0.00611877
148,1436796650922,-0.0237427,-0.00964355,-0.00611877
149,1436796650941,-0.00985718,-0.00643921,-0.00291443
150,1436796650961,0.0136414,-0.00643921,0.00349426
151,1436796650982,0.0275269,-0.00323486,0.00883484
152,1436796651000,0.0221863,0.00531006,0.00776672
153,1436796651020,0.00830078,0.00424194,0.00883484
154,1436796651039,0.0147095,0.0010376,0.00776672
155,1436796651060,0.0253906,-0.00216675,0.00456238
156,1436796651080,0.0307312,-0.00643921,-0.00184631
157,1436796651100,0.0189819,-0.0128479,-0.000778198
158,1436796651119,-0.000244141,-0.013916,-0.00184631
159,1436796651139,-0.00558472,0.00210571,-0.00611877
160,1436796651160,-0.0045166,0.00317383,-0.00611877
161,1436796651182,-0.000244141,-0.00537109,-0.00184631
162,1436796651199,-0.00772095,-0.0128479,0.00242615
163,1436796651219,-0.00558472,-0.00537109,0.00349426
164,1436796651238,-0.00131226,0.00317383,0.00349426
165,1436796651259,-0.0205383,0.0010376,-0.000778198
166,1436796651281,-0.0194702,-0.00643921,-0.00718689
167,1436796651298,-0.000244141,-0.0117798,-0.0135956
168,1436796651316,0.0211182,-0.00964355,-0.0146637
169,1436796651338,0.0253906,-0.013916,-0.0135956
170,1436796651357,0.0264587,-0.0181885,-0.00718689
171,1436796651380,0.0211182,-0.0181885,0.00563049
172,1436796651398,0.0168457,-0.0117798,0.0109711
173,1436796651417,0.0136414,-0.00643921,0.0152435
174,1436796651437,0.0317993,-0.00537109,0.0163116
175,1436796651455,0.0488892,-0.00323486,0.0109711
176,1436796651479,0.0520935,0.00317383,0.00883484
177,1436796651497,0.0552979,0.0010376,0.00349426
178,1436796651517,0.056366,-0.00109863,0.00669861
179,1436796651536,0.0499573,-0.00323486,0.00563049
180,1436796651556,0.0339355,-0.00216675,0.000289917
181,1436796651579,0.0253906,-0.00323486,0.000289917
182,1436796651596,0.0189819,-0.00643921,-0.00291443
183,1436796651615,0.0147095,-0.00643921,-0.00611877
184,1436796651635,0.02005,-0.00750732,-0.008255
185,1436796651655,0.0115051,-0.00964355,-0.00611877
186,1436796651674,-0.00344849,-0.0117798,-0.000778198
187,1436796651695,-0.0130615,-0.0128479,-0.00398254
188,1436796651715,-0.0119934,-0.00750732,-0.00398254
189,1436796651734,-0.000244141,-0.00537109,-0.00718689
190,1436796651755,-0.00665283,-0.00964355,-0.008255
191,1436796651772,-0.0141296,-0.0181885,-0.00611877
192,1436796651794,-0.0109253,-0.0160522,0.00242615
193,1436796651813,0.00296021,0.0010376,0.00349426
194,1436796651833,-0.00131226,0.0106506,0.000289917
195,1436796651854,-0.00985718,-0.00537109,-0.000778198
196,1436796651874,-0.00985718,-0.0213928,0.00349426
197,1436796651893,0.0189819,-0.0224609,0.00669861
198,1436796651913,0.0392761,-0.013916,0.00883484
199,1436796651933,0.0243225,-0.0117798,0.00456238
200,1436796651952,0.000823975,-0.0171204,-0.00505066
201,1436796651973,-0.0130615,-0.0203247,-0.0125275
202,1436796651992,0.00296021,-0.0171204,-0.00932312
203,1436796652012,0.010437,-0.00857544,-0.008255
204,1436796652032,0.00189209,0.00210571,-0.00611877
205,1436796652053,-0.00558472,0.00424194,-0.00718689
206,1436796652074,-0.017334,-0.00109863,-0.00718689
207,1436796652090,-0.0216064,-0.00430298,-0.00611877
208,1436796652112,-0.0162659,-0.00323486,-0.00398254
209,1436796652130,-0.0205383,0.00424194,-0.00291443
210,1436796652151,-0.0408325,0.00210571,-0.00611877
211,1436796652174,-0.0611267,-0.00430298,-0.00718689
212,1436796652191,-0.0643311,-0.00216675,-0.00718689
213,1436796652210,-0.0493774,-0.00430298,-0.00932312
214,1436796652229,-0.0354919,-0.0107117,-0.0146637
215,1436796652250,-0.0194702,-0.00750732,-0.0103912
216,1436796652269,-0.0119934,-0.0192566,-0.00398254
217,1436796652290,-0.0109253,-0.0171204,0.00135803
218,1436796652309,0.010437,-0.00537109,0.00563049
219,1436796652329,0.0350037,-3.05176e-05,0.00990295
220,1436796652352,0.0446167,0.00424194,0.00669861
221,1436796652369,0.0499573,-0.00643921,-0.00291443
222,1436796652389,0.038208,-0.0128479,-0.00611877
223,1436796652409,0.0328674,-0.0181885,-0.00932312
224,1436796652429,0.0392761,-0.0192566,-0.00291443
225,1436796652450,0.0350037,-0.0128479,0.00669861
226,1436796652469,0.0136414,0.00317383,0.0109711
227,1436796652488,-0.0045166,0.00958252,0.00349426
228,1436796652508,-0.0280151,-0.00430298,-0.00505066
229,1436796652528,-0.0237427,-0.0117798,-0.00718689
230,1436796652546,-0.00772095,-0.00643921,-0.00398254
231,1436796652568,-0.00558472,0.00210571,0.00242615
232,1436796652587,-0.0151978,0.00637817,0.00563049
233,1436796652606,-0.0226746,-0.00109863,0.000289917
234,1436796652627,-0.0184021,-0.00216675,-0.00932312
235,1436796652650,0.0093689,-0.00430298,-0.0114594
236,1436796652666,0.0264587,-0.00964355,-0.00398254
237,1436796652687,0.0157776,-0.00857544,0.000289917
238,1436796652706,-0.00772095,-0.00109863,0.0131073
239,1436796652726,-0.026947,0.00424194,0.0173798
240,1436796652749,-0.0151978,0.0085144,0.0205841
241,1436796652766,0.0243225,0.0149231,0.0259247
242,1436796652785,0.0360718,0.0213318,0.0248566
243,1436796652805,0.0221863,0.0127869,0.0163116
244,1436796652826,0.010437,-0.00216675,0.00883484
245,1436796652846,0.0093689,-0.00750732,0.00563049
246,1436796652864,0.0136414,-0.00216675,0.00349426
247,1436796652885,0.0147095,0.0010376,0.00349426
248,1436796652903,0.0232544,-0.00750732,0.00135803
249,1436796652925,0.0264587,-0.00857544,0.000289917
250,1436796652945,0.0211182,-0.00537109,-0.00291443
251,1436796652964,0.0168457,-3.05176e-05,-0.00505066
252,1436796652984,0.0189819,0.0010376,-0.00505066
253,1436796653003,0.0147095,0.00424194,0.000289917
254,1436796653024,-0.00665283,0.00958252,0.00669861
255,1436796653045,-0.0109253,0.0181274,0.00669861
256,1436796653064,0.00296021,0.0127869,0.00669861
257,1436796653083,0.0211182,-0.00430298,0.00776672
258,1436796653103,0.0328674,-0.00857544,0.00563049
259,1436796653123,0.0414124,0.0010376,0.00135803
260,1436796653145,0.0296631,0.0010376,-0.00184631
261,1436796653163,-0.00131226,-0.0128479,-0.00611877
262,1436796653184,-0.0151978,-0.0213928,-0.00611877
263,1436796653202,-0.00131226,-0.00643921,0.00242615
264,1436796653221,0.0157776,0.00958252,0.00563049
265,1436796653245,-0.00344849,0.00424194,0.00242615
266,1436796653262,-0.0280151,-0.0149841,-0.00184631
267,1436796653281,-0.0248108,-0.0160522,-0.00718689
268,1436796653301,-0.00558472,-0.0128479,-0.0135956
269,1436796653319,0.000823975,-0.0213928,-0.0189362
270,1436796653341,-0.0141296,-0.0288696,-0.0253448
271,1436796653360,-0.0365601,-0.0224609,-0.0210724
272,1436796653381,-0.0504456,-0.013916,-0.0210724
273,1436796653400,-0.0536499,-0.00964355,-0.017868
274,1436796653421,-0.0386963,-0.00537109,-0.0125275
275,1436796653443,-0.0312195,-0.00857544,-0.008255
276,1436796653460,-0.0344238,-0.0107117,-0.00718689
277,1436796653480,-0.0322876,-0.0107117,-0.00932312
278,1436796653499,-0.0226746,-0.00109863,-0.00398254
279,1436796653519,-0.0130615,0.00744629,-0.00505066
280,1436796653539,-0.0109253,0.0106506,-0.00398254
281,1436796653559,-0.00772095,0.00637817,-0.00505066
282,1436796653582,0.00616455,0.00744629,-0.00718689
283,1436796653599,0.0189819,0.0085144,-0.00398254
284,1436796653619,0.0189819,0.0127869,0.00135803
285,1436796653637,0.0115051,0.0085144,0.00349426
286,1436796653658,-0.0141296,0.00958252,-0.000778198
287,1436796653680,-0.017334,0.00958252,-0.00398254
288,1436796653698,-0.00344849,0.00958252,-0.0135956
289,1436796653718,0.0125732,-0.00216675,-0.0221405
290,1436796653737,0.00509644,-0.0117798,-0.017868
291,1436796653757,-0.00985718,-0.00323486,-0.0167999
292,1436796653779,-0.0162659,0.0117188,-0.0146637
293,1436796653797,-0.0312195,0.00958252,-0.017868
294,1436796653818,-0.0472412,-0.00216675,-0.0146637
295,1436796653837,-0.0258789,-0.00964355,-0.0125275
296,1436796653857,-0.0194702,-0.00216675,-0.0103912
297,1436796653877,-0.0354919,0.00744629,-0.00718689
298,1436796653897,-0.0472412,0.00637817,-0.00505066
299,1436796653916,-0.0333557,0.00210571,-0.000778198
300,1436796653936,-0.017334,0.00637817,-0.00291443
301,1436796653956,-0.00878906,0.0106506,0.00135803
302,1436796653976,-0.0045166,0.00531006,0.00242615
303,1436796653994,-0.00878906,0.00424194,-0.000778198
304,1436796654016,-0.0151978,0.00317383,-0.000778198
305,1436796654035,-0.0130615,0.00210571,-0.000778198
306,1436796654055,-0.00665283,-0.00537109,-0.00291443
307,1436796654078,0.00830078,-0.00109863,-0.00718689
308,1436796654093,0.0873413,0.0352173,-0.0317535
309,1436796654115,0.697235,0.0320129,-0.00505066
310,1436796654134,1.73865,-0.126068,-0.0253448
311,1436796654154,2.16376,-0.270264,-0.00932312
312,1436796654175,2.60916,-0.298035,0.0408783
313,1436796654194,2.20435,-0.161316,0.0633087
314,1436796654214,1.37442,-0.0374145,0.0633087
315,1436796654233,0.572266,-0.0310059,0.0643768
316,1436796654254,-0.0611267,-0.041687,0.0494232
317,1436796654275,-0.443512,-0.0812073,0.0387421
318,1436796654293,-0.790649,-0.0747986,-0.00398254
319,1436796654313,-0.994659,-0.0502319,-0.0435028
320,1436796654332,-1.01923,-0.0427551,-0.0787506
321,1436796654353,-0.932709,-0.0480957,-0.104385
322,1436796654375,-0.753265,-0.0331421,-0.113998
323,1436796654392,-0.556732,0.0010376,-0.100113
324,1436796654410,-0.368744,0.051239,-0.0862274
325,1436796654432,-0.193573,0.0939636,-0.0616608
326,1436796654451,-0.0194702,0.124939,-0.0413666
327,1436796654474,0.0905457,0.0736694,0.00135803
328,1436796654492,0.0488892,0.0758057,0.00776672
329,1436796654511,-0.00985718,0.0758057,0.0483551
330,1436796654531,-0.0504456,0.0854187,0.0504913
331,1436796654550,-0.177551,0.0918274,0.0451508
332,1436796654573,-0.270477,0.0864868,0.0259247
333,1436796654591,-0.323883,0.0587158,-0.00398254
334,1436796654610,-0.136963,0.0191956,0.0184479
335,1436796654630,0.556244,0.0149231,0.0697174
336,1436796654650,1.4118,0.0394897,0.143417
337,1436796654670,1.82516,0.0800781,0.227798
338,1436796654690,1.59338,0.13028,0.186142
339,1436796654710,0.877747,0.121735,0.169052
340,1436796654729,0.18454,0.0704651,0.11351
341,1436796654749,-0.12735,0.023468,0.0494232
342,1436796654767,-0.303589,-0.0128479,0.0334015
343,1436796654789,-0.4104,-0.0256653,0.0120392
344,1436796654808,-0.526825,-0.0128479,-0.0306854
345,1436796654829,-0.558868,0.0106506,-0.0381622
346,1436796654851,-0.437103,0.0491028,-0.026413
347,1436796654866,-0.329224,0.0587158,0.00669861
348,1436796654888,-0.29184,0.0597839,0.0536957
349,1436796654907,-0.326019,0.0939636,0.0814667
350,1436796654924,-0.244843,0.126007,0.133804
351,1436796654950,0.00296021,0.117462,0.14769
352,1436796654968,0.306305,0.0907593,0.155167
353,1436796654986,0.366119,0.0704651,0.1306
354,1436796655006,0.173859,0.0448303,0.119919
355,1436796655027,-0.0835571,0.0405579,0.0836029
356,1436796655046,-0.239502,0.0288086,0.0430145
357,1436796655067,-0.361267,0.013855,0.00135803
358,1436796655087,-0.521484,0.0213318,-0.0125275
359,1436796655106,-0.539642,0.0213318,-0.0146637
360,1436796655126,-0.462738,0.00531006,-0.0210724
361,1436796655147,-0.361267,-0.00857544,-0.0146637
362,1436796655175,-0.264069,-0.013916,-0.00611877
363,1436796655184,-0.216003,0.00424194,-0.00291443
364,1436796655205,-0.232025,0.0266724,-0.0125275
365,1436796655222,-0.298248,0.0341492,-0.0189362
366,1436796655246,-0.236298,0.0320129,0.00456238
367,1436796655265,0.0307312,-0.00537109,0.00669861
368,1436796655285,0.186676,-0.0213928,-0.00611877
369,1436796655304,0.242218,-0.0288696,-0.0125275
370,1436796655323,0.366119,-0.0491638,-0.00184631
371,1436796655345,0.399231,-0.0683899,-0.0103912
372,1436796655364,0.334076,-0.0705261,-0.0103912
373,1436796655384,0.25824,-0.0523682,-0.0114594
374,1436796655403,0.140747,-0.0245972,-0.00505066
375,1436796655424,0.0392761,0.00317383,0.000289917
376,1436796655444,0.0125732,0.0149231,0.00456238
377,1436796655463,0.00723267,0.0106506,0.00456238
378,1436796655483,-0.00344849,0.00958252,0.00135803
379,1436796655503,-0.0119934,0.0149231,-0.0157318
380,1436796655523,-0.0045166,0.023468,-0.0146637
381,1436796655544,0.0136414,0.0277405,-0.0167999
382,1436796655563,0.00723267,0.0266724,-0.0114594
383,1436796655582,-0.017334,0.0213318,-0.00718689
384,1436796655602,-0.0579224,0.0223999,-0.00932312
385,1436796655621,-0.0792847,0.0170593,-0.0157318
386,1436796655640,-0.0974426,0.0085144,-0.0232086
387,1436796655661,-0.129486,0.00317383,-0.0189362
388,1436796655681,-0.150848,0.00424194,-0.0189362
389,1436796655700,-0.145508,0.00424194,-0.017868
390,1436796655717,-0.124146,0.00637817,-0.0103912
391,1436796655739,-0.107056,-3.05176e-05,0.00349426
392,1436796655759,-0.0931702,-0.00537109,0.00990295
393,1436796655778,-0.0995789,-0.00857544,0.0163116
