id,attr_time,attr_x,attr_y,attr_z
1,1436796648005,-0.002443461,0.018020526,-0.018936822
2,1436796648043,-0.007330383,0.0143553335,-0.012217305
3,1436796648048,-0.012217305,0.01740966,-0.015577064
4,1436796648065,-0.0067195175,0.019242255,-0.023518313
5,1436796648086,-0.017104227,0.015882496,-0.019547688
6,1436796648105,-0.011911872,0.020158553,-0.015271631
7,1436796648127,-0.0067195175,0.016798794,-0.019547688
8,1436796648148,-0.010079277,0.016798794,-0.01863139
9,1436796648166,-0.0106901415,0.011911872,-0.022296581
10,1436796648185,-0.011301007,0.021685716,-0.022602014
11,1436796648209,-0.007941248,0.017715093,-0.022907447
12,1436796648227,-0.010995574,0.014966198,-0.02107485
13,1436796648248,-0.015577064,0.015271631,-0.017715093
14,1436796648270,-0.01282817,0.016187929,-0.019242255
15,1436796648288,-0.0106901415,0.018020526,-0.021991149
16,1436796648309,-0.009162978,0.016187929,-0.022907447
17,1436796648329,-0.01038471,0.018020526,-0.023518313
18,1436796648349,-0.008552114,0.02321288,-0.026267206
19,1436796648369,-0.008246681,0.021685716,-0.02321288
20,1436796648392,-0.014966198,0.020463986,-0.017715093
21,1436796648408,-0.0106901415,0.02107485,-0.018020526
22,1436796648430,-0.008552114,0.0143553335,-0.013744468
23,1436796648446,-0.009162978,0.017104227,-0.019547688
24,1436796648467,-0.014049901,0.016798794,-0.022602014
25,1436796648487,-0.007941248,0.020463986,-0.028710667
26,1436796648508,-0.011911872,0.019242255,-0.025350908
27,1436796648532,-0.009162978,0.01985312,-0.02076942
28,1436796648553,-0.009468411,0.021991149,-0.018325957
29,1436796648567,-0.008246681,0.019242255,-0.018325957
30,1436796648588,-0.012217305,0.020158553,-0.019547688
31,1436796648610,-0.005497787,0.017104227,-0.028099801
32,1436796648630,-0.01038471,0.01863139,-0.01985312
33,1436796648647,-0.014966198,0.019547688,-0.013133603
34,1436796648715,-0.015577064,0.021991149,-0.010079277
35,1436796648716,-0.018020526,0.01985312,-0.016187929
36,1436796648717,-0.015577064,0.02076942,-0.021991149
37,1436796648737,-0.013744468,0.022296581,-0.02076942
38,1436796648746,-0.015271631,0.021380283,-0.014660766
39,1436796648771,-0.015882496,0.020158553,-0.011301007
40,1436796648788,-0.016798794,0.021991149,-0.007330383
41,1436796648808,-0.014966198,0.017715093,-0.011911872
42,1436796648829,-0.015882496,0.019547688,-0.022907447
43,1436796648848,-0.006414085,0.015271631,-0.026267206
44,1436796648868,-0.008857546,0.01740966,-0.026572637
45,1436796648888,-0.016493361,0.024740042,-0.02321288
46,1436796648910,-0.007330383,0.02107485,-0.021991149
47,1436796648928,-0.01160644,0.020463986,-0.024740042
48,1436796648950,-0.013439035,0.016798794,-0.029321533
49,1436796648970,-0.012217305,0.015882496,-0.024129177
50,1436796648990,-0.012217305,0.021991149,-0.016798794
51,1436796649011,-0.015882496,0.02443461,-0.01863139
52,1436796649028,-0.013744468,0.018325957,-0.017104227
53,1436796649051,-0.014049901,0.02076942,-0.018020526
54,1436796649071,-0.0125227375,0.01863139,-0.01740966
55,1436796649090,-0.012217305,0.015577064,-0.018325957
56,1436796649108,-0.009468411,0.021685716,-0.016798794
57,1436796649130,-0.010995574,0.025350908,-0.02076942
58,1436796649150,-0.010079277,0.01985312,-0.02565634
59,1436796649170,-0.008552114,0.021991149,-0.027488936
60,1436796649193,-0.009773844,0.016493361,-0.029321533
61,1436796649210,-0.004581489,0.016187929,-0.030848695
62,1436796649229,-0.007330383,0.025045475,-0.026267206
63,1436796649248,-0.015271631,0.020158553,-0.024740042
64,1436796649268,-0.009773844,0.01985312,-0.025961773
65,1436796649293,-0.009162978,0.015577064,-0.02443461
66,1436796649310,-0.0067195175,0.016798794,-0.023518313
67,1436796649330,-0.015271631,0.016493361,-0.014966198
68,1436796649349,-0.0143553335,0.01863139,-0.018325957
69,1436796649376,-0.014049901,0.01863139,-0.019547688
70,1436796649441,-0.01985312,0.020463986,-0.018936822
71,1436796649442,-0.014966198,0.01740966,-0.023518313
72,1436796649443,-0.014966198,0.02565634,-0.023823744
73,1436796649461,-0.008552114,0.024129177,-0.034513887
74,1436796649468,-0.01160644,0.02321288,-0.03145956
75,1436796649488,-0.01160644,0.018936822,-0.021991149
76,1436796649507,-0.013439035,0.01985312,-0.024740042
77,1436796649527,-0.010995574,0.020463986,-0.028099801
78,1436796649556,-0.0067195175,0.01863139,-0.032070424
79,1436796649567,-0.008552114,0.01985312,-0.033292156
80,1436796649587,-0.013133603,0.02443461,-0.02443461
81,1436796649618,-0.015577064,0.018020526,-0.020463986
82,1436796649628,-0.015882496,0.021991149,-0.023823744
83,1436796649651,-0.017104227,0.022907447,-0.025350908
84,1436796649671,-0.017104227,0.023518313,-0.024740042
85,1436796649691,-0.010995574,0.019242255,-0.028405234
86,1436796649711,-0.013133603,0.019547688,-0.023518313
87,1436796649731,-0.019547688,0.019242255,-0.018020526
88,1436796649751,-0.014660766,0.025350908,-0.017104227
89,1436796649769,-0.021685716,0.025961773,-0.02107485
90,1436796649791,-0.016493361,0.02565634,-0.022907447
91,1436796649811,-0.013744468,0.020158553,-0.022296581
92,1436796649831,-0.01160644,0.015577064,-0.027488936
93,1436796649849,-0.015577064,0.01740966,-0.026267206
94,1436796649872,-0.020158553,0.024740042,-0.028099801
95,1436796649891,-0.01282817,0.0290161,-0.027183503
96,1436796649911,-0.01740966,0.025961773,-0.026267206
97,1436796649931,-0.015271631,0.01985312,-0.027183503
98,1436796649951,-0.013133603,0.020463986,-0.030543262
99,1436796649970,-0.015882496,0.023518313,-0.027183503
100,1436796649989,-0.0143553335,0.022907447,-0.021685716
101,1436796650009,-0.014049901,0.02107485,-0.027488936
102,1436796650031,-0.012217305,0.02443461,-0.03359759
103,1436796650051,-0.013133603,0.021685716,-0.035430185
104,1436796650075,-0.016493361,0.025045475,-0.030848695
105,1436796650089,-0.010079277,0.028405234,-0.028405234
106,1436796650115,-0.014660766,0.022907447,-0.028405234
107,1436796650175,-0.013439035,0.023518313,-0.023823744
108,1436796650176,-0.0143553335,0.021991149,-0.027183503
109,1436796650177,-0.010995574,0.018936822,-0.028099801
110,1436796650195,-0.013133603,0.02107485,-0.034208454
111,1436796650209,-0.009773844,0.028710667,-0.036651913
112,1436796650230,-0.0125227375,0.030543262,-0.023518313
113,1436796650248,-0.014966198,0.026267206,-0.016187929
114,1436796650268,-0.017104227,0.02076942,-0.01863139
115,1436796650289,-0.019547688,0.021685716,-0.02107485
116,1436796650308,-0.0106901415,0.025045475,-0.020463986
117,1436796650329,-0.009162978,0.013744468,-0.013744468
118,1436796650349,-0.010995574,0.015882496,-0.021685716
119,1436796650371,-0.014660766,0.015882496,-0.014049901
120,1436796650389,-0.010995574,0.024129177,-0.019547688
121,1436796650411,-0.011301007,0.025045475,-0.016187929
122,1436796650431,-0.008857546,0.02076942,-0.028710667
123,1436796650451,-0.01038471,0.014049901,-0.035430185
124,1436796650471,-0.0027488936,0.02443461,-0.03145956
125,1436796650491,-0.009162978,0.020158553,-0.023518313
126,1436796650511,-0.014966198,0.021991149,-0.019242255
127,1436796650531,-0.01160644,0.024129177,-0.016493361
128,1436796650551,-0.011911872,0.02107485,-0.017104227
129,1436796650579,-0.01038471,0.021685716,-0.025045475
130,1436796650590,-0.008552114,0.019242255,-0.034208454
131,1436796650611,-0.0076358155,0.018936822,-0.034513887
132,1436796650629,-0.008552114,0.021380283,-0.023518313
133,1436796650651,-0.0067195175,0.020463986,-0.02565634
134,1436796650671,-0.010995574,0.020463986,-0.026267206
135,1436796650691,-0.0067195175,0.022602014,-0.024129177
136,1436796650711,-0.0076358155,0.023823744,-0.02565634
137,1436796650731,-0.008552114,0.023823744,-0.027488936
138,1436796650752,-0.0067195175,0.017715093,-0.027183503
139,1436796650771,-0.0076358155,0.018936822,-0.032375857
140,1436796650791,-0.007330383,0.024129177,-0.029932396
141,1436796650810,-0.0070249503,0.021380283,-0.024129177
142,1436796650835,-0.004886922,0.020158553,-0.019242255
143,1436796650904,-0.010079277,0.014049901,-0.02321288
144,1436796650911,-0.007330383,0.019242255,-0.028099801
145,1436796650912,-0.0106901415,0.022602014,-0.02687807
146,1436796650913,-0.0067195175,0.020463986,-0.025961773
147,1436796650938,-0.005497787,0.017104227,-0.027488936
148,1436796650957,-0.00580322,0.01160644,-0.025045475
149,1436796650983,-0.0125227375,0.01740966,-0.02321288
150,1436796650992,-0.011911872,0.020158553,-0.023518313
151,1436796651009,-0.0106901415,0.019547688,-0.027488936
152,1436796651051,-0.010995574,0.022296581,-0.025350908
153,1436796651052,-0.009468411,0.021991149,-0.02687807
154,1436796651069,-0.006414085,0.022602014,-0.03176499
155,1436796651090,-0.0106901415,0.0290161,-0.035124753
156,1436796651109,-0.01160644,0.027488936,-0.044593163
157,1436796651130,-0.007330383,0.03268129,-0.06566802
158,1436796651152,-0.0030543262,0.032375857,-0.07147124
159,1436796651171,0.0027488936,0.028099801,-0.069027774
160,1436796651191,0.0036651916,0.025045475,-0.06780604
161,1436796651212,-0.0036651916,0.016798794,-0.061086524
162,1436796651232,-0.00061086525,0.015577064,-0.0421497
163,1436796651252,-0.0027488936,0.01160644,-0.032375857
164,1436796651269,-0.0018325958,0.013744468,-0.029321533
165,1436796651292,-0.002443461,0.007941248,-0.032070424
166,1436796651310,-0.0036651916,0.009773844,-0.020158553
167,1436796651330,-0.013744468,0.0106901415,-0.011301007
168,1436796651351,-0.011301007,0.018936822,-0.009162978
169,1436796651371,-0.013133603,0.02107485,-0.01740966
170,1436796651392,-0.013744468,0.015271631,-0.0125227375
171,1436796651411,-0.010995574,0.008857546,-0.016493361
172,1436796651432,-0.011911872,0.019242255,-0.013439035
173,1436796651450,-0.01740966,0.01740966,-0.014049901
174,1436796651472,-0.013744468,0.019547688,-0.011301007
175,1436796651491,-0.021685716,0.024129177,-0.012217305
176,1436796651512,-0.012217305,0.025350908,-0.019242255
177,1436796651535,-0.009773844,0.022602014,-0.023823744
178,1436796651655,-0.013133603,0.019242255,-0.01863139
179,1436796651656,-0.013133603,0.02107485,-0.014660766
180,1436796651676,-0.0125227375,0.021685716,-0.021380283
181,1436796651677,-0.01160644,0.01863139,-0.01740966
182,1436796651678,-0.014966198,0.017104227,-0.0143553335
183,1436796651679,-0.016798794,0.021991149,-0.019547688
184,1436796651680,-0.007941248,0.021991149,-0.024740042
185,1436796651693,-0.014966198,0.02076942,-0.01863139
186,1436796651737,-0.0125227375,0.020158553,-0.02107485
187,1436796651738,-0.005497787,0.019242255,-0.025961773
188,1436796651909,-0.012217305,0.020463986,-0.025961773
189,1436796651910,-0.014660766,0.023518313,-0.015882496
190,1436796651911,-0.011301007,0.02107485,-0.018020526
191,1436796651912,-0.011911872,0.021991149,-0.023518313
192,1436796651913,-0.016798794,0.02107485,-0.02076942
193,1436796651914,-0.01740966,0.021685716,-0.016187929
194,1436796651915,-0.017715093,0.026267206,-0.01160644
195,1436796651916,-0.009773844,0.025045475,-0.01282817
196,1436796651917,-0.010079277,0.02076942,-0.014966198
197,1436796651950,-0.015271631,0.019547688,-0.01863139
198,1436796651951,-0.010079277,0.018020526,-0.018020526
199,1436796651971,-0.011301007,0.01985312,-0.015577064
200,1436796651991,-0.014049901,0.019547688,0.0
201,1436796652011,-0.015882496,0.020158553,0.0030543262
202,1436796652033,-0.010079277,0.017104227,-0.0106901415
203,1436796652051,-0.013133603,0.01985312,-0.016493361
204,1436796652070,-0.0076358155,0.019547688,-0.014966198
205,1436796652092,-0.01038471,0.014660766,-0.011301007
206,1436796652111,-0.009773844,0.019547688,-0.008246681
207,1436796652130,-0.011301007,0.014049901,-0.006414085
208,1436796652153,-0.0076358155,0.019242255,-0.01160644
209,1436796652173,-0.01160644,0.023518313,-0.008857546
210,1436796652192,-0.011911872,0.025045475,-0.012217305
211,1436796652211,-0.010079277,0.019242255,-0.008246681
212,1436796652231,-0.014966198,0.015882496,-0.007330383
213,1436796652250,-0.009773844,0.021685716,-0.0106901415
214,1436796652270,-0.014966198,0.019242255,-0.005192355
215,1436796652303,-0.009468411,0.01985312,-0.008857546
216,1436796652372,-0.0125227375,0.01985312,-0.006414085
217,1436796652373,-0.006414085,0.019242255,-0.010995574
218,1436796652374,-0.0106901415,0.01740966,-0.0076358155
219,1436796652375,-0.0106901415,0.016798794,0.0012217305
220,1436796652390,-0.01160644,0.025961773,0.0033597588
221,1436796652410,-0.01282817,0.020158553,0.005497787
222,1436796652430,-0.00061086525,0.021685716,-0.0067195175
223,1436796652450,-0.009773844,0.015882496,-0.013439035
224,1436796652482,-0.0067195175,0.017104227,-0.021685716
225,1436796652491,-0.009773844,0.015882496,-0.02107485
226,1436796652512,-0.0070249503,0.015882496,-0.023518313
227,1436796652550,-0.003970624,0.018936822,-0.02321288
228,1436796652551,-0.0067195175,0.020158553,-0.01985312
229,1436796652570,-0.009162978,0.019547688,-0.021380283
230,1436796652590,-0.002443461,0.021685716,-0.024129177
231,1436796652611,-0.009162978,0.01740966,-0.018325957
232,1436796652631,-0.0070249503,0.02107485,-0.02443461
233,1436796652651,-0.010995574,0.022907447,-0.022907447
234,1436796652673,-0.010995574,0.022602014,-0.022296581
235,1436796652691,-0.009162978,0.019547688,-0.014049901
236,1436796652711,-0.009773844,0.015271631,-0.014049901
237,1436796652733,-0.016493361,0.0143553335,-0.011911872
238,1436796652753,-0.013439035,0.021685716,-0.015577064
239,1436796652772,-0.015271631,0.018936822,-0.017104227
240,1436796652790,-0.0106901415,0.018936822,-0.02076942
241,1436796652811,-0.0021380284,0.019242255,-0.015577064
242,1436796652831,-0.004276057,0.014966198,-0.018325957
243,1436796652853,-0.013744468,0.013744468,-0.008246681
244,1436796652871,-0.009162978,0.018936822,-0.012217305
245,1436796652894,-0.01160644,0.022602014,-0.014660766
246,1436796652914,-0.006414085,0.02107485,-0.0125227375
247,1436796652934,-0.01038471,0.017104227,-0.011911872
248,1436796652954,-0.009773844,0.017104227,-0.011301007
249,1436796652972,-0.017104227,0.01740966,-0.012217305
250,1436796652992,-0.009468411,0.02107485,-0.019242255
251,1436796653011,-0.016187929,0.026267206,-0.016798794
252,1436796653032,-0.013133603,0.025961773,-0.012217305
253,1436796653055,-0.013439035,0.019547688,-0.016798794
254,1436796653132,-0.013744468,0.015271631,-0.01160644
255,1436796653133,-0.013439035,0.015577064,-0.007941248
256,1436796653134,-0.01282817,0.019547688,-0.004886922
257,1436796653135,-0.010079277,0.01863139,-0.004581489
258,1436796653151,-0.010995574,0.020463986,-0.008552114
259,1436796653173,-0.011911872,0.0125227375,-0.008552114
260,1436796653191,-0.018020526,0.0143553335,-0.010079277
261,1436796653211,-0.015271631,0.018936822,-0.016187929
262,1436796653243,0.00061086525,0.024740042,-0.024740042
263,1436796653252,-0.0012217305,0.017104227,-0.018936822
264,1436796653272,-0.009162978,0.014966198,-0.014966198
265,1436796653291,-0.003970624,0.013744468,-0.021991149
266,1436796653317,-0.0125227375,0.0143553335,-0.02107485
267,1436796653333,-0.012217305,0.02076942,-0.014660766
268,1436796653354,-0.014049901,0.015882496,-0.011301007
269,1436796653375,-0.01282817,0.017104227,-0.013744468
270,1436796653391,-0.013744468,0.014966198,-0.012217305
271,1436796653414,-0.020463986,0.0125227375,-0.00580322
272,1436796653435,-0.02076942,0.018020526,-0.019547688
273,1436796653451,-0.007941248,0.021991149,-0.027488936
274,1436796653474,-0.011911872,0.02443461,-0.023518313
275,1436796653495,-0.008857546,0.019547688,-0.013133603
276,1436796653513,-0.016187929,0.01985312,-0.0106901415
277,1436796653534,-0.01740966,0.02107485,-0.020158553
278,1436796653555,-0.013133603,0.023823744,-0.022907447
279,1436796653571,-0.01160644,0.021380283,-0.021685716
280,1436796653592,-0.014660766,0.0143553335,-0.014049901
281,1436796653612,-0.015577064,0.022602014,-0.018325957
282,1436796653632,-0.014049901,0.024740042,-0.022296581
283,1436796653658,-0.0143553335,0.025350908,-0.023518313
284,1436796653673,-0.0143553335,0.024129177,-0.016187929
285,1436796653695,-0.015577064,0.022602014,-0.014660766
286,1436796653712,-0.01160644,0.02076942,-0.02076942
287,1436796653733,-0.0067195175,0.023518313,-0.026572637
288,1436796653751,-0.010079277,0.021991149,-0.030848695
289,1436796653773,-0.0125227375,0.022296581,-0.020463986
290,1436796653797,-0.0143553335,0.016798794,-0.0125227375
291,1436796653873,-0.01985312,0.018325957,-0.010995574
292,1436796653874,-0.011911872,0.021991149,-0.016798794
293,1436796653875,-0.010995574,0.02443461,-0.014049901
294,1436796653876,-0.009773844,0.022602014,-0.016187929
295,1436796653893,-0.008857546,0.021380283,-0.01282817
296,1436796653913,-0.015577064,0.019242255,-0.012217305
297,1436796653931,-0.015882496,0.02107485,-0.0070249503
298,1436796653958,-0.016798794,0.020158553,-0.012217305
299,1436796653972,-0.013133603,0.017104227,-0.016187929
300,1436796653992,-0.01038471,0.018936822,-0.011301007
301,1436796654012,-0.010995574,0.024129177,-0.010079277
302,1436796654034,-0.018020526,0.022602014,-0.003970624
303,1436796654051,-0.018325957,0.025350908,-0.01160644
304,1436796654075,-0.011911872,0.027488936,-0.018020526
305,1436796654096,-0.01282817,0.027488936,-0.014966198
306,1436796654114,-0.009468411,0.018020526,-0.008857546
307,1436796654135,-0.014660766,0.020463986,-0.009468411
308,1436796654156,-0.004581489,0.018325957,-0.014049901
309,1436796654174,-0.009162978,0.015882496,-0.013744468
310,1436796654195,-0.0106901415,0.024129177,-0.013744468
311,1436796654216,-0.0125227375,0.021685716,-0.0015271631
312,1436796654235,-0.005497787,0.021685716,0.0061086523
313,1436796654254,-0.008552114,0.016798794,0.008857546
314,1436796654278,-0.009162978,0.016493361,0.004581489
315,1436796654296,-0.014660766,0.022907447,0.0
316,1436796654316,-0.0125227375,0.02107485,0.0067195175
317,1436796654337,-0.004581489,0.02076942,-0.004581489
318,1436796654355,-0.0030543262,0.009162978,-0.01282817
319,1436796654374,-0.0027488936,0.012217305,-0.020463986
320,1436796654393,-0.008246681,0.01282817,-0.018020526
321,1436796654413,-0.00580322,0.019547688,-0.022296581
322,1436796654437,-0.0036651916,0.018020526,-0.02107485
323,1436796654457,-0.00580322,0.01038471,-0.01740966
324,1436796654477,-0.0030543262,0.01282817,-0.014049901
325,1436796654496,-0.0061086523,0.010995574,-0.021685716
326,1436796654519,-0.0027488936,0.010995574,-0.018936822
327,1436796654585,-0.013439035,0.0076358155,-0.010995574
328,1436796654586,-0.016493361,0.012217305,-0.01282817
329,1436796654587,-0.01282817,0.015577064,-0.016187929
330,1436796654593,-0.014660766,0.017715093,-0.014049901
331,1436796654615,-0.016493361,0.02107485,-0.007941248
332,1436796654633,-0.0106901415,0.010995574,-0.006414085
333,1436796654652,-0.013133603,0.015271631,0.00030543262
334,1436796654676,-0.0125227375,0.019547688,-0.0009162979
335,1436796654692,-0.014966198,0.015577064,-0.007330383
336,1436796654714,-0.014966198,0.018325957,-0.009162978
337,1436796654733,-0.010079277,0.01863139,-0.014660766
338,1436796654753,-0.0125227375,0.015271631,-0.0076358155
339,1436796654772,-0.011911872,0.016493361,-0.008246681
340,1436796654796,-0.016798794,0.018325957,-0.0067195175
341,1436796654816,-0.007330383,0.017104227,-0.01160644
342,1436796654836,-0.012217305,0.016187929,-0.008246681
343,1436796654856,-0.014660766,0.015271631,-0.003970624
344,1436796654876,-0.0125227375,0.010995574,0.0012217305
345,1436796654896,-0.01160644,0.019242255,-0.009162978
346,1436796654916,-0.0106901415,0.0125227375,-0.01985312
347,1436796654936,-0.009162978,0.021685716,-0.01863139
348,1436796654956,-0.010079277,0.015882496,-0.015271631
349,1436796654974,-0.01038471,0.01282817,-0.006414085
350,1436796654993,-0.010995574,0.017715093,-0.006414085
351,1436796655016,-0.004581489,0.017715093,-0.016493361
352,1436796655033,-0.0061086523,0.021685716,-0.010995574
353,1436796655054,-0.0125227375,0.019547688,-0.013133603
354,1436796655072,-0.013439035,0.01282817,-0.021380283
355,1436796655096,-0.008857546,0.016493361,-0.020158553
356,1436796655119,-0.01160644,0.0125227375,-0.007941248
357,1436796655136,-0.009162978,0.019242255,-0.012217305
358,1436796655156,-0.006414085,0.01740966,-0.01282817
359,1436796655172,-0.007941248,0.019242255,-0.014660766
360,1436796655193,-0.009468411,0.010079277,-0.022602014
