id,attr_time,attr_x,attr_y,attr_z
1,1436803440005,-0.99538934,10.002377,-0.9175778
2,1436803440028,-0.87927055,10.028113,-0.87328506
3,1436803440047,-1.0031705,10.012551,-0.9175778
4,1436803440066,-1.0414777,9.982624,-0.88944596
5,1436803440088,-1.1306617,9.959879,-0.8631097
6,1436803440110,-0.9804256,10.0029745,-0.9044097
7,1436803440131,-0.9403227,9.997588,-0.92775315
8,1436803440149,-0.9935937,9.976639,-0.8912416
9,1436803440167,-1.1210849,9.969456,-0.830788
10,1436803440188,-1.0869676,9.989208,-0.87687635
11,1436803440205,-0.92176765,10.014946,-0.8846575
12,1436803440226,-0.9211691,10.016143,-0.91338795
13,1436803440267,-0.91578215,9.9928,-0.8391677
14,1436803440268,-1.0923545,9.957485,-0.8798691
15,1436803440285,-1.115698,9.983223,-0.87089086
16,1436803440306,-0.84694886,10.023924,-0.8655039
17,1436803440325,-0.9247604,10.003573,-0.89603
18,1436803440345,-0.97384155,9.989208,-0.88286185
19,1436803440368,-1.0881647,9.9712515,-0.8972271
20,1436803440386,-1.0528502,10.003573,-0.9139865
21,1436803440406,-1.021127,9.998186,-0.878672
22,1436803440429,-0.8924387,10.00896,-0.8583213
23,1436803440449,-0.9540894,10.020931,-0.88645315
24,1436803440469,-1.0384849,9.983821,-0.8702923
25,1436803440487,-1.1282675,9.970653,-0.84455466
26,1436803440509,-1.0067618,9.985018,-0.8571242
27,1436803440529,-0.93254155,10.007763,-0.93972415
28,1436803440549,-0.9768343,10.035296,-0.93732995
29,1436803440569,-0.95468795,9.990405,-0.86969376
30,1436803440590,-1.0468647,9.974244,-0.88166475
31,1436803440609,-1.0594343,9.992201,-0.8738836
32,1436803440629,-0.9684546,10.006566,-0.93493575
33,1436803440649,-0.95349085,9.973646,-0.919972
34,1436803440666,-0.973243,9.986216,-0.89064306
35,1436803440686,-1.049259,10.009559,-0.91338795
36,1436803440707,-1.091756,9.975441,-0.86969376
37,1436803440731,-0.99179804,9.978435,-0.8158242
38,1436803440751,-0.84216046,10.038888,-0.9427169
39,1436803440771,-0.93014735,9.997588,-0.9271546
40,1436803440791,-1.0283096,9.9790325,-0.92296475
41,1436803440807,-1.1707647,9.968858,-0.8379706
42,1436803440827,-0.98581254,10.007763,-0.85054016
43,1436803440848,-0.9427169,10.023924,-0.8996213
44,1436803440867,-0.9780314,10.00477,-0.9223662
45,1436803440887,-0.9804256,10.003573,-0.8900445
46,1436803440941,-1.1414356,9.962872,-0.90979666
47,1436803440942,-0.99658644,10.007763,-0.93732995
48,1436803440950,-0.9044097,10.016742,-0.87927055
49,1436803440966,-0.9271546,10.019135,-0.8936358
50,1436803440986,-0.9828198,10.0029745,-0.8798691
51,1436803441007,-1.1450269,9.973646,-0.908001
52,1436803441026,-1.0911574,9.962872,-0.8996213
53,1436803441051,-0.95229375,9.991602,-0.90979666
54,1436803441067,-1.0905589,9.974843,-0.830788
55,1436803441087,-1.0582372,9.988011,-0.89782566
56,1436803441108,-1.2240356,9.941324,-0.97743285
57,1436803441128,-1.1935096,9.948506,-0.9463082
58,1436803441150,-0.8738836,10.015544,-0.88525605
59,1436803441168,-0.61171854,10.085575,-0.8487445
60,1436803441190,-0.62488663,10.073005,-0.9540894
61,1436803441210,-0.7428011,10.062231,-0.8738836
62,1436803441230,-0.90859956,10.022727,-0.87807345
63,1436803441250,-0.8206126,10.035296,-0.95468795
64,1436803441270,-0.7787141,10.01315,-0.9139865
65,1436803441290,-0.82779527,10.030508,-0.8738836
66,1436803441310,-0.90021986,10.00896,-0.8822633
67,1436803441330,-1.0205284,9.991602,-0.88765025
68,1436803441347,-1.0295067,9.98442,-0.88405895
69,1436803441370,-1.0271125,9.993398,-0.90021986
70,1436803441390,-0.9187749,10.023325,-0.9343372
71,1436803441410,-0.98820674,10.006566,-0.90381116
72,1436803441430,-1.0259154,10.001778,-0.86729956
73,1436803441450,-1.049259,9.999383,-0.8834604
74,1436803441469,-1.0851719,9.98442,-0.9044097
75,1436803441489,-0.97384155,10.008362,-0.92895025
76,1436803441509,-1.0241197,9.992201,-0.9600749
77,1436803441530,-0.97384155,9.999383,-0.919972
78,1436803441550,-1.021127,9.998785,-0.8912416
79,1436803441569,-1.0295067,9.983223,-0.9127894
80,1436803441587,-1.0636241,9.973646,-0.93254155
81,1436803441682,-1.0031705,9.980229,-0.8822633
82,1436803441683,-0.9840169,9.985018,-0.94331545
83,1436803441684,-1.0247183,9.989208,-0.91937345
84,1436803441685,-1.0576386,9.975441,-0.8912416
85,1436803441695,-1.0295067,10.00477,-0.9187749
86,1436803441707,-0.95109665,9.976639,-0.90979666
87,1436803441727,-1.0151415,10.017939,-0.91937345
88,1436803441748,-1.0534488,9.997588,-0.91578215
89,1436803441767,-1.002572,10.004171,-0.9044097
90,1436803441787,-1.0145429,9.998186,-0.91937345
91,1436803441809,-1.0319009,9.966463,-0.92057055
92,1436803441828,-1.0283096,10.001778,-0.9020155
93,1436803441849,-1.0366893,9.997588,-0.90021986
94,1436803441868,-1.0163386,9.9928,-0.92416185
95,1436803441889,-1.0378864,9.983821,-0.8846575
96,1436803441907,-0.9840169,9.993997,-0.9163807
97,1436803441929,-0.96665895,10.010756,-0.93134445
98,1436803441950,-0.97503865,9.996989,-0.92416185
99,1436803441969,-1.0360907,9.999982,-0.88765025
100,1436803441990,-1.0552444,9.990405,-0.88765025
101,1436803442010,-0.94810385,10.031705,-0.9487024
102,1436803442030,-0.9768343,9.994595,-0.90620536
103,1436803442051,-0.9792285,10.004171,-0.8972271
104,1436803442071,-1.0378864,9.99639,-0.9008184
105,1436803442090,-1.0115502,9.994595,-0.9187749
106,1436803442108,-1.0845734,9.96347,-0.92416185
107,1436803442131,-1.0540473,9.992201,-0.8936358
108,1436803442150,-0.9223662,10.02153,-0.9187749
109,1436803442170,-0.94810385,10.002377,-0.9331401
110,1436803442189,-1.0265139,9.986216,-0.8774749
111,1436803442211,-1.1504139,9.9790325,-0.88525605
112,1436803442231,-0.9235633,10.008362,-0.8858546
113,1436803442251,-0.91697925,10.01734,-0.8870517
114,1436803442271,-0.9828198,9.990405,-0.87807345
115,1436803442290,-1.0241197,9.989806,-0.91099375
116,1436803442308,-1.0929531,9.979631,-0.8924387
117,1436803442329,-1.0043676,9.988011,-0.88525605
118,1436803442349,-0.9911995,10.027515,-0.9307459
119,1436803442367,-1.0139444,9.983821,-0.85772276
120,1436803442421,-1.027711,9.99639,-0.86610246
121,1436803442422,-1.0696096,9.983223,-0.908001
122,1436803442439,-1.1300632,9.980828,-0.8882488
123,1436803442448,-1.0199299,9.989208,-0.85652566
124,1436803442468,-0.98102415,10.012551,-0.87208796
125,1436803442488,-1.0342951,10.020931,-0.90979666
126,1436803442508,-1.1282675,9.96766,-0.85772276
127,1436803442530,-0.9487024,10.023924,-0.8559271
128,1436803442548,-0.96665895,10.027515,-0.84455466
129,1436803442568,-1.1031284,9.965864,-0.8738836
130,1436803442594,-1.1384429,9.972448,-0.87448215
131,1436803442608,-1.2024878,9.970055,-0.8810662
132,1436803442630,-1.0779893,9.972448,-0.88765025
133,1436803442650,-1.1575965,9.982624,-0.9211691
134,1436803442671,-1.1605892,9.929353,-0.81522566
135,1436803442691,-1.1109096,10.0029745,-0.75237787
136,1436803442711,-1.0708067,10.018537,-0.86370826
137,1436803442731,-1.1719618,9.9550905,-0.90620536
138,1436803442751,-1.0265139,9.989208,-0.87328506
139,1436803442771,-1.0714053,9.988011,-0.82779527
140,1436803442789,-1.127669,9.950901,-0.7966706
141,1436803442810,-1.146224,10.016143,-0.80445176
142,1436803442829,-1.0420763,10.000581,-0.88645315
143,1436803442850,-1.1091139,9.968858,-0.8882488
144,1436803442871,-1.0923545,10.00477,-0.7978677
145,1436803442891,-1.0540473,9.996989,-0.81402856
146,1436803442911,-1.1504139,9.968858,-0.87687635
147,1436803442930,-1.0989386,9.944916,-0.80804306
148,1436803442951,-1.0444705,10.006566,-0.9068039
149,1436803442971,-1.1683705,9.983821,-0.830788
150,1436803442991,-1.1073183,10.000581,-0.82899237
151,1436803443011,-1.1623849,9.965864,-0.84934306
152,1436803443031,-1.0570401,9.9928,-0.8535329
153,1436803443048,-1.0696096,9.989806,-0.8451532
154,1436803443069,-1.2018893,9.952697,-0.83976626
155,1436803443089,-1.0354922,9.99639,-0.8822633
156,1436803443109,-1.0366893,9.993398,-0.83018947
157,1436803443155,-1.1025299,9.97185,-0.8714894
158,1436803443156,-1.1145009,9.970653,-0.83856916
159,1436803443179,-1.1384429,9.99639,-0.83617496
160,1436803443188,-1.2138603,9.967062,-0.82779527
161,1436803443212,-1.0995371,9.978435,-0.81402856
162,1436803443229,-1.0450691,10.001778,-0.8343793
163,1436803443249,-1.0672154,9.972448,-0.85891986
164,1436803443268,-1.1264719,9.986814,-0.80205756
165,1436803443290,-1.1623849,10.007763,-0.86610246
166,1436803443312,-1.2952632,9.932345,-0.89662856
167,1436803443331,-0.89543146,10.014946,-0.96785605
168,1436803443352,-0.9588778,10.032902,-0.80086046
169,1436803443370,-1.103727,10.002377,-0.8702923
170,1436803443390,-1.1779473,9.953894,-0.84814596
171,1436803443412,-1.395221,9.919178,-0.9211691
172,1436803443432,-1.2964603,9.9473095,-0.82779527
173,1436803443452,-1.0121487,10.029311,-0.88944596
174,1436803443472,-1.0767922,10.01734,-0.85652566
175,1436803443492,-1.1899183,9.982025,-0.8595184
176,1436803443512,-1.2138603,9.968858,-0.8391677
177,1436803443532,-1.1953052,9.974843,-0.9127894
178,1436803443550,-1.1629834,9.9550905,-0.87089086
179,1436803443570,-1.0809821,9.991602,-0.85293436
180,1436803443592,-1.1444284,9.996989,-0.90740246
181,1436803443609,-1.1731589,9.946711,-0.87687635
182,1436803443629,-1.2330139,9.9473095,-0.8690952
183,1436803443649,-1.1905168,9.955689,-0.92296475
184,1436803443675,-1.0618285,9.976639,-0.9415198
185,1436803443690,-1.1336545,9.9790325,-0.90261406
186,1436803443714,-1.115698,9.977237,-0.8265981
187,1436803443732,-1.1899183,9.9712515,-0.8726865
188,1436803443749,-1.1049241,9.985018,-0.8870517
189,1436803443769,-1.062427,9.964667,-0.9068039
190,1436803443789,-1.0905589,9.988011,-0.92176765
191,1436803443809,-1.1623849,9.993997,-0.842759
192,1436803443832,-1.1965023,9.970055,-0.87567925
193,1436803443884,-1.1510124,9.968259,-0.919972
194,1436803443886,-1.1959038,9.954493,-0.89423436
195,1436803443903,-1.2557588,9.968259,-0.9355343
196,1436803443909,-1.2162545,9.946711,-0.91458505
197,1436803443930,-1.1971009,9.961076,-0.8619126
198,1436803443952,-1.1510124,9.983223,-0.8870517
199,1436803443969,-1.1324574,9.972448,-0.9115923
200,1436803443989,-1.1665748,9.983223,-0.89303726
201,1436803444013,-1.1755531,9.970653,-0.878672
202,1436803444030,-1.1522095,9.970653,-0.88525605
203,1436803444050,-1.1677719,9.967062,-0.8936358
204,1436803444071,-1.1731589,9.976639,-0.93972415
205,1436803444090,-1.1408371,9.960478,-0.9295488
206,1436803444113,-1.1192893,9.989806,-0.9020155
207,1436803444133,-1.1366472,9.996989,-0.88525605
208,1436803444152,-1.0869676,9.987412,-0.8762778
209,1436803444172,-1.1384429,9.985018,-0.9223662
210,1436803444190,-1.1522095,9.97604,-0.9068039
211,1436803444213,-1.1444284,9.968259,-0.89543146
212,1436803444233,-1.1001357,10.005369,-0.8900445
213,1436803444253,-1.1384429,9.967062,-0.9151836
214,1436803444272,-1.1468226,9.970653,-0.90620536
215,1436803444295,-1.0875661,9.966463,-0.91219085
216,1436803444312,-1.1133038,9.985018,-0.8948329
217,1436803444336,-1.1330559,9.968259,-0.88765025
218,1436803444351,-1.0887632,9.97185,-0.8912416
219,1436803444375,-1.1204864,9.977836,-0.919972
220,1436803444393,-1.1312603,9.947908,-0.90261406
221,1436803444410,-1.0911574,9.98442,-0.86849666
222,1436803444429,-1.0893618,9.982624,-0.9504981
223,1436803444450,-1.1109096,9.973646,-0.8798691
224,1436803444475,-1.0606314,9.988609,-0.9163807
225,1436803444491,-1.055843,9.99639,-0.91937345
226,1436803444521,-1.110311,9.998785,-0.92176765
227,1436803444530,-1.1875241,9.957485,-0.9091981
228,1436803444552,-1.1174936,9.970055,-0.9648633
229,1436803444605,-1.1540052,9.966463,-0.92775315
230,1436803444611,-1.0414777,9.988011,-0.89782566
231,1436803444612,-1.18094,9.973646,-0.9223662
232,1436803444630,-1.0965444,9.981427,-0.8690952
233,1436803444650,-1.1324574,9.975441,-0.92895025
234,1436803444670,-1.0726024,9.981427,-0.9391256
235,1436803444690,-0.99898064,9.993398,-0.9175778
236,1436803444716,-1.1845313,9.949105,-0.9552865
237,1436803444743,-1.2982559,9.940725,-0.90141696
238,1436803444761,-1.0827777,9.985018,-0.90620536
239,1436803444770,-1.1605892,9.979631,-0.95229375
240,1436803444790,-1.1534066,9.948506,-0.95588505
241,1436803444810,-1.1905168,9.973047,-0.9498995
242,1436803444833,-1.0576386,9.965864,-0.9068039
243,1436803444851,-1.1402385,9.982025,-0.8984242
244,1436803444873,-1.0935516,9.97604,-0.90021986
245,1436803444893,-1.0660183,9.978435,-0.9744401
246,1436803444911,-1.174356,9.966463,-0.94810385
247,1436803444930,-1.1593921,9.9712515,-0.93613285
248,1436803444950,-1.0660183,9.983223,-0.9391256
249,1436803444970,-1.0510546,9.98442,-0.92895025
250,1436803444991,-1.1845313,9.937134,-0.943914
251,1436803445012,-1.1330559,9.965864,-0.9355343
252,1436803445036,-1.0217255,10.003573,-0.96905315
253,1436803445053,-1.1402385,9.961675,-0.9343372
254,1436803445072,-1.0869676,9.981427,-0.9768343
255,1436803445094,-1.09834,9.9928,-0.93972415
256,1436803445113,-1.1282675,9.965864,-0.9648633
257,1436803445132,-1.0019734,9.988011,-0.93254155
258,1436803445151,-1.0594343,9.975441,-0.93852705
259,1436803445170,-1.1115081,9.958083,-0.95708215
260,1436803445190,-1.067814,9.979631,-0.9528923
261,1436803445214,-1.01574,10.001179,-0.9768343
262,1436803445232,-1.0947487,9.994595,-0.95947635
263,1436803445252,-1.049259,9.986216,-0.92895025
264,1436803445272,-1.0552444,10.004171,-0.9876082
265,1436803445295,-1.0636241,9.96766,-0.9415198
266,1436803445365,-1.1306617,9.970055,-0.9576807
267,1436803445366,-1.039682,9.998785,-1.003769
268,1436803445367,-1.0498575,9.973047,-0.9588778
269,1436803445372,-1.074398,9.977836,-0.92655605
270,1436803445394,-1.0929531,9.959879,-0.9768343
271,1436803445410,-1.0366893,9.988609,-0.9840169
272,1436803445430,-1.0702082,9.958083,-0.9900024
273,1436803445456,-1.0253168,9.988011,-0.96426475
274,1436803445471,-0.99538934,10.007165,-0.97743285
275,1436803445493,-1.0031705,9.9928,-0.97862995
276,1436803445513,-1.0815806,9.9473095,-0.91219085
277,1436803445531,-1.050456,9.977836,-1.0199299
278,1436803445554,-1.0378864,9.988011,-0.95109665
279,1436803445574,-0.94930094,9.996989,-0.99060094
280,1436803445594,-0.99419224,10.016143,-1.002572
281,1436803445614,-1.1031284,9.962872,-0.97982705
282,1436803445633,-1.0193313,9.974244,-0.9151836
283,1436803445654,-0.96306765,10.01734,-1.021127
284,1436803445675,-0.99898064,9.977836,-0.9840169
285,1436803445693,-0.9888053,9.9951935,-0.9403227
286,1436803445714,-1.0564415,9.993997,-0.961272
287,1436803445735,-1.0642227,9.977836,-0.90500826
288,1436803445752,-0.84694886,10.044274,-1.0516531
289,1436803445771,-0.98700964,9.98442,-0.997185
290,1436803445794,-0.97743285,9.9928,-0.9660604
291,1436803445811,-1.158195,9.973047,-0.9367314
292,1436803445832,-1.086369,9.993398,-0.94331545
293,1436803445851,-0.9684546,10.007763,-0.94570965
294,1436803445873,-0.9744401,9.998785,-0.98700964
295,1436803445895,-1.0606314,9.961076,-0.961272
296,1436803445913,-1.0486604,10.001179,-0.95708215
297,1436803445934,-0.95588505,10.023924,-0.93134445
298,1436803445953,-0.985214,9.982025,-0.91578215
299,1436803445973,-0.97384155,9.995792,-0.9295488
300,1436803445991,-0.9528923,9.990405,-0.92655605
301,1436803446012,-0.97503865,9.988609,-0.92296475
302,1436803446034,-0.93852705,10.029311,-0.9463082
303,1436803446105,-1.0139444,9.980828,-0.9331401
304,1436803446106,-0.99658644,9.982624,-0.86011696
305,1436803446107,-0.87208796,10.029909,-0.88286185
306,1436803446115,-0.9020155,9.977836,-0.9391256
307,1436803446133,-1.086369,9.979631,-0.9044097
308,1436803446155,-0.99419224,10.025121,-0.83856916
309,1436803446171,-0.8936358,10.016143,-0.80804306
310,1436803446200,-0.8655039,10.005369,-0.81343
311,1436803446213,-0.90021986,9.998785,-0.84814596
312,1436803446233,-0.9463082,9.9790325,-0.8194155
313,1436803446253,-0.8702923,10.061633,-0.86251116
314,1436803446272,-0.83737206,10.02572,-0.8158242
315,1436803446293,-0.8678981,10.008362,-0.79846627
316,1436803446315,-0.8822633,10.041881,-0.8074445
317,1436803446352,-0.9636662,9.975441,-0.79008657
318,1436803446353,-0.96306765,9.983821,-0.8062474
319,1436803446386,-0.79726917,10.04607,-0.81402856
320,1436803446391,-0.7823054,10.028113,-0.81043726
321,1436803446411,-0.8194155,10.008362,-0.81043726
322,1436803446431,-0.9708488,9.9928,-0.82480246
323,1436803446451,-0.79487497,10.047866,-0.7260417
324,1436803446471,-0.6051345,10.098145,-0.7410054
325,1436803446491,-0.6745663,10.042479,-0.7673417
326,1436803446511,-0.7308301,10.010158,-0.76554596
327,1436803446531,-0.9331401,9.970055,-0.7697359
328,1436803446552,-0.7906851,10.077793,-0.79607207
329,1436803446571,-0.676362,10.077195,-0.70509243
330,1436803446591,-0.6847417,10.026319,-0.7236475
331,1436803446611,-0.801459,10.010158,-0.7194576
332,1436803446635,-0.9032126,9.97185,-0.6572084
333,1436803446655,-0.8002619,10.084976,-0.6985083
334,1436803446675,-0.7086837,10.065823,-0.7272388
335,1436803446693,-0.6925228,10.067019,-0.7194576
336,1436803446712,-0.7332243,10.032902,-0.7212533
337,1436803446732,-0.86011696,10.006566,-0.7290344
338,1436803446770,-0.83497787,10.036493,-0.7248446
339,1436803446773,-0.694917,10.077195,-0.6739678
340,1436803446791,-0.6937199,10.068216,-0.62488663
341,1436803446811,-0.7032967,9.9951935,-0.66020113
342,1436803446833,-0.8810662,9.989806,-0.6901286
343,1436803446852,-0.8451532,10.0664215,-0.6973112
344,1436803446872,-0.54049104,10.086173,-0.61650693
345,1436803446892,-0.59017074,10.067618,-0.6428431
346,1436803446911,-0.6607997,9.989806,-0.60333884
347,1436803446935,-0.85532856,10.029909,-0.6697779
348,1436803446955,-0.7110779,10.061633,-0.66139823
349,1436803446976,-0.6003461,10.0987425,-0.5758055
350,1436803446991,-0.5710171,10.059238,-0.6087258
351,1436803447012,-0.6075287,10.0508585,-0.6386533
352,1436803447035,-0.7026982,10.036493,-0.6159084
353,1436803447056,-0.664391,10.046669,-0.62967503
354,1436803447076,-0.6063316,10.067618,-0.5650316
355,1436803447096,-0.59735334,10.065224,-0.5674258
356,1436803447116,-0.7212533,10.013748,-0.62728083
357,1436803447136,-0.78888947,10.0269165,-0.65660983
358,1436803447152,-0.63087213,10.080188,-0.5105635
359,1436803447176,-0.6290765,10.0748005,-0.56443304
360,1436803447195,-0.670975,10.037092,-0.5895722
361,1436803447212,-0.74998367,10.023924,-0.5746084
362,1436803447234,-0.7332243,10.044873,-0.6099229
363,1436803447256,-0.66379243,10.065224,-0.516549
364,1436803447276,-0.6135142,10.047866,-0.5279215
365,1436803447296,-0.641646,10.043676,-0.61411273
366,1436803447316,-0.7032967,10.016143,-0.58538234
367,1436803447334,-0.7134721,10.060435,-0.5626374
368,1436803447352,-0.6841431,10.084976,-0.5847838
369,1436803447372,-0.6266823,10.06283,-0.5129577
370,1436803447393,-0.5859809,10.038289,-0.623091
371,1436803447412,-0.6913257,10.032304,-0.623091
372,1436803447450,-0.789488,10.040684,-0.5835867
373,1436803447452,-0.7344214,10.070611,-0.5279215
374,1436803447472,-0.6667852,10.089166,-0.5835867
375,1436803447495,-0.6063316,10.04607,-0.57760113
376,1436803447516,-0.6985083,10.053253,-0.59855044
377,1436803447532,-0.8146271,10.029311,-0.51714754
378,1436803447556,-0.7529764,10.055647,-0.54408234
379,1436803447572,-0.5482722,10.080188,-0.6051345
380,1436803447596,-0.6039374,10.064626,-0.62368953
381,1436803447625,-0.7026982,10.023325,-0.59136784
382,1436803447634,-0.7882909,10.017939,-0.5847838
383,1436803447658,-0.9020155,10.014946,-0.56802434
384,1436803447676,-0.6368576,10.12448,-0.55844754
385,1436803447696,-0.5153519,10.064626,-0.599149
386,1436803447716,-0.61291564,10.070611,-0.61052144
387,1436803447736,-0.7667431,10.044274,-0.61530983
388,1436803447779,-0.86969376,10.023325,-0.57400984
389,1436803447780,-0.676362,10.072407,-0.54408234
390,1436803447796,-0.60932434,10.05864,-0.5686229
391,1436803447816,-0.66738373,10.064027,-0.6075287
392,1436803447836,-0.7703344,10.038888,-0.58418524
393,1436803447853,-0.8559271,10.05445,-0.55605334
394,1436803447876,-0.748188,10.084976,-0.5566519
395,1436803447894,-0.5919664,10.063428,-0.53330845
396,1436803447913,-0.5943606,10.020332,-0.59136784
397,1436803447933,-0.7044938,9.999982,-0.59136784
398,1436803447956,-0.8295909,10.062231,-0.6422446
399,1436803447976,-0.74878657,10.086772,-0.5734113
400,1436803447996,-0.55246204,10.107721,-0.4417302
401,1436803448016,-0.58777654,10.096947,-0.57520694
402,1436803448034,-0.64942724,10.049662,-0.5805939
