id,attr_time,attr_x,attr_y,attr_z
1,1436609875224,0.0324707,0.00050354,0.0137482
2,1436609875246,0.026062,-0.000564575,0.00733948
3,1436609875263,0.0303345,0.00157166,0.00520325
4,1436609875282,0.0324707,0.00904846,0.00306702
5,1436609875302,0.0303345,0.00370789,0.0019989
6,1436609875321,0.026062,0.00157166,-0.00440979
7,1436609875345,0.0185852,-0.000564575,-0.00547791
8,1436609875362,0.00897217,-0.00376892,-0.00868225
9,1436609875382,0.00469971,-0.000564575,-0.00761414
10,1436609875402,0.00683594,-0.00483704,-0.00654602
11,1436609875421,0.00897217,-0.00697327,-0.00440979
12,1436609875442,0.0132446,-0.00376892,-0.00120544
13,1436609875461,0.0100403,-0.00376892,0.000930786
14,1436609875481,0.00469971,-0.00697327,-0.00227356
15,1436609875501,-0.000640869,-0.0112457,-0.00761414
16,1436609875521,-0.00704956,-0.013382,-0.00761414
17,1436609875543,-0.0123901,-0.0144501,-0.00868225
18,1436609875561,-0.0145264,-0.0112457,-0.0118866
19,1436609875581,-0.0027771,-0.00483704,-0.00975037
20,1436609875598,0.00363159,-0.00376892,-0.00654602
21,1436609875620,0.0143127,0.00050354,-0.00440979
22,1436609875641,0.0132446,-0.000564575,-0.00440979
23,1436609875660,0.0132446,-0.00483704,-0.00547791
24,1436609875680,0.00256348,-0.0091095,-0.00868225
25,1436609875700,-0.00918579,-0.0144501,-0.0129547
26,1436609875719,-0.0241394,-0.0187225,-0.0172272
27,1436609875737,-0.0305481,-0.022995,-0.0214996
28,1436609875759,-0.0284119,-0.0251312,-0.0204315
29,1436609875780,-0.02948,-0.0251312,-0.0161591
30,1436609875799,-0.0284119,-0.0197906,-0.0129547
31,1436609875819,-0.0262756,-0.0112457,-0.00227356
32,1436609875838,-0.0198669,-0.00590515,0.00306702
33,1436609875858,-0.0220032,-0.000564575,0.00520325
34,1436609875879,-0.0337524,0.00263977,0.0019989
35,1436609875898,-0.0401611,0.00157166,-0.00334167
36,1436609875917,-0.0401611,0.00157166,-0.00654602
37,1436609875938,-0.0369568,0.00050354,-0.00868225
38,1436609875956,-0.0305481,0.00050354,-0.0108185
39,1436609875977,-0.0284119,-0.00270081,-0.00975037
40,1436609875997,-0.0262756,-0.0091095,-0.0129547
41,1436609876017,-0.0284119,-0.0112457,-0.00761414
42,1436609876036,-0.0252075,-0.0144501,-0.00654602
43,1436609876055,-0.0155945,-0.0123138,-0.00227356
44,1436609876076,-0.00918579,-0.0101776,-0.00227356
45,1436609876095,-0.000640869,-0.0101776,-0.00334167
46,1436609876116,0.00149536,-0.00804138,-0.00227356
47,1436609876135,0.0100403,-0.0091095,-0.00120544
48,1436609876155,0.00256348,-0.0091095,-0.00440979
49,1436609876178,0.00149536,-0.0123138,-0.0108185
50,1436609876195,0.00469971,-0.0123138,-0.0140228
51,1436609876215,-0.0027771,-0.0101776,-0.0161591
52,1436609876235,-0.00598145,-0.00804138,-0.0204315
53,1436609876255,-0.000640869,-0.00163269,-0.0140228
54,1436609876277,0.000427246,-0.000564575,-0.00654602
55,1436609876294,0.00256348,0.00050354,-0.00547791
56,1436609876313,-0.000640869,0.00157166,-0.00120544
57,1436609876334,0.00469971,-0.000564575,0.000930786
58,1436609876354,-0.000640869,-0.00270081,0.0019989
59,1436609876373,-0.00384521,-0.00163269,0.0019989
60,1436609876393,-0.00384521,0.00050354,0.000930786
61,1436609876413,-0.000640869,0.00157166,0.000930786
62,1436609876433,0.00897217,0.00157166,0.000930786
63,1436609876453,0.0153809,0.00584412,-0.00227356
64,1436609876476,0.0100403,0.00798035,-0.00440979
65,1436609876493,0.0100403,0.0122528,-0.00761414
66,1436609876511,0.0111084,0.0101166,-0.00547791
67,1436609876532,0.00790405,0.0111847,-0.00547791
68,1436609876552,0.00149536,0.00584412,-0.00654602
69,1436609876572,-0.00491333,0.00157166,-0.00547791
70,1436609876592,-0.0198669,-0.00270081,-0.00654602
71,1436609876612,-0.0348206,-0.00483704,-0.0108185
72,1436609876631,-0.0476379,-0.00804138,-0.00975037
73,1436609876651,-0.0444336,-0.00483704,-0.00975037
74,1436609876672,-0.0401611,0.00157166,-0.00761414
75,1436609876689,-0.0273438,0.00050354,-0.00547791
76,1436609876711,-0.0209351,0.004776,-0.00227356
77,1436609876729,-0.0155945,0.00584412,-0.00227356
78,1436609876750,-0.0102539,0.0122528,-0.000137329
79,1436609876771,-0.00491333,0.0133209,0.0019989
80,1436609876790,-0.00704956,0.00691223,-0.000137329
81,1436609876810,-0.00811768,0.00584412,-0.00334167
82,1436609876828,-0.00384521,0.00798035,-0.00440979
83,1436609876849,0.00256348,0.00798035,-0.00547791
84,1436609876872,0.00363159,0.00370789,-0.00868225
85,1436609876889,0.00256348,-0.000564575,-0.00868225
86,1436609876910,0.00256348,-0.00697327,-0.00868225
87,1436609876929,-0.00598145,-0.00590515,-0.00975037
88,1436609876949,-0.0123901,-0.00483704,-0.00975037
89,1436609876970,-0.011322,0.00263977,-0.00547791
90,1436609876988,-0.011322,0.00050354,-0.000137329
91,1436609877008,-0.00918579,0.00050354,-0.000137329
92,1436609877028,-0.00918579,-0.00376892,0.000930786
93,1436609877047,-0.0102539,-0.00270081,-0.00120544
94,1436609877067,-0.0145264,0.00050354,-0.000137329
95,1436609877087,-0.0166626,0.00157166,0.0019989
96,1436609877108,-0.000640869,0.00370789,0.000930786
97,1436609877127,0.0175171,0.00263977,0.000930786
98,1436609877145,0.0228577,0.004776,0.00520325
99,1436609877167,0.0175171,0.00263977,0.00413513
100,1436609877186,0.00469971,0.00263977,0.00520325
101,1436609877209,0.000427246,0.00370789,0.00520325
102,1436609877226,0.00576782,0.00691223,0.00733948
103,1436609877246,0.0121765,0.00904846,0.00947571
104,1436609877266,0.0185852,0.0122528,0.0105438
105,1436609877285,0.0207214,0.0154572,0.0126801
106,1436609877306,0.0207214,0.014389,0.0126801
107,1436609877324,0.0143127,0.0111847,0.0148163
108,1436609877345,0.00363159,0.00798035,0.0105438
109,1436609877365,-0.00491333,0.00370789,0.00627136
110,1436609877385,-0.0134583,-0.000564575,0.0019989
111,1436609877407,-0.0145264,0.00370789,-0.00227356
112,1436609877425,-0.0155945,0.00263977,0.000930786
113,1436609877444,-0.0166626,-0.000564575,-0.00120544
114,1436609877463,-0.0262756,-0.00270081,-0.00120544
115,1436609877484,-0.0358887,-0.000564575,-0.00227356
116,1436609877505,-0.0337524,0.00691223,0.000930786
117,1436609877524,-0.0348206,0.00904846,0.0019989
118,1436609877544,-0.0305481,0.0111847,0.0019989
119,1436609877563,-0.0241394,0.0197296,0.00306702
120,1436609877583,-0.00918579,0.0272064,0.00520325
121,1436609877605,0.00897217,0.0336151,0.00413513
122,1436609877623,0.0175171,0.0336151,0.000930786
123,1436609877642,0.0378113,0.0336151,-0.00227356
124,1436609877663,0.0591736,0.0368195,-0.00334167
125,1436609877682,0.0901489,0.0389557,-0.00547791
126,1436609877703,0.118988,0.0528412,-0.00547791
127,1436609877722,0.128601,0.0560455,-0.00334167
128,1436609877742,0.129669,0.0624542,-0.00547791
129,1436609877761,0.130737,0.0667267,-0.00654602
130,1436609877780,0.133942,0.0688629,-0.0108185
131,1436609877804,0.125397,0.0709991,-0.0150909
132,1436609877820,0.107239,0.0720673,-0.024704
133,1436609877841,0.081604,0.0731354,-0.0279083
134,1436609877860,0.0741272,0.0795441,-0.0385895
135,1436609877880,0.081604,0.0816803,-0.0428619
136,1436609877902,0.091217,0.0902252,-0.0396576
137,1436609877919,0.081604,0.101974,-0.0482025
138,1436609877940,0.0581055,0.117996,-0.0599518
139,1436609877959,0.0239258,0.15538,-0.0492706
140,1436609877979,0.0100403,0.176743,-0.0439301
141,1436609878002,0.0303345,0.202377,-0.0375214
142,1436609878020,0.0281982,0.238693,-0.000137329
143,1436609878039,0.0623779,0.293167,0.0190887
144,1436609878059,0.132874,0.347641,0.076767
145,1436609878078,0.200165,0.443771,0.121628
146,1436609878101,0.229004,0.515335,0.169693
147,1436609878118,0.362518,0.582626,0.211349
148,1436609878138,0.568665,0.628555,0.304275
149,1436609878158,0.749176,0.660599,0.399338
150,1436609878178,0.938232,0.667007,0.484787
151,1436609878199,1.19992,0.659531,0.578781
152,1436609878217,1.46161,0.630691,0.677048
153,1436609878235,1.68378,0.605057,0.721909
154,1436609878257,1.79272,0.565536,0.696274
155,1436609878276,1.79379,0.514267,0.639664
156,1436609878296,1.68164,0.448044,0.537125
157,1436609878317,1.42209,0.355118,0.405746
158,1436609878339,1.05359,0.26326,0.243393
159,1436609878356,0.723541,0.197037,0.10347
160,1436609878376,0.533417,0.175674,0.0222931
161,1436609878396,0.536621,0.159653,0.00306702
162,1436609878416,0.629547,0.15538,0.0319061
163,1436609878439,0.738495,0.136154,0.0842438
164,1436609878455,0.873077,0.107315,0.169693
165,1436609878475,1.00659,0.0720673,0.23912
166,1436609878495,1.08136,0.0336151,0.292526
167,1436609878515,1.05359,-0.000564575,0.309616
168,1436609878537,0.945709,-0.0379486,0.304275
169,1436609878553,0.828217,-0.0817413,0.286118
170,1436609878574,0.73529,-0.119125,0.25087
171,1436609878593,0.681885,-0.130875,0.208145
172,1436609878614,0.637024,-0.120193,0.161148
173,1436609878634,0.559052,-0.112717,0.104538
174,1436609878654,0.458649,-0.0924225,0.0724945
175,1436609878674,0.411652,-0.0860138,0.0703583
176,1436609878693,0.349701,-0.0849457,0.0917206
177,1436609878713,0.266388,-0.109512,0.113083
178,1436609878735,0.198029,-0.140488,0.0372467
179,1436609878753,0.20871,-0.125534,-0.0407257
180,1436609878773,0.408447,-0.0400848,-0.0674286
181,1436609878793,0.751312,0.0314789,-0.135788
182,1436609878812,0.999115,0.0410919,-0.291733
183,1436609878833,1.24692,-0.295364,-0.442337
184,1436609878852,1.51074,-0.918076,-0.488266
185,1436609878870,1.60687,-0.891373,-0.461563
186,1436609878892,1.29178,-0.884964,-0.424179
187,1436609878911,0.507782,-0.801651,-0.54808
188,1436609878934,-0.576355,-0.649979,-0.623917
189,1436609878951,-1.51843,-0.575211,-0.682663
190,1436609878971,-2.02792,-0.484421,-0.76384
191,1436609878991,-2.08987,-0.362656,-0.725388
192,1436609879009,-1.92218,-0.150101,-0.628189
193,1436609879033,-1.73099,-0.00590515,-0.514969
194,1436609879050,-1.35822,0.0827484,-0.350479
195,1436609879069,-0.686371,0.16713,-0.0962677
196,1436609879090,0.0100403,0.15538,0.148331
197,1436609879110,0.461853,0.256851,0.306412
198,1436609879132,0.524872,0.275009,0.360886
199,1436609879150,0.261047,0.430954,0.39827
200,1436609879169,-0.27301,0.601852,0.491196
201,1436609879188,-0.908539,0.616806,0.417496
202,1436609879209,-1.17236,0.522812,0.304275
203,1436609879230,-0.773956,0.466202,0.407883
204,1436609879249,-0.245239,0.488632,0.571304
205,1436609879269,-0.2901,0.520676,0.65889
206,1436609879288,-0.777161,0.496109,0.596939
207,1436609879307,-1.56757,0.453384,0.426041
208,1436609879327,-2.31097,0.455521,0.157944
209,1436609879348,-2.38467,0.452316,-0.105881
210,1436609879367,-1.78653,0.479019,-0.126175
211,1436609879388,-1.15634,0.569809,0.0724945
212,1436609879407,-0.988647,0.502518,0.0938568
213,1436609879430,-1.3219,0.0806122,-0.160355
214,1436609879447,-1.20013,-0.183212,-0.229782
215,1436609879467,-0.356323,-0.202438,-0.20842
216,1436609879486,0.812195,-0.33168,-0.111221
217,1436609879507,1.96255,-0.334885,-0.0759735
218,1436609879529,3.11932,-0.180008,-0.000137329
219,1436609879545,4.12976,0.100906,0.113083
220,1436609879569,4.76529,0.20665,0.0970612
221,1436609879586,5.15195,0.257919,0.0671539
222,1436609879605,4.9426,0.441635,0.198532
223,1436609879625,4.16501,0.343369,0.262619
224,1436609879644,3.21652,0.0934296,0.121628
225,1436609879667,2.42932,-0.08815,-0.0717011
226,1436609879684,1.83972,-0.112717,-0.285324
227,1436609879705,1.28217,-0.102036,-0.45195
228,1436609879724,0.84317,-0.00163269,-0.544876
229,1436609879745,0.569733,0.0731354,-0.545944
230,1436609879767,0.477875,0.069931,-0.505356
231,1436609879784,0.552643,0.022934,-0.423111
232,1436609879804,0.649841,-0.0475616,-0.320572
233,1436609879823,0.646637,-0.129807,-0.235123
234,1436609879843,0.562256,-0.181076,-0.163559
235,1436609879866,0.410583,-0.187485,-0.110153
236,1436609879883,0.220459,-0.147964,-0.052475
237,1436609879903,0.063446,-0.0721283,0.0222931
238,1436609879923,0.0185852,0.014389,0.139786
239,1436609879943,0.133942,0.078476,0.236984
240,1436609879961,0.350769,0.145767,0.339523
241,1436609879982,0.638092,0.22908,0.446335
242,1436609880034,0.89444,0.335892,0.578781
243,1436609880035,0.961731,0.380753,0.523239
244,1436609880038,0.904053,0.568741,0.569168
245,1436609880075,0.851715,0.831497,0.678116
246,1436609880079,0.847443,1.0291,0.733658
247,1436609880101,0.834625,1.13164,0.65889
248,1436609880118,0.722473,1.11775,0.462357
249,1436609880138,0.541962,0.982101,0.163284
250,1436609880161,0.333679,0.791977,-0.119766
251,1436609880190,0.0495605,0.511063,-0.396408
252,1436609880198,-0.344574,-0.116989,-0.653824
253,1436609880219,-1.30054,-0.978958,-0.818314
254,1436609880237,-2.22339,-1.58031,-1.04582
255,1436609880261,-2.85892,-1.64119,-1.12593
256,1436609880277,-3.15051,-1.37309,-0.961441
257,1436609880298,-3.18362,-1.0847,-0.762772
258,1436609880318,-2.99991,-0.849716,-0.669846
259,1436609880338,-2.66238,-0.661728,-0.541672
260,1436609880361,-1.99588,-0.51326,-0.313095
261,1436609880378,-1.36996,-0.353043,0.0831757
262,1436609880399,-0.440704,-0.199234,0.524307
263,1436609880417,0.615662,0.147903,0.979324
264,1436609880438,1.36761,0.30278,1.44182
265,1436609880460,2.07471,0.37114,1.69496
266,1436609880478,2.70596,0.538834,1.8242
267,1436609880498,3.03708,0.655258,1.91713
268,1436609880518,2.96765,0.680893,1.84877
269,1436609880537,2.58633,0.662735,1.68962
270,1436609880560,1.9743,0.610397,1.51231
271,1436609880577,1.25226,0.503586,1.19295
272,1436609880596,0.471466,0.331619,0.816971
273,1436609880616,-0.239899,0.142563,0.39827
274,1436609880635,-0.721619,0.0378876,0.122696
275,1436609880659,-1.14566,-0.182144,-0.148605
276,1436609880676,-1.4223,-0.414993,-0.397476
277,1436609880695,-1.33685,-0.451309,-0.482925
278,1436609880716,-0.901062,-0.427811,-0.615372
279,1436609880733,-0.254852,-0.293228,-0.67305
280,1436609880758,0.397766,-0.131943,-0.843948
281,1436609880774,0.880554,0.0624542,-1.02873
282,1436609880796,1.21487,0.177811,-1.21672
283,1436609880815,1.35266,0.125473,-1.37267
284,1436609880834,1.31955,-0.0625153,-1.47627
285,1436609880854,1.07388,-0.276138,-1.56599
286,1436609880875,0.722473,-0.453445,-1.62794
287,1436609880894,0.42981,-0.512192,-1.67067
288,1436609880914,0.12326,-0.443832,-1.69524
289,1436609880937,-0.161926,-0.304977,-1.74864
290,1436609880953,-0.352051,-0.108444,-1.77321
291,1436609880973,-0.408661,0.078476,-1.72301
292,1436609880994,-0.338165,0.176743,-1.56813
293,1436609881013,-0.127747,0.181015,-1.35878
294,1436609881035,0.170258,0.126541,-1.12166
295,1436609881052,0.50885,0.014389,-0.888809
296,1436609881072,0.749176,-0.0774689,-0.65596
297,1436609881091,0.774811,-0.152237,-0.477585
298,1436609881113,0.574005,-0.209915,-0.363297
299,1436609881133,0.199097,-0.209915,-0.205215
300,1436609881152,-0.217468,-0.165054,0.0190887
301,1436609881172,-0.479156,-0.133011,0.278641
302,1436609881192,-0.507996,-0.0998993,0.593735
303,1436609881211,-0.337097,0.0133209,1.10857
304,1436609881233,-0.140564,0.0827484,1.69069
305,1436609881251,-0.0519104,0.0432281,2.03249
306,1436609881271,0.190552,0.170334,2.45226
307,1436609881290,0.854919,0.521744,2.87416
308,1436609881310,1.80875,1.07289,3.11342
309,1436609881333,2.96231,1.67851,3.15935
310,1436609881351,3.9877,2.14207,2.88164
311,1436609881368,4.52069,2.30443,2.28563
312,1436609881390,4.39038,2.16664,1.66078
313,1436609881409,3.29877,1.22243,0.954758
314,1436609881432,1.61862,0.284622,0.292526
315,1436609881449,-0.277283,-0.421402,-0.635666
316,1436609881470,-2.05676,-1.00673,-1.07893
317,1436609881489,-3.29898,-1.25987,-1.37053
318,1436609881507,-3.96121,-1.23958,-1.51152
319,1436609881532,-4.07977,-1.06654,-1.43462
320,1436609881548,-3.97083,-0.826218,-1.21886
321,1436609881568,-3.91742,-0.679886,-1.00523
322,1436609881588,-3.69525,-0.538895,-0.91124
323,1436609881608,-2.88135,-0.376541,-0.692276
324,1436609881627,-1.51736,-0.221664,-0.258621
325,1436609881648,-0.0369568,-0.0870819,0.152603
326,1436609881667,1.15506,0.0870209,0.439926
327,1436609881687,1.98819,0.364731,0.618301
328,1436609881707,2.64294,0.706528,0.730453
329,1436609881728,3.17166,1.01521,0.860764
330,1436609881747,3.56686,1.20641,0.997482
331,1436609881767,3.64804,1.23097,1.05623
332,1436609881786,3.30197,1.11348,1.04341
333,1436609881806,2.5372,0.82402,0.932327
334,1436609881828,1.49152,0.440567,0.704819
335,1436609881846,0.439423,0.116928,0.452744
336,1436609881865,-0.268738,0.0667267,0.436722
337,1436609881886,-0.792114,-0.13942,0.259415
338,1436609881905,-0.906403,-0.322067,0.156876
339,1436609881928,-0.509064,-0.389359,0.162216
340,1436609881945,0.360382,-0.501511,0.100265
341,1436609881964,1.20099,-0.576279,-0.0823822
342,1436609881985,1.59192,-0.570938,-0.371841
343,1436609882005,1.55774,-0.537827,-0.724319
344,1436609882027,1.31955,-0.472672,-1.05971
345,1436609882043,1.0162,-0.436356,-1.32033
346,1436609882065,0.556915,-0.491898,-1.54677
347,1436609882083,0.0431519,-0.588028,-1.71019
348,1436609882104,-0.28476,-0.699112,-1.84477
349,1436609882124,-0.374481,-0.740768,-1.91634
350,1436609882142,-0.425751,-0.67775,-1.94518
351,1436609882164,-0.525085,-0.557053,-1.98256
352,1436609882182,-0.566742,-0.389359,-1.99644
353,1436609882205,-0.521881,-0.206711,-1.94304
354,1436609882223,-0.374481,-0.0593109,-1.80952
355,1436609882243,-0.132019,0.0400238,-1.61086
356,1436609882262,0.19162,0.0677948,-1.39189
357,1436609882281,0.519531,0.0656586,-1.16011
358,1436609882302,0.719269,0.0656586,-0.934738
359,1436609882322,0.694702,0.0549774,-0.744614
360,1436609882342,0.43515,0.0122528,-0.641006
361,1436609882362,-0.0369568,-0.0091095,-0.527786
362,1436609882381,-0.577423,0.0122528,-0.385727
363,1436609882402,-0.969421,0.0688629,-0.194534
364,1436609882421,-1.13391,0.175674,0.112015
365,1436609882441,-1.12643,0.322006,0.564896
366,1436609882459,-0.977966,0.465134,1.12886
367,1436609882481,-0.676758,0.556992,1.7206
368,1436609882502,-0.208923,0.579422,2.32942
369,1436609882520,0.416992,0.663803,3.06429
370,1436609882540,1.02368,0.697983,3.60155
371,1436609882560,1.55453,0.814407,4.11211
372,1436609882579,1.92517,1.04832,4.34496
373,1436609882601,2.10568,1.38692,4.26805
374,1436609882618,2.10995,1.73299,3.91985
375,1436609882640,2.17191,1.92632,3.42317
376,1436609882659,2.33105,1.80989,2.79085
377,1436609882679,2.095,1.38371,2.05919
378,1436609882701,1.52249,0.786636,1.34355
379,1436609882719,0.567596,0.117996,0.708023
380,1436609882738,-0.579559,-0.561325,0.0660858
381,1436609882758,-1.62097,-1.08897,-0.541672
382,1436609882779,-2.58334,-1.58672,-1.19215
383,1436609882798,-3.54785,-2.12184,-1.84798
384,1436609882816,-4.42157,-2.29381,-2.28911
385,1436609882838,-5.05923,-2.08873,-2.61809
386,1436609882857,-5.49182,-1.80568,-2.80714
387,1436609882877,-5.5762,-1.41048,-2.899
388,1436609882900,-5.0101,-0.802719,-2.84453
389,1436609882915,-3.69846,-0.0400848,-2.4066
390,1436609882936,-1.69147,0.789841,-1.74757
391,1436609882955,0.579346,1.498,-1.09816
392,1436609882976,2.63547,1.94447,-0.669846
393,1436609882998,4.26862,2.17198,-0.389999
394,1436609883016,5.27264,2.20296,-0.17424
395,1436609883035,5.39121,2.0374,0.0789032
396,1436609883055,4.61041,1.77037,0.365158
397,1436609883075,3.51132,1.48625,0.525375
398,1436609883099,2.5639,1.38478,0.576645
399,1436609883115,1.76175,1.31108,0.555283
400,1436609883135,0.947845,1.1028,0.445267
401,1436609883154,0.41272,0.962875,0.576645
402,1436609883174,0.189484,0.739639,0.878922
403,1436609883197,0.219391,0.513199,1.1342
404,1436609883214,0.722473,0.287827,1.3521
405,1436609883233,1.6763,0.0571136,1.3521
406,1436609883254,2.42612,-0.0219269,1.28694
407,1436609883273,2.74976,-0.0593109,1.10216
408,1436609883293,2.60129,-0.12233,0.846878
409,1436609883313,2.09714,-0.175735,0.724045
410,1436609883333,1.3345,-0.378677,0.673843
411,1436609883353,0.46933,-0.731155,0.583054
412,1436609883372,-0.305054,-1.19258,0.388657
413,1436609883392,-0.929901,-1.65935,0.183578
414,1436609883413,-1.53766,-2.13145,-0.177444
415,1436609883435,-2.30136,-2.40169,-0.589737
416,1436609883452,-3.12808,-2.3878,-1.02019
417,1436609883472,-3.88965,-2.09193,-1.36946
418,1436609883492,-4.44507,-1.69032,-1.64503
419,1436609883512,-4.77832,-1.28017,-1.87468
420,1436609883534,-4.7655,-0.910599,-2.06801
421,1436609883550,-4.20261,-0.561325,-2.12462
422,1436609883571,-3.16547,-0.0934906,-1.95479
423,1436609883590,-1.83673,0.454452,-1.67601
424,1436609883610,-0.462067,0.990646,-1.44102
