id,attr_time,attr_x,attr_y,attr_z
1,1436289167413,0.195908,-9.44308,-3.11383
2,1436289167432,0.192413,-9.48492,-3.17311
3,1436289167452,0.171143,-9.54771,-3.14151
4,1436289167471,0.181534,-9.5977,-3.13348
5,1436289167490,0.160614,-9.5954,-3.09138
6,1436289167511,0.175079,-9.61972,-3.01318
7,1436289167531,0.163971,-9.5327,-3.12608
8,1436289167551,0.172256,-9.49893,-3.03712
9,1436289167589,0.182602,-9.5121,-3.0574
10,1436289167609,0.182831,-9.44447,-3.02357
11,1436289167629,0.213959,-9.45314,-3.04079
12,1436289167649,0.179276,-9.39349,-3.037
13,1436289167669,0.203278,-9.39392,-3.03511
14,1436289167689,0.195221,-9.43367,-3.05327
15,1436289167708,0.201874,-9.4538,-3.06044
16,1436289167728,0.248627,-9.49345,-3.06006
17,1436289167748,0.207626,-9.536,-3.05482
18,1436289167766,0.199097,-9.55785,-3.03575
19,1436289167787,0.212219,-9.58093,-3.00613
20,1436289167806,0.204971,-9.59198,-3.07074
21,1436289167826,0.185593,-9.55537,-3.01743
22,1436289167847,0.193909,-9.5511,-3.02875
23,1436289167866,0.174789,-9.52005,-2.99863
24,1436289167886,0.209259,-9.49037,-3.07095
25,1436289167905,0.205093,-9.54602,-3.08968
26,1436289167926,0.199081,-9.56215,-3.11568
27,1436289167945,0.161468,-9.53282,-3.06618
28,1436289167965,0.20813,-9.56268,-3.0481
29,1436289167984,0.197876,-9.54346,-3.01868
30,1436289168004,0.175873,-9.54897,-3.03093
31,1436289168024,0.172867,-9.52277,-3.03928
32,1436289168044,0.153442,-9.56403,-3.02747
33,1436289168063,0.142044,-9.58504,-3.06233
34,1436289168081,0.119049,-9.57564,-3.06711
35,1436289168103,0.127975,-9.53452,-3.04485
36,1436289168122,0.146194,-9.48212,-3.07454
37,1436289168142,0.170593,-9.4747,-3.05077
38,1436289168162,0.173676,-9.54848,-3.08257
39,1436289168182,0.196701,-9.58571,-3.10851
40,1436289168201,0.192978,-9.5321,-3.08144
41,1436289168222,0.223389,-9.50632,-3.06398
42,1436289168241,0.203674,-9.50412,-3.00902
43,1436289168259,0.213303,-9.53503,-3.05678
44,1436289168281,0.201187,-9.54904,-3.11383
45,1436289168299,0.18605,-9.56679,-3.12215
46,1436289168320,0.185837,-9.5444,-3.04926
47,1436289168340,0.186432,-9.53554,-3.05908
48,1436289168359,0.195236,-9.51976,-3.06195
49,1436289168379,0.20816,-9.50862,-3.06021
50,1436289168399,0.213608,-9.51509,-3.06071
51,1436289168419,0.15892,-9.59354,-3.0649
52,1436289168438,0.105438,-9.60019,-3.10796
53,1436289168458,0.128555,-9.59987,-3.14102
54,1436289168477,0.137634,-9.50645,-3.05762
55,1436289168497,0.151352,-9.46483,-3.0623
56,1436289168517,0.168564,-9.44927,-3.06807
57,1436289168557,0.182709,-9.57375,-3.1151
58,1436289168574,0.190247,-9.53601,-3.09245
59,1436289168596,0.172302,-9.5161,-3.0977
60,1436289168615,0.127777,-9.52104,-3.07567
61,1436289168635,0.116455,-9.52364,-3.08409
62,1436289168656,0.149902,-9.52586,-3.10815
63,1436289168674,0.154129,-9.55048,-3.15225
64,1436289168695,0.177338,-9.57678,-3.16962
65,1436289168715,0.178116,-9.5285,-3.15179
66,1436289168734,0.137177,-9.51158,-3.10611
67,1436289168752,0.0959473,-9.52814,-3.08026
68,1436289168774,0.124222,-9.48325,-3.11774
69,1436289168793,0.138565,-9.51881,-3.11908
70,1436289168813,0.138916,-9.55135,-3.14774
71,1436289168833,0.147034,-9.56364,-3.1042
72,1436289168853,0.13028,-9.50845,-3.08653
73,1436289168873,0.124863,-9.49101,-3.07451
74,1436289168891,0.109085,-9.48671,-3.14447
75,1436289168912,0.098053,-9.50946,-3.18465
76,1436289168931,0.104431,-9.54825,-3.1754
77,1436289168952,0.120895,-9.50832,-3.12447
78,1436289168971,0.172623,-9.45761,-3.1394
79,1436289168991,0.155807,-9.42932,-3.13261
80,1436289169011,0.150787,-9.51309,-3.15932
81,1436289169030,0.177887,-9.55061,-3.21297
82,1436289169050,0.157379,-9.56226,-3.18637
83,1436289169069,0.150986,-9.49728,-3.15063
84,1436289169090,0.145889,-9.43184,-3.1015
85,1436289169108,0.127502,-9.4906,-3.11069
86,1436289169129,0.107468,-9.51375,-3.17813
87,1436289169148,0.102249,-9.51488,-3.1848
88,1436289169169,0.0763397,-9.52278,-3.16954
89,1436289169188,0.09552,-9.53032,-3.16832
90,1436289169208,0.11232,-9.5165,-3.15555
91,1436289169227,0.139496,-9.47684,-3.1778
92,1436289169248,0.113113,-9.46641,-3.19458
93,1436289169267,0.113342,-9.4881,-3.1322
94,1436289169286,0.11171,-9.49254,-3.1472
95,1436289169307,0.117279,-9.54451,-3.16945
96,1436289169326,0.122406,-9.51312,-3.2254
97,1436289169346,0.0967255,-9.46603,-3.24542
98,1436289169366,0.0944519,-9.48979,-3.15158
99,1436289169384,0.133453,-9.51497,-3.13596
100,1436289169405,0.137222,-9.50517,-3.17073
101,1436289169424,0.137375,-9.49727,-3.14177
102,1436289169445,0.135407,-9.46452,-3.18884
103,1436289169465,0.115601,-9.4834,-3.17383
104,1436289169483,0.106247,-9.51677,-3.15521
105,1436289169524,0.101685,-9.51376,-3.20326
106,1436289169544,0.0687256,-9.50366,-3.15674
107,1436289169562,0.0962219,-9.49837,-3.13539
108,1436289169583,0.118546,-9.47452,-3.13296
109,1436289169602,0.122513,-9.47728,-3.19254
110,1436289169622,0.142212,-9.49472,-3.14877
111,1436289169641,0.132248,-9.5481,-3.18799
112,1436289169662,0.131424,-9.49667,-3.19998
113,1436289169682,0.13681,-9.45883,-3.17177
114,1436289169701,0.145294,-9.46637,-3.1433
115,1436289169721,0.124939,-9.47122,-3.22084
116,1436289169741,0.137421,-9.51982,-3.23416
117,1436289169760,0.121429,-9.54457,-3.2627
118,1436289169779,0.114639,-9.55543,-3.1985
119,1436289169800,0.0770416,-9.50619,-3.18805
120,1436289169819,0.107956,-9.47685,-3.18358
121,1436289169840,0.102524,-9.45825,-3.18053
122,1436289169859,0.113739,-9.50278,-3.19556
123,1436289169877,0.111938,-9.56015,-3.17918
124,1436289169899,0.0979919,-9.51977,-3.2345
125,1436289169918,0.115692,-9.47722,-3.19028
126,1436289169938,0.133469,-9.48314,-3.17053
127,1436289169958,0.112106,-9.50842,-3.21194
128,1436289169978,0.108704,-9.50145,-3.17839
129,1436289169997,0.106171,-9.54579,-3.22205
130,1436289170017,0.0830536,-9.4599,-3.15941
131,1436289170037,0.0825195,-9.48207,-3.16652
132,1436289170055,0.111313,-9.51961,-3.17659
133,1436289170076,0.103348,-9.50838,-3.22202
134,1436289170095,0.123566,-9.49306,-3.18594
135,1436289170116,0.126785,-9.52933,-3.16197
136,1436289170135,0.128479,-9.51265,-3.15124
137,1436289170155,0.106293,-9.51462,-3.16145
138,1436289170175,0.113342,-9.502,-3.19579
139,1436289170195,0.138275,-9.50534,-3.13728
140,1436289170214,0.135849,-9.52049,-3.18864
141,1436289170234,0.11377,-9.51743,-3.20808
142,1436289170253,0.0962982,-9.51593,-3.16353
143,1436289170273,0.0969086,-9.53723,-3.17656
144,1436289170293,0.104874,-9.5042,-3.16266
145,1436289170313,0.131653,-9.49283,-3.11194
146,1436289170333,0.144257,-9.49422,-3.11026
147,1436289170352,0.137711,-9.46838,-3.14902
148,1436289170370,0.130783,-9.50619,-3.15384
149,1436289170392,0.127243,-9.49808,-3.15341
150,1436289170409,0.11647,-9.49817,-3.12135
151,1436289170431,0.128464,-9.51343,-3.09187
152,1436289170451,0.134705,-9.49359,-3.10184
153,1436289170490,0.113464,-9.52548,-3.10884
154,1436289170510,0.0877991,-9.483,-3.14055
155,1436289170529,0.0684357,-9.48471,-3.09357
156,1436289170548,0.0741119,-9.50909,-3.13234
157,1436289170569,0.0955658,-9.49516,-3.10381
158,1436289170588,0.094574,-9.49007,-3.08887
159,1436289170609,0.114182,-9.48451,-3.11472
160,1436289170629,0.124939,-9.44977,-3.09041
161,1436289170647,0.121979,-9.45676,-3.10811
162,1436289170668,0.128937,-9.4344,-3.19705
163,1436289170687,0.10968,-9.43446,-3.18378
164,1436289170708,0.0722046,-9.4256,-3.12675
165,1436289170727,0.0857086,-9.40457,-3.07658
166,1436289170747,0.102646,-9.44896,-3.12942
167,1436289170766,0.108368,-9.52014,-3.17049
168,1436289170786,0.133636,-9.58444,-3.20947
169,1436289170806,0.0952454,-9.54449,-3.21057
170,1436289170825,0.105515,-9.47447,-3.10454
171,1436289170845,0.114227,-9.52225,-3.08987
172,1436289170863,0.147064,-9.47466,-3.15411
173,1436289170885,0.139023,-9.4518,-3.16342
174,1436289170904,0.140778,-9.4968,-3.22159
175,1436289170925,0.117218,-9.49468,-3.18333
176,1436289170944,0.0967255,-9.54179,-3.19719
177,1436289170964,0.126831,-9.49841,-3.17162
178,1436289170985,0.13884,-9.48228,-3.18341
179,1436289171004,0.116531,-9.53064,-3.21396
180,1436289171023,0.141113,-9.53484,-3.1893
181,1436289171041,0.147308,-9.54834,-3.20834
182,1436289171063,0.121277,-9.49908,-3.20038
183,1436289171081,0.131622,-9.43709,-3.23137
184,1436289171102,0.132477,-9.45381,-3.23717
185,1436289171122,0.133118,-9.44414,-3.26802
186,1436289171141,0.148422,-9.52641,-3.28018
187,1436289171161,0.126968,-9.53162,-3.30664
188,1436289171180,0.129715,-9.45801,-3.242
189,1436289171201,0.133133,-9.41888,-3.21626
190,1436289171220,0.143356,-9.46278,-3.24963
191,1436289171240,0.130508,-9.52103,-3.27376
192,1436289171260,0.130157,-9.48766,-3.30688
193,1436289171279,0.113327,-9.50266,-3.25841
194,1436289171299,0.0853577,-9.48692,-3.25446
195,1436289171319,0.136734,-9.50641,-3.26862
196,1436289171339,0.111801,-9.4901,-3.21954
197,1436289171358,0.137146,-9.44537,-3.27675
198,1436289171378,0.122955,-9.47772,-3.26224
199,1436289171417,0.119064,-9.48309,-3.28894
200,1436289171418,0.0947266,-9.46001,-3.26764
201,1436289171457,0.12677,-9.45067,-3.27684
202,1436289171477,0.143112,-9.453,-3.23857
203,1436289171496,0.139175,-9.50697,-3.28926
204,1436289171516,0.13031,-9.44099,-3.29211
205,1436289171536,0.161621,-9.47038,-3.31751
206,1436289171556,0.179977,-9.48773,-3.31563
207,1436289171575,0.162842,-9.49629,-3.31137
208,1436289171595,0.137848,-9.4612,-3.29616
209,1436289171615,0.143478,-9.44836,-3.23967
210,1436289171634,0.124557,-9.4658,-3.27045
211,1436289171654,0.14035,-9.40736,-3.32295
212,1436289171673,0.103867,-9.44067,-3.29045
213,1436289171694,0.134903,-9.47662,-3.26561
214,1436289171713,0.128204,-9.4959,-3.27126
215,1436289171734,0.129684,-9.45683,-3.29031
216,1436289171753,0.13472,-9.41695,-3.24252
217,1436289171773,0.120163,-9.4503,-3.2765
218,1436289171793,0.0919495,-9.49022,-3.31302
219,1436289171812,0.103241,-9.51414,-3.33044
220,1436289171831,0.0769196,-9.452,-3.27985
221,1436289171850,0.121841,-9.41296,-3.32811
222,1436289171872,0.134064,-9.42831,-3.30008
223,1436289171891,0.147278,-9.44211,-3.3363
224,1436289171911,0.138535,-9.50185,-3.3261
225,1436289171931,0.155197,-9.47279,-3.24892
226,1436289171950,0.146317,-9.4332,-3.28355
227,1436289171970,0.128571,-9.4212,-3.2094
228,1436289171990,0.14502,-9.45389,-3.21437
229,1436289172010,0.123962,-9.48418,-3.31029
230,1436289172029,0.140961,-9.50337,-3.3038
231,1436289172049,0.145645,-9.48244,-3.32109
232,1436289172068,0.127335,-9.43402,-3.2307
233,1436289172089,0.127625,-9.41629,-3.19002
234,1436289172108,0.14212,-9.4019,-3.21564
235,1436289172128,0.152039,-9.41644,-3.31078
236,1436289172147,0.135864,-9.46748,-3.33089
237,1436289172166,0.125946,-9.47835,-3.33974
238,1436289172187,0.141342,-9.50223,-3.26315
239,1436289172206,0.148285,-9.50877,-3.22392
240,1436289172227,0.175507,-9.44504,-3.18848
241,1436289172246,0.187958,-9.40562,-3.23132
242,1436289172266,0.172867,-9.46269,-3.26784
243,1436289172286,0.183716,-9.52046,-3.22627
244,1436289172306,0.171432,-9.48692,-3.25764
245,1436289172325,0.151688,-9.42851,-3.23183
246,1436289172343,0.110886,-9.41318,-3.20105
247,1436289172365,0.117477,-9.51405,-3.24611
248,1436289172404,0.134445,-9.5211,-3.26172
249,1436289172424,0.165802,-9.48671,-3.25499
250,1436289172444,0.142166,-9.50108,-3.21562
251,1436289172464,0.141602,-9.50317,-3.27147
252,1436289172483,0.138718,-9.51555,-3.17604
253,1436289172502,0.131134,-9.47885,-3.26704
254,1436289172523,0.101868,-9.50917,-3.258
255,1436289172542,0.12941,-9.52757,-3.21374
256,1436289172561,0.12291,-9.50121,-3.20917
257,1436289172582,0.121887,-9.49364,-3.19113
258,1436289172602,0.129883,-9.44119,-3.19951
259,1436289172621,0.14975,-9.46761,-3.22231
260,1436289172640,0.165436,-9.49381,-3.19652
261,1436289172659,0.133957,-9.4753,-3.22638
262,1436289172680,0.121414,-9.49643,-3.21593
263,1436289172700,0.167572,-9.50073,-3.21982
264,1436289172720,0.154495,-9.50218,-3.18678
265,1436289172740,0.171921,-9.49577,-3.16249
266,1436289172760,0.1586,-9.50415,-3.19064
267,1436289172779,0.146042,-9.50354,-3.15585
268,1436289172799,0.14563,-9.46219,-3.17729
269,1436289172819,0.11232,-9.49475,-3.11375
270,1436289172837,0.127243,-9.48505,-3.11482
271,1436289172858,0.19487,-9.46074,-3.11127
272,1436289172877,0.196396,-9.49918,-3.14113
273,1436289172898,0.19429,-9.52152,-3.13029
274,1436289172917,0.149048,-9.51665,-3.19994
275,1436289172937,0.147232,-9.51294,-3.15067
276,1436289172957,0.138901,-9.48402,-3.10896
277,1436289172976,0.122406,-9.46893,-3.15099
278,1436289172996,0.115204,-9.54695,-3.21791
279,1436289173016,0.113693,-9.56947,-3.17465
280,1436289173036,0.0905609,-9.54771,-3.13768
281,1436289173055,0.104706,-9.49445,-3.13364
282,1436289173075,0.123215,-9.3598,-3.01299
283,1436289173095,0.11911,-9.48224,-3.08092
284,1436289173115,0.117386,-9.50386,-3.14386
285,1436289173134,0.135803,-9.5502,-3.18375
286,1436289173152,0.132339,-9.53957,-3.15395
287,1436289173173,0.0889893,-9.48065,-3.01839
288,1436289173193,0.100555,-9.46783,-3.04552
289,1436289173213,0.0742035,-9.43468,-3.05859
290,1436289173233,0.0998077,-9.47771,-3.11528
291,1436289173253,0.146027,-9.51907,-3.19368
292,1436289173272,0.124878,-9.45442,-3.13664
293,1436289173292,0.0960083,-9.41963,-3.06606
294,1436289173312,0.103973,-9.41431,-3.06451
295,1436289173330,0.0986481,-9.4259,-3.11024
296,1436289173351,0.0908203,-9.46303,-3.19098
297,1436289173391,0.116882,-9.50261,-3.18054
298,1436289173410,0.0815735,-9.49884,-3.08005
299,1436289173430,0.114807,-9.51523,-3.12547
300,1436289173450,0.0865021,-9.53706,-3.118
301,1436289173469,0.0905762,-9.52025,-3.08728
302,1436289173490,0.1035,-9.54659,-3.16586
303,1436289173509,0.109985,-9.54764,-3.10159
304,1436289173529,0.105713,-9.50453,-3.10004
305,1436289173549,0.127426,-9.48073,-3.09595
306,1436289173568,0.115753,-9.48537,-3.10312
307,1436289173588,0.121078,-9.47833,-3.15425
308,1436289173608,0.108765,-9.50711,-3.16632
309,1436289173628,0.0832672,-9.5583,-3.18082
310,1436289173646,0.0814972,-9.55444,-3.13489
311,1436289173667,0.0598145,-9.51604,-3.11266
312,1436289173686,0.112045,-9.49693,-3.11046
313,1436289173706,0.110626,-9.49942,-3.0899
314,1436289173726,0.0771179,-9.51462,-3.13913
315,1436289173746,0.126236,-9.52486,-3.14841
316,1436289173766,0.106934,-9.52623,-3.15857
317,1436289173786,0.106445,-9.51492,-3.15031
318,1436289173805,0.103943,-9.50121,-3.14092
319,1436289173825,0.0745392,-9.49152,-3.18071
320,1436289173844,0.115219,-9.47429,-3.18207
321,1436289173863,0.133606,-9.49091,-3.18877
322,1436289173884,0.116364,-9.52563,-3.20103
323,1436289173904,0.113647,-9.54535,-3.17004
324,1436289173924,0.132385,-9.48921,-3.17172
325,1436289173943,0.107285,-9.44977,-3.16956
326,1436289173962,0.123901,-9.45882,-3.25021
327,1436289173983,0.123032,-9.48312,-3.31621
328,1436289174003,0.0942841,-9.57611,-3.28255
329,1436289174022,0.0835876,-9.58969,-3.21828
330,1436289174042,0.0846863,-9.51279,-3.21043
331,1436289174062,0.0802002,-9.48367,-3.14661
332,1436289174081,0.10379,-9.49474,-3.2086
333,1436289174101,0.129303,-9.48772,-3.24721
334,1436289174121,0.117477,-9.49019,-3.27458
335,1436289174139,0.0961151,-9.494,-3.26669
336,1436289174160,0.07724,-9.47571,-3.25688
337,1436289174179,0.0713501,-9.46982,-3.3121
338,1436289174200,0.0482178,-9.41544,-3.28633
339,1436289174220,0.0420837,-9.48589,-3.2682
340,1436289174239,0.0318146,-9.50272,-3.22179
341,1436289174259,-0.0092926,-9.53174,-3.23895
342,1436289174279,0.00996399,-9.4986,-3.19131
343,1436289174298,0.0465393,-9.46303,-3.21971
344,1436289174318,0.0655365,-9.48416,-3.22906
345,1436289174357,0.0506287,-9.47673,-3.2205
346,1436289174377,0.0564575,-9.47028,-3.26024
347,1436289174397,0.0454102,-9.45137,-3.23456
348,1436289174417,0.0570984,-9.41104,-3.24841
349,1436289174436,0.0697632,-9.41026,-3.25708
350,1436289174455,0.0903473,-9.3943,-3.29428
351,1436289174476,0.104507,-9.47681,-3.35796
352,1436289174495,0.0902252,-9.48489,-3.31374
353,1436289174515,0.0513153,-9.47978,-3.30177
354,1436289174535,0.0886841,-9.53032,-3.27419
355,1436289174555,0.0935364,-9.48361,-3.28357
356,1436289174575,0.0827179,-9.43491,-3.2688
357,1436289174594,0.0845184,-9.48294,-3.29306
358,1436289174614,0.080658,-9.5318,-3.29573
359,1436289174633,0.0713196,-9.48438,-3.26276
360,1436289174654,0.0591125,-9.42682,-3.23253
361,1436289174672,0.0418549,-9.37775,-3.20424
362,1436289174693,0.0738983,-9.4221,-3.28958
363,1436289174713,0.0542145,-9.5034,-3.33066
364,1436289174894,0.0518646,-9.45027,-3.34129
365,1436289174895,0.039978,-9.4527,-3.22656
366,1436289174896,0.0523071,-9.54411,-3.21118
367,1436289174897,0.0639648,-9.6129,-3.2849
368,1436289174898,0.0281677,-9.52683,-3.30066
369,1436289174899,-0.0389404,-9.40251,-3.2598
370,1436289174900,-0.108887,-9.34328,-3.1147
371,1436289174901,-0.122177,-9.30415,-3.04024
372,1436289174902,-0.1091,-9.23483,-3.00754
373,1436289174910,-0.101685,-9.20422,-3.05922
374,1436289174929,-0.102692,-9.35475,-3.27914
375,1436289174948,-0.0930634,-9.46606,-3.58394
376,1436289174969,-0.125107,-9.70778,-3.61568
377,1436289174988,-0.19281,-10.1444,-3.50864
378,1436289175009,-0.307632,-10.1857,-3.01227
379,1436289175028,-0.430481,-9.80808,-2.41692
380,1436289175048,-0.207062,-9.81996,-2.54872
381,1436289175068,-0.560455,-10.4648,-2.94197
382,1436289175088,-0.879868,-10.7364,-3.04021
383,1436289175106,-0.882462,-10.4025,-3.12398
384,1436289175126,-1.24768,-10.0796,-3.31699
385,1436289175145,-3.11028,-9.93036,-4.11073
386,1436289175166,-11.2384,-8.85368,-6.59706
387,1436289175185,3.72514,-9.36497,0.59024
388,1436289175206,5.86215,-8.75623,0.492676
389,1436289175225,1.53719,-6.88971,-0.76474
390,1436289175246,-5.82239,-8.0081,-0.786148
391,1436289175265,-4.36057,-7.81593,-1.79634
392,1436289175285,-2.68927,-8.05339,-0.899353
393,1436289175324,-1.66747,-8.51502,-0.858215
394,1436289175343,-1.18378,-9.01823,-0.908066
395,1436289175364,-2.42397,-8.26506,-1.17212
396,1436289175384,-3.57437,-8.05054,-1.57086
397,1436289175403,-3.46521,-8.00381,-1.68291
398,1436289175423,-2.8587,-7.76541,-1.54942
399,1436289175441,-3.28377,-7.54189,-1.64807
400,1436289175462,-3.78854,-7.46138,-2.16801
401,1436289175481,-3.51108,-7.83122,-2.59581
402,1436289175502,-3.42487,-8.11266,-3.16798
403,1436289175521,-3.34552,-8.0669,-3.45734
404,1436289175541,-3.13023,-7.29732,-3.43214
405,1436289175561,-3.04388,-6.56369,-3.75623
406,1436289175581,-3.45757,-7.14835,-4.18793
407,1436289175601,-4.36482,-8.6223,-4.49033
408,1436289175618,-5.03702,-9.71164,-4.19685
409,1436289175639,-5.4061,-10.6568,-3.63354
410,1436289175659,-5.80955,-11.7499,-3.2126
411,1436289175680,-6.41588,-12.2105,-2.74368
412,1436289175699,-6.79817,-11.9541,-2.53311
413,1436289175719,-6.63809,-12.2431,-2.7877
414,1436289175739,-5.93072,-12.5013,-3.23932
415,1436289175758,-5.23631,-12.0394,-3.8139
416,1436289175778,-4.53134,-11.6733,-4.51991
417,1436289175798,-3.93118,-12.0057,-4.82623
418,1436289175818,-3.20264,-11.8276,-4.43451
419,1436289175838,-2.50676,-10.9418,-3.68149
420,1436289175857,-1.98235,-10.1157,-3.03088
421,1436289175877,-1.42986,-9.4212,-2.58632
422,1436289175897,-0.884857,-9.12421,-2.41904
423,1436289175916,-0.502014,-9.04903,-2.26295
424,1436289175934,-0.323547,-9.31331,-1.8427
425,1436289175955,-0.423523,-9.38902,-1.68802
426,1436289175974,-0.794174,-9.13322,-2.03537
427,1436289175995,-1.25215,-9.19424,-2.149
428,1436289176015,-1.64919,-9.74046,-2.05995
429,1436289176035,-2.37102,-11.3478,-2.81198
430,1436289176054,-3.87823,-16.7178,-5.08331
431,1436289176074,-7.70137,-19.9123,-6.36554
432,1436289176094,-12.3174,-19.9123,-6.34003
433,1436289176112,-14.7587,-19.9123,-5.30334
434,1436289176133,-11.4161,-19.9123,-4.11272
435,1436289176152,-6.1523,-14.1599,-1.46828
436,1436289176173,-3.34743,-6.36136,0.225128
437,1436289176192,-1.192,-3.16997,0.0166779
438,1436289176212,0.205231,-4.18723,0.209656
439,1436289176232,-0.361084,-2.19357,1.69566
440,1436289176251,-0.621353,2.44589,2.30293
441,1436289176291,-0.0652008,5.1171,2.65352
442,1436289176311,-1.19971,5.81638,3.44949
443,1436289176331,-3.87985,6.17999,2.45258
444,1436289176350,-5.63158,6.28706,1.44368
445,1436289176370,-5.99178,6.40385,1.33769
446,1436289176390,-6.64975,6.4205,0.773193
447,1436289176410,-8.59378,4.67584,-0.946686
