id,attr_time,attr_x,attr_y,attr_z
1,1438190587004,-1.1366472,10.057443,0.76195467
2,1438190587022,-1.1300632,10.08737,0.75956047
3,1438190587040,-1.1444284,10.103531,0.75596917
4,1438190587059,-1.1623849,10.12448,0.78170687
5,1438190587078,-1.1492168,10.08318,0.7781156
6,1438190587099,-1.1468226,10.10413,0.74639237
7,1438190587118,-1.1450269,10.0825815,0.75357497
8,1438190587137,-1.1659763,10.070611,0.7787141
9,1438190587157,-1.1719618,10.074203,0.7553706
10,1438190587200,-1.1617863,10.081984,0.7505822
11,1438190587201,-1.1665748,10.080188,0.74998367
12,1438190587216,-1.1438298,10.070611,0.7625532
13,1438190587238,-1.1336545,10.061633,0.7649474
14,1438190587258,-1.1408371,10.0748005,0.7625532
15,1438190587276,-1.1186907,10.081984,0.7679402
16,1438190587299,-1.1468226,10.068216,0.7541735
17,1438190587318,-1.1498153,10.081385,0.7613561
18,1438190587338,-1.1522095,10.096349,0.7469909
19,1438190587360,-1.1336545,10.088568,0.74758947
20,1438190587380,-1.1139023,10.077793,0.7691373
21,1438190587396,-1.0875661,10.077793,0.7685388
22,1438190587420,-1.1599907,10.099341,0.75237787
23,1438190587438,-1.1749545,10.111312,0.7200562
24,1438190587460,-1.0618285,10.135853,0.7469909
25,1438190587480,-0.97982705,10.151415,0.7661445
26,1438190587500,-1.0163386,10.250774,0.7529764
27,1438190587520,-1.0785879,10.205285,0.7673417
28,1438190587539,-0.9379285,10.144233,0.82719666
29,1438190587559,-0.86849666,10.00477,0.79966336
30,1438190587579,-0.770933,9.934141,0.8523358
31,1438190587599,-0.74878657,9.872491,0.83976626
32,1438190587620,-0.7930793,9.904813,0.8218097
33,1438190587639,-0.9056068,9.985018,0.7266402
34,1438190587659,-1.0097545,10.074203,0.670975
35,1438190587681,-0.9888053,10.146626,0.7116765
36,1438190587701,-0.9391256,10.129269,0.75357497
37,1438190587721,-0.90141696,9.9928,0.78529817
38,1438190587740,-0.82240826,9.955689,0.789488
39,1438190587759,-0.7846996,9.997588,0.6865373
40,1438190587779,-0.6865373,9.969456,0.6015432
41,1438190587799,-0.7110779,9.939528,0.6206968
42,1438190587818,-0.6961141,9.861717,0.7044938
43,1438190587839,-0.670975,9.81084,0.6655881
44,1438190587905,-0.6452374,9.804854,0.57640404
45,1438190587906,-0.4782418,9.910199,0.4961983
46,1438190587907,-0.24839842,10.000581,0.4878186
47,1438190587917,-0.18016368,9.771336,0.6452374
48,1438190587943,-0.22266077,9.645041,0.741604
49,1438190587960,0.059855044,9.719262,0.8355764
50,1438190588027,0.47285482,9.612122,1.1617863
51,1438190588028,0.87807345,9.437943,1.4341269
52,1438190588029,1.0636241,9.314642,1.6376339
53,1438190588052,1.1935096,9.34397,1.5526398
54,1438190588059,1.6244658,9.427768,1.5460558
55,1438190588080,1.95307,9.459491,1.5233108
56,1438190588097,2.1122844,9.362526,1.4622587
57,1438190588121,2.3403323,9.387665,1.4676456
58,1438190588141,2.5582044,9.416395,1.5903485
59,1438190588161,2.8461072,9.324817,2.010531
60,1438190588181,2.8772318,9.059061,2.203264
61,1438190588201,2.6874914,8.970475,2.3505075
62,1438190588221,2.4277205,9.039907,2.2535424
63,1438190588241,2.3678656,9.267356,2.291251
64,1438190588262,2.2559366,9.534309,2.220622
65,1438190588278,2.135628,9.503783,2.2499511
66,1438190588301,2.0362685,8.9363575,2.3463178
67,1438190588320,2.2894554,8.64666,2.4797945
68,1438190588339,2.6144683,8.593389,2.4911668
69,1438190588359,2.8622682,8.646061,2.4558525
70,1438190588380,3.0532057,8.764574,2.60549
71,1438190588400,3.1830912,8.86513,2.693477
72,1438190588420,3.4739866,9.252991,2.9789855
73,1438190588440,3.7600937,9.657013,3.2202013
74,1438190588459,3.9073372,9.930551,3.3530796
75,1438190588479,3.6577415,9.885659,3.3943794
76,1438190588499,3.3758245,9.597756,3.691859
77,1438190588519,3.2782607,9.3182335,3.731962
78,1438190588540,3.4913447,9.273342,3.6134489
79,1438190588605,3.8361096,9.476849,3.6655228
80,1438190588606,4.0898952,9.547478,3.815759
81,1438190588607,4.2862196,9.546879,3.8786068
82,1438190588618,4.1012673,9.157223,3.952827
83,1438190588643,3.9558198,8.795698,3.9055414
84,1438190588659,4.0396166,8.644864,3.6092591
85,1438190588687,4.091092,8.741829,3.54282
86,1438190588698,3.9234982,8.773552,3.8145618
87,1438190588719,3.965995,8.720282,4.063559
88,1438190588745,4.18686,8.695142,4.1198225
89,1438190588759,4.396353,8.664616,4.107253
90,1438190588780,4.570531,8.5143795,4.235343
91,1438190588798,4.6244006,8.415619,4.3035774
92,1438190588820,4.4759603,8.510789,4.1096473
93,1438190588842,4.23235,8.575432,3.8720226
94,1438190588861,3.7343562,8.215703,3.8947675
95,1438190588881,3.5003228,7.93618,3.810372
96,1438190588903,3.4680011,7.7410526,3.8420951
97,1438190588918,3.41892,7.607576,3.787627
98,1438190588942,3.317765,7.398083,3.6649241
99,1438190588961,3.1040826,7.3938932,3.2836475
100,1438190588979,2.754529,7.5495167,2.7688942
101,1438190588999,2.8179753,7.7506294,2.641403
102,1438190589021,3.494936,7.835025,3.127426
103,1438190589039,3.8905778,7.700351,3.3782187
104,1438190589062,4.0066967,7.73387,3.244742
105,1438190589080,4.060566,8.086416,3.2070332
106,1438190589100,3.9749734,8.109161,3.1597476
107,1438190589120,4.2760444,7.826047,3.3961751
108,1438190589141,5.1529207,7.436989,3.4021606
109,1438190589161,6.163274,7.5046253,3.0753522
110,1438190589179,7.2107368,7.6889787,3.4632127
111,1438190589199,7.495647,7.499837,4.3520603
112,1438190589226,6.8318543,8.982447,5.2157683
113,1438190589247,5.98311,10.113108,4.4286747
114,1438190589305,5.33488,9.481039,3.233968
115,1438190589306,4.2503066,9.044696,2.777274
116,1438190589307,2.6372132,9.640253,3.0651767
117,1438190589339,1.8489223,10.612898,3.9199066
118,1438190589340,3.0843303,11.556811,4.7764325
119,1438190589359,5.246893,11.073183,6.294955
120,1438190589380,6.801927,10.1939125,6.542156
121,1438190589399,7.405266,9.422979,5.1116204
122,1438190589420,6.6882024,9.058462,4.696825
123,1438190589439,4.9158945,8.978855,4.092888
124,1438190589460,4.583699,8.767567,3.2315738
125,1438190589486,5.5138464,8.464102,3.4901476
126,1438190589502,5.159505,7.533954,4.11683
127,1438190589530,2.8137856,7.6225395,2.9047651
128,1438190589539,2.303222,8.485649,2.1757307
129,1438190589559,3.739743,8.256405,3.903746
130,1438190589579,4.525041,8.800487,5.723339
131,1438190589603,4.6178164,9.28232,6.367978
132,1438190589622,4.3358994,9.317635,5.8945246
133,1438190589642,3.819949,7.690176,4.3646297
134,1438190589663,4.83509,6.2123547,3.271078
135,1438190589682,6.5259953,6.214749,4.2221746
136,1438190589703,6.7642183,7.0395517,6.5828576
137,1438190589719,5.273229,7.04015,5.4623713
138,1438190589743,4.5675383,6.121375,5.133767
139,1438190589762,4.747702,5.6281695,6.2368956
140,1438190589782,3.7666779,5.0864816,6.688801
141,1438190589803,1.8142064,5.453393,4.345476
142,1438190589823,0.7781156,6.5655,4.378995
143,1438190589843,0.1328782,6.282984,5.233725
144,1438190589862,-0.866701,6.63134,6.645705
145,1438190589882,-2.6001031,9.288904,6.193201
146,1438190589902,-5.6820393,12.065579,4.584896
147,1438190589923,-8.361151,11.423335,4.059369
148,1438190589944,-8.111555,9.818622,4.853047
149,1438190589962,-6.9796963,8.441357,4.414908
150,1438190590102,-6.688801,7.2310877,3.8001966
151,1438190590103,-7.2233067,7.483676,3.819949
152,1438190590104,-7.5722613,7.9673047,3.804985
153,1438190590105,-7.1023993,7.587225,3.527856
154,1438190590106,-5.976526,7.377134,3.4566288
155,1438190590107,-5.0900726,7.510012,3.3794158
156,1438190590108,-4.832696,7.033566,3.306991
157,1438190590120,-4.841076,6.7330937,3.1585505
158,1438190590140,-5.144541,7.0850415,3.09271
159,1438190590159,-5.759252,7.0850415,3.1250317
160,1438190590180,-6.072294,6.7690067,3.0891187
161,1438190590201,-6.487688,6.8827314,2.9813797
162,1438190590221,-6.8988924,7.047931,3.0400376
163,1438190590241,-6.8204823,6.579266,3.2255883
164,1438190590260,-6.2327056,6.0483522,3.6553473
165,1438190590281,-5.257667,5.895722,4.257489
166,1438190590301,-4.912902,5.439626,4.607641
167,1438190590321,-4.402937,5.0876784,5.131373
168,1438190590354,-4.4358573,5.2265425,5.059547
169,1438190590360,-4.7417164,5.237316,5.482722
170,1438190590382,-4.000711,5.5126495,5.846042
171,1438190590401,-3.0951042,5.9184666,6.4284315
172,1438190590419,-2.1146786,6.1584854,7.0365586
173,1438190590440,-1.3826514,6.319495,7.2490444
174,1438190590469,-1.845331,6.31351,7.7745714
175,1438190590480,-2.2278047,5.9998693,8.708909
176,1438190590500,-2.3612814,6.253655,8.751406
177,1438190590540,-3.1950622,7.061698,7.7614036
178,1438190590541,-4.3023806,6.5241995,6.1782374
179,1438190590560,-4.1802764,5.704784,5.053561
180,1438190590580,-3.2650926,5.5760956,5.1678843
181,1438190590607,-1.9416976,5.828684,6.214749
182,1438190590623,-0.6889315,7.1107793,8.719084
183,1438190590644,-0.05626374,9.25359,10.833164
184,1438190590663,-0.6278794,10.986992,10.736199
185,1438190590681,-2.1853075,9.882666,8.903438
186,1438190590702,-2.8101943,6.96174,5.6179943
187,1438190590721,-2.791639,5.409699,2.5731683
188,1438190590785,-1.3449428,4.931457,1.9195513
189,1438190590786,1.7615339,4.9398365,2.9203274
190,1438190590787,3.957017,6.1979895,3.639785
191,1438190590808,5.6940103,8.468291,3.8815994
192,1438190590820,6.7504516,9.510367,5.9346275
193,1438190590841,6.506243,8.883087,7.259818
194,1438190590861,5.6161985,9.032724,6.75524
195,1438190590896,4.927267,10.201694,6.003461
196,1438190590912,4.410718,10.283096,6.6415157
197,1438190590920,4.5447936,8.702325,8.191761
198,1438190590940,5.118803,8.508394,8.645462
199,1438190590959,5.367202,8.975264,7.78355
200,1438190590979,5.2726307,9.7958765,7.3711486
201,1438190591000,4.618415,9.663596,7.2939353
202,1438190591019,4.3155484,9.335591,7.5806413
203,1438190591040,4.0779243,9.276335,7.4627266
204,1438190591060,3.3435028,8.838196,7.0545154
205,1438190591080,2.6910827,8.116942,6.9198413
206,1438190591100,2.2547395,7.69257,6.6624646
207,1438190591120,2.166154,7.117363,5.819706
208,1438190591140,2.404377,6.3512187,4.9823337
209,1438190591161,2.8939912,5.7083755,5.0140567
210,1438190591184,3.5966895,5.257068,5.4713492
211,1438190591203,2.9789855,4.6561236,5.595848
212,1438190591224,1.1947067,3.614646,4.4035354
213,1438190591244,0.8343793,4.72376,1.0708067
214,1438190591263,2.2601264,6.039374,0.16639702
215,1438190591283,3.1950622,5.6778493,3.4811692
216,1438190591302,4.086902,6.9479733,8.703522
217,1438190591323,4.7004166,8.9040365,12.548011
218,1438190591343,4.050989,7.797915,4.024653
219,1438190591364,5.905897,6.197391,-1.2282255
220,1438190591383,9.782708,4.7524905,0.4842273
221,1438190591400,12.77965,6.2530565,4.4298716
222,1438190591423,12.951434,9.755774,6.303933
223,1438190591455,10.678739,10.280104,5.5629277
224,1438190591468,9.011177,7.809886,3.8612487
225,1438190591481,6.521207,6.70975,3.2106245
226,1438190591501,3.7391446,6.8528037,2.544438
227,1438190591521,2.12246,7.8972745,2.135628
228,1438190591540,2.1440077,8.359954,2.7563248
229,1438190591560,3.0400376,7.756615,3.8642416
230,1438190591580,4.1024647,7.5465236,4.8320975
231,1438190591601,5.2462945,7.933786,4.478953
232,1438190591624,5.921459,8.401853,3.913921
233,1438190591644,5.843648,7.767389,5.081693
234,1438190591663,5.4863133,7.347805,5.710171
235,1438190591685,4.483143,7.074866,6.3907228
236,1438190591705,3.477578,7.7823524,5.5258174
237,1438190591725,2.6491842,9.138668,4.6920366
238,1438190591743,2.083554,9.348759,4.7429137
239,1438190591764,1.7154455,8.5299425,5.498883
240,1438190591785,1.1258733,8.22109,5.5647235
241,1438190591802,0.32920274,8.115746,6.1465144
242,1438190591825,0.004189853,7.597999,6.0202203
243,1438190591843,-0.031124622,7.2747817,5.125387
244,1438190591864,0.3681085,8.3312235,5.2343235
245,1438190591885,0.92057055,9.148843,6.2662244
246,1438190591904,0.74758947,8.230667,7.347805
247,1438190591924,-0.08619126,7.745841,7.243657
248,1438190591945,-0.4818331,7.611766,6.347627
249,1438190591963,-0.9564836,7.900267,5.3139305
250,1438190591984,-1.8806454,8.483853,4.5543704
251,1438190592005,-2.7856536,8.402451,4.8584337
252,1438190592023,-3.25791,7.9032598,5.8562174
253,1438190592045,-3.5404258,7.620744,6.0064535
254,1438190592131,-3.6601357,7.8637557,5.5521536
255,1438190592132,-3.6020765,8.72088,5.2780175
256,1438190592133,-3.0544028,8.8884735,5.5766945
257,1438190592134,-2.6629508,8.97646,5.6790466
258,1438190592144,-2.3948002,8.950723,5.6640825
259,1438190592161,-2.0159178,8.945336,5.705383
260,1438190592181,-1.6585833,8.805874,6.0405707
261,1438190592201,-1.4137762,8.306683,6.3129115
262,1438190592221,-1.252766,7.7865424,6.475717
263,1438190592242,-0.9552865,7.6321163,6.4721255
264,1438190592261,-0.54288524,7.7332716,6.4230447
265,1438190592284,-0.14724341,7.6973586,6.8222775
266,1438190592306,0.14784196,7.5201874,7.2993226
267,1438190592322,0.25079262,7.409456,7.3765354
268,1438190592343,0.42676646,7.050924,7.465719
269,1438190592364,0.91697925,6.767211,7.533954
270,1438190592385,1.1240777,6.603807,7.5764513
271,1438190592404,0.9367314,6.5122285,7.645883
272,1438190592427,0.46567222,6.393716,7.755418
273,1438190592443,-0.054468088,6.0357823,7.3448124
274,1438190592464,-0.676362,6.1955953,7.2753806
275,1438190592485,-0.9379285,6.5230026,6.8127007
276,1438190592505,-1.2802993,6.518214,6.571485
277,1438190592525,-1.7016789,6.697779,6.389526
278,1438190592544,-2.1613655,6.917447,6.2362967
279,1438190592565,-2.4289176,6.2865753,6.1207767
280,1438190592585,-2.4366987,5.6551046,6.4206505
281,1438190592603,-2.4157495,5.556942,6.615179
282,1438190592624,-2.7748797,6.027403,6.499659
283,1438190592644,-3.5470097,6.4751186,6.1806316
284,1438190592664,-4.4274774,6.6959834,5.9304376
285,1438190592684,-5.121796,6.857592,5.977723
286,1438190592705,-5.2397103,6.553529,5.9986725
287,1438190592725,-4.9996915,6.546346,5.7843914
288,1438190592743,-4.7668557,6.7211227,5.3941364
289,1438190592764,-4.581305,6.2207346,5.227141
290,1438190592784,-4.402937,5.916671,4.425682
291,1438190592808,-4.943428,6.1129956,4.1371803
292,1438190592876,-5.4737434,5.8382607,4.496909
293,1438190592877,-5.7562594,5.756858,4.0958805
294,1438190592878,-6.0920463,6.3847375,3.8474822
295,1438190592886,-6.277597,6.407482,3.7463272
296,1438190592905,-6.1507044,6.63134,3.50152
297,1438190592925,-5.976526,6.5828576,3.7750576
298,1438190592942,-6.0866594,6.591836,3.8145618
299,1438190592969,-6.612785,7.101202,3.2836475
300,1438190592983,-7.744644,7.9912467,2.7090392
301,1438190593005,-8.958505,7.5680714,2.2218192
302,1438190593024,-9.715072,8.385692,1.726818
303,1438190593044,-10.14543,8.4647,1.2150574
304,1438190593065,-9.214684,8.368932,1.1713632
305,1438190593083,-7.9451585,8.367735,1.3467385
306,1438190593104,-7.204153,6.721721,1.7549498
307,1438190593125,-7.2065473,6.4751186,1.6747441
308,1438190593143,-7.204153,6.482301,1.3126211
309,1438190593164,-6.9581485,6.4828997,1.1671734
310,1438190593185,-6.915053,6.3482256,0.9271546
311,1438190593204,-7.1622543,6.1261635,0.9331401
312,1438190593226,-7.385514,5.989694,1.1881226
313,1438190593244,-7.133524,6.421249,1.3575124
314,1438190593264,-7.147889,6.453571,1.2078748
315,1438190593285,-7.219715,6.333262,1.9794062
316,1438190593302,-7.2610154,6.178836,2.8000188
317,1438190593323,-7.3232646,6.323685,3.0310593
318,1438190593343,-7.223905,6.7360864,2.7060466
319,1438190593364,-7.1083846,7.009624,2.0368671
320,1438190593389,-7.0820484,6.7384806,1.3724761
321,1438190593404,-7.1873937,6.619968,0.8571242
322,1438190593428,-7.20954,6.4709287,0.44711718
323,1438190593443,-7.197569,6.417059,0.3250129
324,1438190593464,-7.2191167,6.417658,0.56982
325,1438190593485,-7.28795,6.271013,0.7858967
326,1438190593505,-7.301118,5.647922,1.0319009
327,1438190593565,-7.147889,5.6347537,1.4221559
328,1438190593566,-6.980295,6.9024835,1.4335283
329,1438190593567,-6.8647747,7.6800003,1.7310078
330,1438190593583,-6.578069,7.3059063,2.545635
331,1438190593629,-6.5469446,6.9366007,2.861071
332,1438190593630,-6.491279,6.4900823,2.949058
333,1438190593643,-6.51582,6.5726824,2.8682537
334,1438190593673,-6.7630215,7.114969,2.7461493
335,1438190593683,-6.683414,7.0503254,2.866458
336,1438190593706,-6.6175733,6.711546,2.8748376
337,1438190593730,-6.613982,6.320094,2.7138276
338,1438190593744,-6.8773446,6.671443,2.2547395
339,1438190593764,-6.679224,6.417658,2.4025815
340,1438190593786,-6.5565214,6.425439,2.581548
341,1438190593806,-6.4828997,6.5230026,3.0190883
342,1438190593826,-6.3566055,7.0012445,3.3740287
343,1438190593844,-6.18961,7.4070616,3.630807
344,1438190593864,-6.091448,7.721899,3.8127663
345,1438190593886,-6.0130377,7.700351,3.7612908
346,1438190593903,-6.1183825,7.6710224,3.4727895
347,1438190593924,-6.3063273,7.253234,3.09271
348,1438190593944,-6.3284736,7.1700354,2.509722
349,1438190593964,-6.269816,7.185598,2.2439656
350,1438190593990,-6.2542534,7.156269,2.1649568
351,1438190594005,-6.191406,7.1873937,2.3259668
352,1438190594023,-6.179435,7.1580644,2.694674
353,1438190594051,-6.205771,6.8893156,2.8814218
354,1438190594063,-6.319495,6.573281,2.7539306
355,1438190594086,-6.308123,6.558317,2.416348
356,1438190594104,-6.2967505,7.302315,2.272696
357,1438190594123,-5.819107,7.271789,2.9233203
358,1438190594145,-5.4671597,6.901885,2.724003
359,1438190594164,-5.701193,7.514202,2.6868927
360,1438190594184,-5.5401826,6.9689226,2.7162218
361,1438190594205,-5.5760956,6.52001,3.108871
362,1438190594228,-4.851251,7.3699512,2.6874914
363,1438190594294,-4.5124717,7.462128,2.0189106
364,1438190594295,-3.4901476,7.716512,1.9758149
365,1438190594296,-2.8060043,8.607155,2.4588451
366,1438190594305,-2.4941597,9.340978,2.4971523
367,1438190594332,-3.208829,9.498995,2.461838
368,1438190594345,-4.453215,8.69155,1.8273745
369,1438190594363,-6.513426,8.238448,0.7703344
370,1438190594387,-7.1867948,8.145673,0.2633622
371,1438190594404,-8.237251,8.569447,-0.21787235
372,1438190594426,-9.088988,8.819042,-0.5734113
373,1438190594445,-8.789713,8.756793,-1.1803415
374,1438190594465,-5.3205147,9.027936,-1.1522095
375,1438190594484,-5.2397103,8.47308,-0.9091981
376,1438190594507,-5.0996494,8.4347725,-0.57400984
377,1438190594524,-4.546589,8.99741,-0.46926352
378,1438190594545,-4.5525746,9.187749,0.110731825
379,1438190594566,-4.493318,8.893262,0.50158525
380,1438190594586,-4.4262805,8.686164,0.46567222
381,1438190594607,-4.633379,8.304887,0.1945289
382,1438190594624,-4.703409,8.317456,-0.40641573
383,1438190594645,-5.3624134,8.702325,-1.0779893
384,1438190594665,-6.084265,8.437167,-2.0332758
385,1438190594686,-6.7504516,7.9391727,-2.5773582
386,1438190594707,-6.7001734,7.901464,-2.4390929
387,1438190594727,-5.909488,8.409035,-1.6759412
388,1438190594746,-4.8620253,8.350976,-0.97623575
389,1438190594767,-4.298789,8.5778265,-0.5398925
390,1438190594787,-4.5801077,8.689157,-1.0474633
391,1438190594807,-5.0224366,7.6722193,-1.2808979
392,1438190594827,-5.035605,8.632893,-0.43873745
393,1438190594845,-5.024831,9.775525,0.2908955
394,1438190594867,-6.2626333,8.476671,-0.22744916
395,1438190594887,-6.730101,7.8182654,-1.2814964
396,1438190594906,-6.0770826,8.111555,-1.9877859
397,1438190594926,-5.5312047,8.565256,-1.9644425
398,1438190594945,-5.297171,8.709507,-1.6071079
399,1438190594992,-5.5778913,8.069656,-1.5993267
400,1438190594993,-5.7843914,7.515399,-1.6460136
401,1438190595056,-5.5527525,7.1023993,-1.4598645
402,1438190595057,-5.1140146,7.5255747,-0.85293436
403,1438190595069,-5.559336,7.315483,-0.65780693
404,1438190595070,-5.8262897,6.9605427,-0.33997664
405,1438190595091,-5.485116,6.871359,-0.108936176
406,1438190595117,-4.19943,8.049905,0.39085343
407,1438190595157,-2.7455509,8.471883,0.8511387
408,1438190595158,-3.0998926,8.054693,0.76195467
409,1438190595164,-4.472967,8.304289,0.22565351
410,1438190595184,-4.969166,8.321647,-1.2108675
411,1438190595209,-5.9106855,8.44375,-2.9945478
412,1438190595225,-6.8109055,8.010401,-4.5807066
413,1438190595244,-7.065289,7.6213427,-3.7343562
414,1438190595264,-6.1447186,7.15567,-2.4426842
415,1438190595287,-5.269638,7.009624,-2.2092497
416,1438190595308,-4.622605,7.36636,-2.3953989
417,1438190595325,-4.486734,7.9565306,-3.2824504
418,1438190595347,-4.766257,9.656414,-2.7952304
419,1438190595368,-5.832874,10.788872,-2.0967221
420,1438190595387,-7.3298483,10.3692875,-1.9919758
421,1438190595408,-7.153875,10.02153,-2.8592753
422,1438190595428,-5.469554,9.266758,-2.8311436
