id,attr_time,attr_x,attr_y,attr_z
1,1438190587055,-9.439739,2.0925324,-1.3748703
2,1438190587069,-9.422979,2.1045034,-1.3784616
3,1438190587070,-9.428965,2.1266496,-1.3982137
4,1438190587071,-9.454702,2.1170728,-1.38325
5,1438190587088,-9.443929,2.1158757,-1.3934253
6,1438190587110,-9.475053,2.1033063,-1.3682863
7,1438190587127,-9.419987,2.106299,-1.3814543
8,1438190587152,-9.449316,2.1164744,-1.3724761
9,1438190587167,-9.385271,2.1470003,-1.407192
10,1438190587187,-9.483433,2.1386206,-1.4335283
11,1438190587208,-9.528324,2.1350293,-1.4215573
12,1438190587228,-9.469068,2.1134815,-1.3994108
13,1438190587250,-9.43914,2.1278467,-1.376666
14,1438190587270,-9.431359,2.1140802,-1.34195
15,1438190587287,-9.406818,2.130241,-1.3269863
16,1438190587310,-9.387665,2.1535845,-1.3599066
17,1438190587328,-9.416994,2.1823149,-1.38325
18,1438190587350,-9.431957,2.1936872,-1.4119805
19,1438190587370,-9.454104,2.1757307,-1.4131776
20,1438190587390,-9.459491,2.1571758,-1.3946224
21,1438190587410,-9.401431,2.1254525,-1.3826514
22,1438190587427,-9.433753,2.106299,-1.3515269
23,1438190587448,-9.454104,2.1021092,-1.3581109
24,1438190587470,-9.478644,2.1039047,-1.3814543
25,1438190587490,-9.456498,2.1200657,-1.3826514
26,1438190587508,-9.439739,2.1242554,-1.389834
27,1438190587529,-9.463681,2.0979192,-1.3760674
28,1438190587549,-9.440936,2.0979192,-1.3682863
29,1438190587570,-9.443929,2.0883424,-1.3760674
30,1438190587590,-9.458294,2.0655975,-1.3563153
31,1438190587611,-9.470863,2.0452468,-1.3587095
32,1438190587631,-9.496601,2.0524294,-1.3628993
33,1438190587649,-9.491214,2.067393,-1.376666
34,1438190587669,-9.485827,2.0614076,-1.3581109
35,1438190587689,-9.448717,2.0841527,-1.377863
36,1438190587707,-9.443929,2.0901382,-1.3772645
37,1438190587728,-9.45171,2.1080947,-1.3892355
38,1438190587796,-9.431359,2.11827,-1.3958195
39,1438190587797,-9.446921,2.1218612,-1.4053963
40,1438190587798,-9.456498,2.1212628,-1.400608
41,1438190587807,-9.451111,2.1098902,-1.3856442
42,1438190587832,-9.463681,2.0739772,-1.371279
43,1438190587847,-9.467871,2.0518308,-1.3694834
44,1438190587867,-9.485229,2.022502,-1.3988123
45,1438190587890,-9.607333,1.9907787,-1.3688848
46,1438190587909,-9.734824,1.8926164,-1.3557167
47,1438190587930,-9.715072,1.757344,-1.3090298
48,1438190587948,-9.664794,1.6663644,-1.2683283
49,1438190587969,-9.610326,1.596334,-1.2324153
50,1438190587990,-9.564238,1.5777789,-1.2078748
51,1438190588011,-9.531317,1.6178818,-1.2324153
52,1438190588031,-9.515156,1.7274165,-1.3030443
53,1438190588048,-9.551667,1.7788919,-1.3485341
54,1438190588068,-9.542689,1.8369513,-1.3874398
55,1438190588088,-9.535507,1.8590976,-1.3802572
56,1438190588108,-9.42238,1.9003977,-1.311424
57,1438190588128,-9.226056,1.9566613,-1.3227965
58,1438190588148,-9.048885,2.071583,-1.3485341
59,1438190588170,-8.923788,2.2505496,-1.38325
60,1438190588196,-8.715493,2.4301147,-1.4437037
61,1438190588210,-8.520964,2.5881321,-1.5143325
62,1438190588232,-8.352771,2.7371712,-1.590947
63,1438190588249,-8.220491,2.9538465,-1.666963
64,1438190588270,-8.122928,3.204639,-1.7663223
65,1438190588293,-8.050503,3.4901476,-1.8555063
66,1438190588310,-7.7733746,3.852869,-1.9285295
67,1438190588330,-7.235876,4.4101195,-2.0159178
68,1438190588353,-6.5990186,5.1146135,-2.1290438
69,1438190588370,-5.927445,5.8292828,-2.2212207
70,1438190588391,-5.427655,6.425439,-2.3427265
71,1438190588408,-5.415086,6.8426285,-2.4115596
72,1438190588431,-5.4845176,6.945579,-2.417545
73,1438190588457,-5.4049106,7.0461354,-2.3953989
74,1438190588510,-5.3265004,7.0874357,-2.2972364
75,1438190588511,-5.006874,7.1101804,-2.2092497
76,1438190588512,-4.8057613,7.2765775,-2.100912
77,1438190588539,-4.7441106,7.45734,-2.0284874
78,1438190588548,-4.322731,7.527969,-1.9207484
79,1438190588576,-3.846285,7.685986,-1.9644425
80,1438190588589,-3.5194764,7.9224133,-2.0332758
81,1438190588610,-3.7612908,8.06427,-2.1146786
82,1438190588629,-3.9612067,8.069058,-2.1110873
83,1438190588650,-4.1521444,8.08462,-2.0374656
84,1438190588668,-3.8444893,8.06008,-1.8417397
85,1438190588689,-3.4889505,8.093,-1.5574282
86,1438190588712,-3.1280246,8.337209,-1.4682442
87,1438190588731,-2.8125885,8.618527,-1.4796166
88,1438190588750,-2.416348,8.919,-1.6555905
89,1438190588769,-2.2343888,9.127894,-1.8285716
90,1438190588790,-2.3894134,9.20391,-1.8602947
91,1438190588812,-2.6048915,9.438541,-1.8567034
92,1438190588832,-2.694674,9.76535,-1.8255788
93,1438190588850,-2.3014264,10.20289,-1.8728642
94,1438190588869,-1.845331,10.688913,-1.946486
95,1438190588889,-1.4939818,11.081563,-2.0338743
96,1438190588910,-1.2976574,11.167155,-2.171541
97,1438190588931,-1.2072762,10.998364,-2.3343468
98,1438190588952,-1.3215994,10.736199,-2.4779987
99,1438190588973,-1.751957,10.534488,-2.5264814
100,1438190588990,-2.1481974,10.311228,-2.3493104
101,1438190589009,-1.7770962,10.248381,-2.1505916
102,1438190589032,-1.3904326,10.160394,-1.882441
103,1438190589052,-0.9528923,10.059238,-1.6938977
104,1438190589072,-0.76554596,10.135853,-1.7136499
105,1438190589090,-0.9151836,10.292074,-1.7866731
106,1438190589111,-0.7882909,10.423756,-2.0057425
107,1438190589131,-0.7565677,10.543466,-2.1535845
108,1438190589150,-0.8343793,10.505757,-2.2110453
109,1438190589171,-0.9427169,10.439917,-2.087744
110,1438190589194,-0.8774749,10.192716,-1.8363527
111,1438190589253,-0.789488,9.967062,-1.6627731
112,1438190589257,-0.7026982,9.749788,-1.555034
113,1438190589258,-0.6039374,9.64983,-1.620276
114,1438190589270,-0.5554548,9.564238,-1.7770962
115,1438190589289,-0.56922144,9.320627,-1.8561049
116,1438190589315,-0.50397944,8.963891,-1.8483237
117,1438190589329,-0.6194997,8.820838,-1.8441339
118,1438190589349,-0.8206126,8.829816,-1.762731
119,1438190589370,-0.90381116,8.933964,-1.6364368
120,1438190589389,-0.8475474,9.130288,-1.448492
121,1438190589411,-0.4225766,9.160215,-1.3251907
122,1438190589429,-0.06703765,9.202713,-1.2366052
123,1438190589450,-0.05746084,9.07582,-1.2282255
124,1438190589470,-0.63087213,9.019556,-1.3323733
125,1438190589491,-1.2378023,9.185355,-1.436521
126,1438190589510,-1.3479356,9.448717,-1.3605051
127,1438190589533,-1.7459716,9.702502,-1.1013328
128,1438190589553,-2.0679917,9.936536,-0.46447513
129,1438190589573,-0.95947635,9.964069,-0.15622166
130,1438190589591,-0.3549404,10.217256,-0.12210429
131,1438190589610,-0.82121116,10.400413,-0.025139118
132,1438190589633,-0.3393781,10.150817,-0.46866497
133,1438190589650,-0.30705637,10.356718,-1.1821371
134,1438190589672,-0.9756372,10.423756,-1.6753427
135,1438190589689,-1.1145009,10.59554,-1.8914193
136,1438190589712,-0.50278234,10.521319,-1.8782512
137,1438190589732,0.017956512,10.594342,-1.733402
138,1438190589751,0.18914193,10.653001,-1.7328035
139,1438190589772,-0.22744916,11.121067,-1.8166006
140,1438190589793,-0.6452374,11.3964,-1.83336
141,1438190589813,-0.5105635,11.571177,-1.834557
142,1438190589833,0.045489833,11.518504,-1.79206
143,1438190589850,0.31364042,11.5077305,-1.8189948
144,1438190589872,0.6194997,11.336545,-1.9195513
145,1438190589893,0.45968673,11.187506,-2.022502
146,1438190589911,0.12030864,11.04565,-2.066196
147,1438190589930,0.2136825,10.967239,-2.1637597
148,1438190589981,0.20231004,11.086351,-2.2391772
149,1438190589982,0.26396075,11.352107,-2.1679497
150,1438190589991,0.533907,11.440094,-2.0745757
151,1438190590010,0.7248446,11.456255,-2.1206641
152,1438190590033,0.84575176,11.379641,-2.3373394
153,1438190590050,0.5422867,11.3323555,-2.4690206
154,1438190590070,0.36511576,10.965444,-2.44029
155,1438190590092,0.81163436,10.18254,-2.2254105
156,1438190590110,1.5370775,9.81503,-2.1068976
157,1438190590133,1.2509704,9.81503,-2.0949266
158,1438190590157,0.7074866,9.710882,-1.8219875
159,1438190590172,1.1779473,8.884284,-1.2898762
160,1438190590190,1.311424,7.845799,-0.55126494
161,1438190590212,-0.4830302,7.2185183,-0.1592144
162,1438190590231,-3.5685577,6.625355,-0.11671733
163,1438190590253,-7.36636,5.897517,0.091578215
164,1438190590270,-10.868479,5.2618566,0.34356794
165,1438190590293,-12.933477,5.468955,0.5542577
166,1438190590310,-12.784438,5.827487,0.7469909
167,1438190590332,-11.888409,6.055535,0.80325466
168,1438190590353,-10.894217,6.0148335,0.6901286
169,1438190590372,-10.09994,5.8741736,0.092775315
170,1438190590396,-9.646837,5.3402667,-0.29448682
171,1438190590412,-9.013571,4.630985,-0.5674258
172,1438190590432,-8.334216,3.989937,-0.6727707
173,1438190590453,-7.2951326,3.435081,-0.85293436
174,1438190590476,-6.63553,3.1669302,-1.2198458
175,1438190590492,-6.605004,3.0597897,-1.4580688
176,1438190590512,-6.84203,3.0160956,-1.7375919
177,1438190590530,-7.6009917,2.9454668,-1.7340006
178,1438190590550,-8.049905,2.7934349,-1.5245079
179,1438190590577,-8.388684,2.5923219,-1.292869
180,1438190590592,-9.162011,2.4067712,-0.9487024
181,1438190590617,-9.817424,1.9835961,-0.45070848
182,1438190590633,-10.2657385,1.6364368,-0.12270284
183,1438190590653,-10.681132,1.7130513,0.11252748
184,1438190590726,-10.548853,1.7645266,0.23582886
185,1438190590728,-10.296863,1.851915,0.11372458
186,1438190590731,-9.863512,2.1332338,-0.3309984
187,1438190590732,-9.421184,2.5683799,-0.9151836
188,1438190590754,-8.8777,3.0059202,-1.3928268
189,1438190590776,-8.6334915,3.3806129,-1.5610195
190,1438190590790,-8.546701,3.6152446,-1.5454572
191,1438190590817,-8.341399,3.762488,-1.4826094
192,1438190590830,-8.1959505,3.900753,-1.5981296
193,1438190590853,-7.991845,4.180875,-1.9249382
194,1438190590878,-7.997831,4.650737,-2.4025815
195,1438190590892,-7.934983,5.0876784,-2.915539
196,1438190590911,-8.056489,5.390545,-3.4691982
197,1438190590933,-8.210915,5.635352,-3.9923313
198,1438190590954,-8.315661,5.5389857,-4.4077253
199,1438190590975,-8.729858,5.418677,-4.5842977
200,1438190590993,-9.4972,4.9895163,-4.2610803
201,1438190591014,-9.912594,4.4220905,-3.82773
202,1438190591033,-10.117896,3.9911342,-3.4919431
203,1438190591053,-9.532514,3.7708676,-3.4973302
204,1438190591075,-9.082404,3.6613328,-3.4123359
205,1438190591093,-8.871116,3.70383,-3.5571852
206,1438190591116,-9.490616,3.9803603,-3.7606924
207,1438190591131,-9.812037,4.2981906,-3.8061821
208,1438190591259,-9.300875,4.4125137,-3.603872
209,1438190591260,-8.605958,4.268263,-3.2172086
210,1438190591261,-8.069058,4.232949,-2.7138276
211,1438190591262,-7.7877398,4.288614,-2.2331917
212,1438190591263,-7.475296,4.325125,-2.1158757
213,1438190591264,-6.7743936,4.3873744,-2.2703018
214,1438190591312,-6.843227,4.382586,-2.344522
215,1438190591313,-6.9796963,4.642956,-2.360683
216,1438190591314,-6.633734,5.112818,-2.8694508
217,1438190591331,-7.243657,5.4521956,-3.2124202
218,1438190591351,-7.380127,5.5587378,-3.663727
219,1438190591371,-7.8984714,5.737106,-4.1677065
220,1438190591391,-8.476072,5.765238,-4.507085
221,1438190591421,-8.716091,5.7335143,-4.811747
222,1438190591433,-9.146449,5.6497173,-4.8398786
223,1438190591451,-9.426571,5.285799,-4.6112323
224,1438190591471,-9.166202,4.8147397,-4.39755
225,1438190591491,-8.780136,4.5262384,-4.219182
226,1438190591511,-8.696938,4.331111,-4.028843
227,1438190591533,-8.771158,3.9989154,-3.6846764
228,1438190591551,-8.304887,3.6314054,-3.6739025
229,1438190591571,-8.170812,3.4033577,-3.9731777
230,1438190591593,-8.739435,3.5248635,-4.255095
231,1438190591611,-8.556877,3.4745853,-4.270657
232,1438190591631,-7.9487495,3.6511576,-4.4394484
233,1438190591651,-8.681973,4.1623197,-4.2155905
234,1438190591671,-8.347982,4.844667,-3.669114
235,1438190591691,-7.0844426,5.2289367,-2.830545
236,1438190591711,-5.5743003,5.2995653,-2.4911668
237,1438190591731,-5.8346696,5.0900726,-2.3169887
238,1438190591751,-7.3711486,4.6112323,-2.2499511
239,1438190591771,-8.962095,4.1653123,-2.2307975
240,1438190591791,-9.391256,4.14975,-2.32058
241,1438190591812,-8.59698,4.4639893,-2.2493525
242,1438190591833,-8.049306,4.7644615,-2.1242554
243,1438190591852,-7.837419,5.0876784,-2.0231004
244,1438190591871,-7.815273,5.267244,-2.0871453
245,1438190591892,-7.6111674,5.197213,-2.4600422
246,1438190591913,-7.7332716,5.051167,-2.6791117
247,1438190591935,-7.687782,4.743512,-2.5701754
248,1438190591952,-7.4896617,4.5022964,-2.1733365
249,1438190591975,-7.3992805,4.23235,-1.54845
250,1438190591995,-7.1353197,4.1018662,-1.0803835
251,1438190592012,-7.340024,4.027047,-0.7128736
252,1438190592033,-7.7649946,3.8720226,-0.6775591
253,1438190592051,-7.815273,3.7415388,-0.9487024
254,1438190592075,-8.327632,3.6607344,-1.2174516
255,1438190592102,-9.0016,3.691859,-1.3054385
256,1438190592111,-9.479841,3.810372,-1.2791022
257,1438190592131,-9.360131,4.19943,-1.2126632
258,1438190592151,-8.809465,4.622605,-1.2491747
259,1438190592173,-8.39467,4.9601874,-1.441908
260,1438190592196,-8.623316,4.83509,-1.4760253
261,1438190592211,-8.898649,4.5280337,-1.4670471
262,1438190592232,-9.259575,4.2024226,-1.5915456
263,1438190592253,-9.672575,3.828927,-1.7699136
264,1438190592277,-9.731233,3.4919431,-1.7926586
265,1438190592296,-9.533113,3.204639,-1.7794905
266,1438190592311,-9.34397,2.9646204,-1.5873557
267,1438190592336,-9.3104515,2.8892028,-1.4036007
268,1438190592356,-9.147048,2.8682537,-1.2862848
269,1438190592376,-9.065644,2.7503393,-1.270124
270,1438190592395,-8.783728,2.5899277,-1.3988123
271,1438190592417,-8.692748,2.4480712,-1.8620903
272,1438190592435,-9.591172,2.4432828,-1.9488802
273,1438190592454,-10.142437,2.208651,-1.7160441
274,1438190592476,-9.7863,2.0177135,-1.417966
275,1438190592495,-9.858126,2.0248961,-1.1923125
276,1438190592516,-9.690532,2.1386206,-1.1444284
277,1438190592535,-9.528923,2.4115596,-1.4341269
278,1438190592556,-9.621698,2.6761189,-1.7304093
279,1438190592576,-9.85633,2.867655,-1.8620903
280,1438190594244,-9.80665,2.9418752,-1.8668787
281,1438190594245,-9.797073,2.9406781,-1.7753005
282,1438190594246,-9.712079,3.0472202,-1.8219875
283,1438190594247,-9.789292,3.2249897,-1.9387048
284,1438190594248,-9.611523,3.2800562,-1.9740193
285,1438190594249,-9.465476,3.3824084,-1.9339164
286,1438190594250,-9.260174,3.4883518,-1.9764135
287,1438190594251,-9.19972,3.6092591,-1.9925743
288,1438190594252,-9.287108,3.8067808,-2.0787656
289,1438190594253,-9.108741,4.0815153,-2.2343888
290,1438190594254,-8.585009,4.156334,-2.224812
291,1438190594255,-8.24563,4.0521865,-2.0368671
292,1438190594256,-8.252214,4.0258503,-1.8249803
293,1438190594257,-8.308478,4.0336313,-1.697489
294,1438190594258,-8.542512,4.1479545,-1.7328035
295,1438190594259,-8.190564,4.2054152,-1.8513165
296,1438190594260,-7.8158712,4.324527,-2.1051018
297,1438190594261,-7.3843164,4.3760023,-2.0638018
298,1438190594262,-7.069479,4.3101616,-1.7525556
299,1438190594263,-7.015011,4.2862196,-1.6011224
300,1438190594264,-7.1604586,4.1635165,-1.5711949
301,1438190594265,-7.6644382,4.161721,-1.7711107
302,1438190594266,-8.166023,4.2305546,-2.0284874
303,1438190594267,-8.371924,4.4125137,-2.3762453
304,1438190594268,-8.487445,4.5681367,-2.5570073
305,1438190594269,-8.682572,4.6405616,-2.6821043
306,1438190594270,-8.620323,4.559757,-2.730587
307,1438190594271,-8.690952,4.333505,-2.5378537
308,1438190594272,-8.67958,4.080917,-2.2266076
309,1438190594273,-8.8328085,4.042011,-2.019509
310,1438190594274,-8.933964,4.1162314,-1.7986441
311,1438190594275,-8.497621,4.0623617,-1.6795325
312,1438190594276,-8.21271,3.915717,-1.5885528
313,1438190594277,-8.169615,3.5529952,-1.5143325
314,1438190594278,-8.231864,3.2291796,-1.192911
315,1438190594279,-7.7787614,2.8592753,-0.92655605
316,1438190594280,-8.367735,2.700061,-0.87328506
317,1438190594281,-8.827422,2.4797945,-0.92895025
318,1438190594282,-9.143456,2.232593,-1.0857705
319,1438190594283,-9.7641535,1.8854338,-1.2671312
320,1438190594284,-10.556634,1.5251064,-1.389834
321,1438190594285,-11.311406,0.90021986,-1.347337
322,1438190594286,-11.352706,0.30705637,-1.192911
323,1438190594287,-10.682928,-0.17178397,-0.9804256
324,1438190594288,-10.670957,-0.7266402,-0.80445176
325,1438190594289,-11.185112,-0.9463082,-0.52612585
326,1438190594290,-11.148002,-1.0791864,-0.4237737
327,1438190594291,-10.525509,-1.1438298,-0.58298814
328,1438190594292,-9.102157,-1.3844471,-0.7098808
329,1438190594293,-8.42759,-1.6035166,-0.7074866
330,1438190594294,-8.45213,-1.6950948,-0.4141969
331,1438190594295,-8.593987,-2.1110873,-0.2136825
332,1438190594296,-9.01776,-2.3942018,0.02633622
333,1438190594297,-9.26197,-2.5091233,0.089782566
334,1438190594298,-9.529521,-2.5390508,0.010175358
335,1438190594299,-9.335591,-2.4791958,-0.12689269
336,1438190594300,-9.174581,-2.553416,-0.25438392
337,1438190594301,-9.411607,-2.823961,-0.25019407
338,1438190594302,-9.840768,-3.6110547,-0.04309563
339,1438190594303,-9.821015,-4.1718965,0.1400608
340,1438190594304,-9.689334,-4.9069166,0.3393781
341,1438190594305,-9.484032,-5.6802435,0.40102878
342,1438190594306,-9.701305,-6.363788,0.46267948
343,1438190594307,-8.948329,-6.2099605,0.3405752
344,1438190594308,-8.963293,-5.8909335,0.10175357
345,1438190594309,-9.248202,-5.269638,-0.0700304
346,1438190594310,-9.064447,-4.589086,-0.035913024
347,1438190594311,-8.846576,-4.0976763,0.18495208
348,1438190594312,-8.834005,-3.7535098,0.6206968
349,1438190594313,-8.547898,-3.4733882,1.1671734
350,1438190594314,-8.010401,-3.774459,1.6885108
351,1438190594315,-7.8039002,-4.1222167,2.2080526
352,1438190594316,-8.013991,-4.510676,2.5899277
353,1438190594317,-8.176199,-4.72376,2.7311857
354,1438190594318,-8.463503,-4.856638,2.7006595
355,1438190594319,-8.425196,-5.0541596,2.5498247
356,1438190594320,-8.435371,-5.029619,2.2158337
357,1438190594321,-8.4108305,-4.8201265,1.8034325
358,1438190594322,-8.435969,-4.7201686,1.3186066
359,1438190594323,-8.550293,-4.589086,0.82779527
360,1438190594324,-8.74123,-4.5082817,0.46866497
361,1438190594325,-8.992621,-4.5980644,0.21068975
362,1438190594326,-9.0476885,-4.782418,0.002992752
363,1438190594327,-9.059659,-4.755483,-0.05566519
364,1438190594328,-9.22426,-4.83509,0.17537527
365,1438190594329,-8.944737,-5.0158525,0.61052144
366,1438190594330,-8.911219,-5.221754,1.2862848
367,1438190594333,-9.118318,-4.80636,1.4867992
368,1438190594353,-9.397242,-4.131195,1.5304934
369,1438190594373,-8.461707,-3.2381577,1.4185646
370,1438190594406,-8.333617,-2.758719,1.395221
371,1438190594413,-8.286931,-2.5366566,1.532289
372,1438190594433,-8.450335,-2.4378958,1.7190368
373,1438190594453,-8.124125,-2.7150247,1.6406267
374,1438190594473,-8.046313,-2.9616275,1.6771383
375,1438190594496,-8.429385,-3.1196449,1.620276
376,1438190594517,-8.350377,-3.5972881,1.5442601
377,1438190594534,-8.507795,-4.103063,1.7411832
378,1438190594557,-8.738237,-4.6591167,2.1164744
379,1438190594576,-8.719084,-5.21098,2.4145525
380,1438190594597,-8.652645,-5.494693,2.5971103
381,1438190594617,-8.605359,-5.565322,2.8921957
382,1438190594637,-8.444948,-5.2522798,2.9203274
383,1438190594657,-8.39467,-4.7405195,2.7455509
384,1438190594677,-8.343194,-4.152743,2.4660277
385,1438190594696,-8.359954,-3.6948519,2.1960814
386,1438190594718,-8.419808,-3.4045548,1.9901801
387,1438190594738,-8.495825,-3.301604,1.8968062
388,1438190594754,-8.55149,-3.5116954,1.9303252
389,1438190594774,-8.5143795,-3.894169,2.0266917
390,1438190594797,-8.648455,-4.197634,2.107496
391,1438190594825,-8.730456,-4.286818,2.2026656
392,1438190594835,-8.728063,-4.234744,2.232593
393,1438190594856,-8.628703,-4.1024647,2.1428106
394,1438190594876,-8.485649,-4.0396166,2.0057425
395,1438190594894,-8.366538,-4.158728,1.9686323
396,1438190594917,-8.274361,-4.3957543,2.1278467
397,1438190594936,-8.444349,-4.642357,2.328361
398,1438190594960,-8.435969,-4.696825,2.4001873
399,1438190594975,-8.375516,-4.650737,2.3918076
400,1438190594995,-8.385093,-4.426879,2.292448
401,1438190595018,-8.526949,-4.144363,2.0991163
402,1438190595034,-8.631696,-3.8947675,1.963844
403,1438190595058,-8.64666,-3.7846344,1.9476831
404,1438190595078,-8.607155,-3.807978,2.0901382
405,1438190595097,-8.497621,-3.891775,2.2601264
406,1438190595118,-8.435371,-3.9504328,2.3756466
407,1438190595138,-8.34918,-4.0779243,2.4301147
408,1438190595157,-8.304887,-4.2395325,2.4432828
409,1438190595176,-8.309077,-4.4023385,2.4516625
410,1438190595212,-8.310274,-4.5938745,2.4654293
411,1438190595215,-8.324639,-4.59986,2.4468741
