id,attr_time,attr_x,attr_y,attr_z
1,1437501408015,-9.24638,-3.5137,0.0913238
2,1437501408036,-9.32306,-3.56239,0.104294
3,1437501408055,-9.36999,-3.58182,0.168961
4,1437501408075,-9.46613,-3.56714,0.117279
5,1437501408095,-9.61426,-3.52802,0.0630341
6,1437501408114,-9.57623,-3.47798,0.114288
7,1437501408135,-9.31538,-3.27621,0.083786
8,1437501408154,-9.09119,-3.08337,0.0931854
9,1437501408174,-9.06876,-3.09293,0.083252
10,1437501408194,-9.03932,-3.11746,-0.0359192
11,1437501408213,-8.98042,-3.21606,-0.0621796
12,1437501408232,-8.95813,-3.34689,-0.0575409
13,1437501408253,-9.01753,-3.63565,-0.0402527
14,1437501408272,-9.05597,-3.88274,-0.0622559
15,1437501408293,-9.12546,-4.05185,0.00645447
16,1437501408312,-9.17488,-4.09116,0.0514679
17,1437501408331,-9.16695,-4.13832,0.0821228
18,1437501408352,-9.16339,-4.11076,0.0993042
19,1437501408371,-9.3251,-4.03357,0.0434113
20,1437501408391,-9.42841,-3.8761,0.0612335
21,1437501408410,-9.45949,-3.7074,0.0270996
22,1437501408431,-9.53741,-3.42725,-0.0848694
23,1437501408450,-9.56908,-3.16675,-0.0251007
24,1437501408470,-9.64291,-3.0051,-0.00839233
25,1437501408490,-9.67804,-2.87032,-0.115784
26,1437501408509,-9.56714,-2.88509,-0.0763855
27,1437501408530,-9.39937,-2.45195,-0.0399475
28,1437501408548,-9.37421,-2.35854,-0.0670471
29,1437501408569,-9.29503,-2.50775,-0.259064
30,1437501408588,-9.18396,-2.68112,-0.279221
31,1437501408608,-9.09973,-2.7366,-0.319366
32,1437501408629,-9.04335,-2.871,-0.353073
33,1437501408667,-9.00958,-3.09323,-0.36647
34,1437501408688,-9.07513,-3.29401,-0.170776
35,1437501408707,-9.15953,-3.50008,-0.0213165
36,1437501408727,-9.27016,-3.95889,0.0975952
37,1437501408747,-9.28769,-4.51103,0.195557
38,1437501408766,-9.36644,-4.69408,0.476166
39,1437501408787,-9.3878,-4.72095,0.545212
40,1437501408806,-9.44505,-4.64091,0.617477
41,1437501408826,-9.43047,-4.54288,0.486755
42,1437501408845,-9.23343,-4.47061,0.38678
43,1437501408864,-9.13872,-3.97777,0.25415
44,1437501408886,-9.20364,-3.59602,0.121658
45,1437501408904,-9.10561,-3.54498,-0.0488739
46,1437501408925,-9.03514,-3.52425,-0.176193
47,1437501408944,-9.10645,-3.35852,-0.154114
48,1437501408965,-9.18074,-3.23622,-0.172928
49,1437501408984,-9.19089,-3.16071,-0.15181
50,1437501409004,-9.22166,-3.07463,-0.0583801
51,1437501409024,-9.27687,-2.98929,0.0376587
52,1437501409041,-9.33992,-2.91888,0.133179
53,1437501409063,-9.41348,-2.90555,0.211578
54,1437501409082,-9.47182,-3.07529,0.284912
55,1437501409103,-9.50073,-3.28798,0.228882
56,1437501409122,-9.4702,-3.37738,0.0935822
57,1437501409142,-9.42905,-3.30656,0.0799713
58,1437501409162,-9.42421,-3.21208,0.0419159
59,1437501409181,-9.24838,-3.15016,0.0770569
60,1437501409202,-9.17801,-3.12611,0.0636139
61,1437501409221,-9.5455,-3.11949,0.0843658
62,1437501409241,-9.47211,-3.20905,-0.0114899
63,1437501409261,-9.48405,-3.23361,0.0391235
64,1437501409281,-9.68233,-3.05376,0.0224762
65,1437501409300,-9.66034,-3.04382,-0.102737
66,1437501409320,-9.59483,-3.14653,-0.118744
67,1437501409339,-9.4191,-3.15063,-0.11908
68,1437501409359,-9.32465,-3.07076,-0.0541534
69,1437501409380,-9.31964,-3.0553,0.0245666
70,1437501409398,-9.39398,-3.08694,0.0864868
71,1437501409419,-9.58821,-3.05634,0.211746
72,1437501409438,-9.7796,-3.05603,0.218903
73,1437501409459,-9.73488,-3.02428,0.335648
74,1437501409479,-9.63145,-2.95688,0.42894
75,1437501409498,-9.67447,-2.85056,0.346481
76,1437501409518,-9.76885,-2.76358,0.289154
77,1437501409537,-9.66672,-2.72025,0.212097
78,1437501409558,-9.36972,-2.68263,0.158615
79,1437501409576,-9.0609,-2.70613,0.106308
80,1437501409597,-8.76094,-2.67114,0.146988
81,1437501409617,-8.78447,-2.61725,0.335068
82,1437501409636,-9.20918,-2.82382,0.577286
83,1437501409674,-9.77812,-3.15099,0.40303
84,1437501409675,-10.1707,-3.35974,0.412613
85,1437501409696,-10.2659,-3.38957,0.444611
86,1437501409736,-9.94934,-3.33612,0.570648
87,1437501409755,-9.49609,-3.20636,0.560852
88,1437501409775,-9.25085,-3.12585,0.704788
89,1437501409795,-9.14215,-3.04486,0.754135
90,1437501409814,-9.10159,-3.05528,0.794693
91,1437501409834,-9.10327,-3.15416,0.775009
92,1437501409854,-9.12724,-3.19276,0.814362
93,1437501409874,-9.00758,-3.18222,0.910233
94,1437501409893,-8.67874,-3.11354,1.15363
95,1437501409913,-8.31282,-3.17473,1.0903
96,1437501409933,-8.11705,-3.43175,1.02357
97,1437501409953,-8.11568,-3.74484,1.10318
98,1437501409972,-8.1714,-3.99646,1.20561
99,1437501409991,-8.30154,-4.02919,1.38443
100,1437501410011,-8.4185,-4.13448,1.55234
101,1437501410031,-8.47098,-4.45778,1.57286
102,1437501410051,-8.41983,-4.58231,1.47731
103,1437501410071,-8.51041,-4.46858,1.37021
104,1437501410091,-8.88001,-4.37167,1.26761
105,1437501410110,-9.09381,-4.13324,1.257
106,1437501410131,-9.05496,-3.85765,1.30769
107,1437501410151,-8.97111,-3.53928,1.22299
108,1437501410168,-8.98181,-3.50456,1.16849
109,1437501410190,-8.72064,-3.56567,1.09558
110,1437501410208,-8.67439,-3.64526,1.08742
111,1437501410230,-8.76047,-3.69583,0.963211
112,1437501410249,-8.88003,-3.69733,0.879929
113,1437501410269,-8.93965,-3.55511,0.761978
114,1437501410289,-9.35611,-3.47888,0.641495
115,1437501410307,-10.0956,-3.54465,0.567245
116,1437501410329,-10.2326,-3.57504,0.437149
117,1437501410347,-9.91328,-3.69473,0.376694
118,1437501410368,-9.8167,-3.55457,0.277679
119,1437501410388,-9.65315,-3.21808,0.259003
120,1437501410407,-9.3681,-3.01276,0.253387
121,1437501410427,-9.35028,-2.98578,0.113312
122,1437501410447,-9.49954,-3.13666,-0.0222321
123,1437501410467,-9.60898,-3.16791,-0.163727
124,1437501410485,-9.59363,-3.09091,-0.348343
125,1437501410506,-9.58432,-2.94618,-0.506302
126,1437501410525,-9.42459,-2.84387,-0.661697
127,1437501410546,-9.40999,-2.99504,-0.791153
128,1437501410565,-9.54855,-3.24573,-0.946838
129,1437501410586,-9.68967,-3.44669,-0.947998
130,1437501410605,-9.86455,-3.44661,-1.09373
131,1437501410625,-9.97478,-3.35333,-1.11642
132,1437501410645,-9.95541,-3.36826,-1.11838
133,1437501410664,-9.70613,-3.19206,-1.2168
134,1437501410684,-9.46355,-3.15962,-1.19527
135,1437501410704,-9.20549,-3.32686,-1.22176
136,1437501410726,-8.9295,-3.51878,-1.27522
137,1437501410761,-8.65031,-3.65823,-1.12427
138,1437501410781,-8.57214,-3.53114,-1.06316
139,1437501410800,-8.6035,-3.49655,-1.02773
140,1437501410821,-8.73978,-3.3342,-0.96347
141,1437501410840,-8.92952,-3.13733,-0.870422
142,1437501410860,-9.22963,-2.98547,-0.832611
143,1437501410880,-9.37921,-2.90878,-0.842743
144,1437501410900,-9.47401,-2.97369,-0.91861
145,1437501410919,-9.63704,-3.08818,-1.01572
146,1437501410938,-9.81113,-3.18636,-0.959778
147,1437501410961,-9.91562,-3.23343,-0.992508
148,1437501410980,-10.0321,-3.10001,-0.989166
149,1437501411000,-10.2548,-2.92705,-0.984833
150,1437501411019,-10.6084,-2.75467,-0.995834
151,1437501411040,-10.7899,-2.53288,-1.06189
152,1437501411059,-10.5263,-2.22055,-1.08633
153,1437501411079,-10.2256,-1.81668,-1.04169
154,1437501411099,-10.1259,-1.58485,-1.0408
155,1437501411117,-10.2745,-1.47206,-1.03928
156,1437501411138,-10.6278,-1.61971,-1.06682
157,1437501411158,-10.7194,-1.60545,-0.942429
158,1437501411179,-10.564,-1.34758,-0.630707
159,1437501411198,-10.2105,-0.830734,-0.440063
160,1437501411218,-9.62561,-0.365524,-0.210312
161,1437501411237,-9.04411,-0.424316,-0.122787
162,1437501411258,-8.8098,-0.763901,-0.0266724
163,1437501411277,-9.05045,-1.11272,-0.127869
164,1437501411297,-9.69716,-1.48821,-0.357559
165,1437501411317,-10.1225,-1.86807,-0.609238
166,1437501411335,-9.90832,-2.00717,-0.577087
167,1437501411356,-9.55133,-1.92451,-0.505234
168,1437501411376,-9.09685,-1.86169,-0.447739
169,1437501411396,-8.59943,-1.91182,-0.195251
170,1437501411416,-8.39934,-2.11656,-0.0348511
171,1437501411434,-8.47215,-2.27998,0.232635
172,1437501411455,-8.62816,-2.29628,0.373291
173,1437501411472,-8.60878,-2.32256,0.434204
174,1437501411491,-8.4211,-2.30307,0.46019
175,1437501411511,-8.37318,-2.31828,0.614563
176,1437501411533,-8.41312,-2.45836,0.762787
177,1437501411554,-8.54161,-2.74835,0.816788
178,1437501411574,-8.59056,-3.07054,0.788879
179,1437501411594,-8.54675,-3.39832,0.894424
180,1437501411612,-8.74306,-3.54611,1.00644
181,1437501411633,-9.07725,-3.39354,1.1749
182,1437501411652,-9.10373,-3.17772,1.33995
183,1437501411673,-8.97093,-2.98853,1.35101
184,1437501411692,-9.37474,-2.91908,1.20203
185,1437501411712,-10.4344,-3.20375,1.20247
186,1437501411731,-10.8551,-3.48701,1.15424
187,1437501411751,-10.7948,-3.67596,0.993912
188,1437501411772,-10.9904,-3.68454,0.832199
189,1437501411791,-10.5875,-3.56209,0.857864
190,1437501411811,-9.51482,-3.40717,1.02838
191,1437501411830,-8.79411,-3.48248,1.12213
192,1437501411870,-8.55507,-4.08142,0.907639
193,1437501411890,-8.84926,-4.84702,0.720551
194,1437501411910,-9.30661,-5.10118,0.390671
195,1437501411928,-9.93382,-4.90273,0.0943451
196,1437501411950,-10.5302,-4.6049,-0.113342
197,1437501411968,-11.1524,-4.61345,-0.26561
198,1437501411989,-11.869,-4.94276,-0.453278
199,1437501412009,-11.8351,-4.96597,-0.826935
200,1437501412028,-11.1582,-4.5728,-0.990082
201,1437501412048,-10.6047,-4.11702,-1.07722
202,1437501412067,-10.1426,-3.83697,-0.935059
203,1437501412088,-9.66307,-3.83177,-0.851395
204,1437501412107,-8.90189,-3.90033,-0.888809
205,1437501412127,-8.17197,-3.77425,-0.975861
206,1437501412148,-7.72916,-3.6772,-1.05887
207,1437501412167,-7.49789,-3.53665,-1.13521
208,1437501412187,-7.44604,-3.3943,-1.05864
209,1437501412207,-7.53085,-3.19159,-1.01077
210,1437501412227,-7.70732,-2.95175,-0.866806
211,1437501412245,-7.90173,-2.58882,-0.75441
212,1437501412265,-8.16873,-2.16927,-0.814148
213,1437501412285,-8.43182,-1.91423,-0.783096
214,1437501412306,-8.64749,-1.86938,-0.754456
215,1437501412325,-9.14294,-2.09857,-0.753586
216,1437501412344,-9.56958,-2.25958,-0.948944
217,1437501412364,-9.90314,-2.15582,-1.09927
218,1437501412385,-10.1076,-2.07741,-0.980911
219,1437501412404,-10.4753,-2.37363,-0.854462
220,1437501412424,-11.3187,-2.87141,-0.913605
221,1437501412444,-11.7635,-3.12822,-0.826202
222,1437501412462,-11.9132,-3.23903,-0.416824
223,1437501412484,-11.7367,-3.37074,-0.361725
224,1437501412503,-11.0453,-3.25819,-0.282867
225,1437501412523,-10.3381,-2.96092,-0.118637
226,1437501412543,-10.1441,-2.58054,-0.0723267
227,1437501412561,-10.3356,-2.42355,0.0337372
228,1437501412583,-10.446,-2.16855,0.766479
229,1437501412601,-10.4828,-1.90009,1.39279
230,1437501412622,-9.56824,-3.2133,-0.989197
231,1437501412642,-8.68332,-6.123,-1.01346
232,1437501412661,-7.91917,-5.93515,-0.115265
233,1437501412681,-7.80312,-4.02531,0.617081
234,1437501412701,-8.06755,-2.80985,1.11391
235,1437501412721,-7.93422,-2.83336,1.43327
236,1437501412741,-7.73579,-3.62428,1.82907
237,1437501412760,-7.68671,-4.58394,1.80218
238,1437501412779,-7.54099,-5.20027,1.43152
239,1437501412800,-7.36372,-5.1227,1.25778
240,1437501412819,-7.30926,-4.74136,1.27267
241,1437501412840,-7.41904,-4.44415,1.41023
242,1437501412859,-7.72543,-4.37688,1.44481
243,1437501412878,-8.4816,-4.66962,1.11707
244,1437501412899,-9.74355,-5.36693,0.322906
245,1437501412938,-11.1616,-5.99008,0.0111389
246,1437501412958,-12.35,-6.62529,-0.0524139
247,1437501412978,-12.5471,-6.77686,-0.237457
248,1437501412995,-12.1185,-6.06363,-0.512741
249,1437501413017,-11.2986,-5.47424,-0.663742
250,1437501413037,-10.6677,-4.84659,-0.805679
251,1437501413055,-10.9326,-4.40697,-0.971924
252,1437501413076,-11.6565,-4.23033,-1.12828
253,1437501413095,-11.8568,-4.1642,-1.2106
254,1437501413116,-11.5492,-4.07111,-1.31079
255,1437501413136,-10.9803,-3.72401,-1.57123
256,1437501413156,-10.3877,-3.21104,-1.63788
257,1437501413176,-9.58391,-2.67999,-1.71838
258,1437501413194,-8.65428,-2.25378,-1.65781
259,1437501413215,-7.90593,-2.0782,-1.53174
260,1437501413235,-7.36081,-2.2872,-1.24902
261,1437501413255,-7.06869,-2.5444,-1.10399
262,1437501413275,-7.06084,-2.66411,-1.08965
263,1437501413294,-7.17627,-2.45934,-1.06664
264,1437501413314,-7.26562,-1.96228,-1.05757
265,1437501413334,-7.51984,-0.995682,-0.995438
266,1437501413353,-7.92407,0.0411377,-0.815018
267,1437501413372,-8.75619,0.75412,-0.759979
268,1437501413392,-10.315,0.84874,-1.33044
269,1437501413412,-12.042,0.0611725,-1.63667
270,1437501413433,-13.0526,-1.13898,-1.34998
271,1437501413452,-13.1679,-2.25407,-1.14925
272,1437501413472,-12.7866,-2.96973,-1.39302
273,1437501413491,-12.1887,-3.62273,-1.46216
274,1437501413512,-11.7321,-4.41676,-0.669266
275,1437501413532,-11.7712,-5.13675,0.23703
276,1437501413551,-12.1475,-5.35683,0.738907
277,1437501413571,-11.6553,-5.64165,0.641724
278,1437501413590,-10.5703,-5.68887,0.314209
279,1437501413611,-9.55541,-5.71248,0.0990906
280,1437501413630,-8.31957,-5.81828,0.405838
281,1437501413650,-7.23569,-5.769,0.433517
282,1437501413670,-6.58765,-5.83112,0.664642
283,1437501413689,-6.5394,-6.40639,1.37001
284,1437501413710,-6.90871,-7.26024,1.49583
285,1437501413729,-6.70682,-7.5341,1.04454
286,1437501413749,-6.13339,-7.85306,0.984863
287,1437501413769,-5.9361,-8.05307,1.25417
288,1437501413788,-5.9915,-7.88361,1.14162
289,1437501413808,-6.47704,-7.99104,0.651947
290,1437501413828,-9.44498,-9.27379,0.633362
291,1437501413846,-12.0086,-10.3539,-0.421814
292,1437501413868,-10.7889,-10.3989,-0.712677
293,1437501413887,-12.0767,-10.6759,-0.991898
294,1437501413906,-14.336,-10.1873,-1.58899
295,1437501413927,-14.7388,-9.04352,-2.23802
296,1437501413946,-14.9552,-7.74283,-2.64482
297,1437501413967,-14.6209,-6.60599,-2.84564
298,1437501413986,-13.3264,-5.88608,-2.8967
299,1437501414004,-11.8592,-5.24278,-2.74568
300,1437501414044,-10.453,-4.0905,-2.34076
301,1437501414065,-9.02554,-2.66032,-1.73798
302,1437501414085,-7.98338,-1.37079,-1.08272
303,1437501414105,-7.27179,-0.700546,-0.405807
304,1437501414124,-6.69237,-0.586685,0.0675201
305,1437501414145,-6.40076,-0.304077,-0.0705719
306,1437501414164,-6.56396,0.408356,-0.187134
307,1437501414184,-6.84225,1.50777,-0.442581
308,1437501414204,-7.00154,2.23415,-0.485458
309,1437501414222,-7.69634,2.27342,-0.656845
310,1437501414244,-9.17055,1.62927,-1.31218
311,1437501414263,-10.6875,0.335266,-1.57993
312,1437501414283,-12.0455,-1.57166,-1.49071
313,1437501414303,-13.4945,-4.34373,-2.08673
314,1437501414320,-13.8634,-6.97734,-2.60709
315,1437501414342,-12.5072,-8.6366,-1.84976
316,1437501414361,-11.3805,-9.77988,-0.446503
317,1437501414382,-10.6693,-10.4045,0.600189
318,1437501414402,-10.0517,-10.4765,0.92244
319,1437501414421,-9.56982,-10.552,0.883514
320,1437501414441,-8.74243,-10.7349,0.35347
321,1437501414461,-7.30629,-11.2649,0.255615
322,1437501414480,-5.8206,-10.702,0.71698
323,1437501414498,-4.9447,-9.29121,1.54564
324,1437501414519,-4.46669,-8.32288,2.14241
325,1437501414539,-4.03197,-7.91824,2.12701
326,1437501414560,-3.42096,-8.03906,1.55257
327,1437501414580,-2.68011,-8.67598,0.984055
328,1437501414599,-2.13216,-9.46591,0.693527
329,1437501414618,-2.30017,-10.1519,0.438278
330,1437501414638,-2.98143,-9.97446,-0.409073
331,1437501414658,-3.81187,-10.2725,-0.998489
332,1437501414678,-5.71286,-11.5887,-1.38474
333,1437501414697,-8.57143,-13.2736,-2.52216
334,1437501414717,-10.4289,-14.0502,-3.25931
335,1437501414738,-10.7474,-13.6236,-3.62228
336,1437501414757,-11.6621,-13.59,-4.14516
337,1437501414777,-12.8845,-12.5809,-4.63576
338,1437501414797,-12.7918,-10.5119,-4.72096
339,1437501414815,-12.0488,-8.61037,-4.39897
340,1437501414837,-11.0298,-6.90607,-3.8094
341,1437501414855,-9.85208,-5.2634,-2.94823
342,1437501414876,-8.90326,-3.93108,-1.7274
343,1437501414896,-8.16319,-3.12042,-0.862122
344,1437501414915,-7.53374,-2.64197,-0.256836
345,1437501414935,-7.21124,-2.0271,0.0526428
346,1437501414955,-7.21197,-1.40051,0.100662
347,1437501414975,-7.06793,-1.10968,0.305344
348,1437501414994,-6.7188,-0.786316,0.478851
349,1437501415014,-6.4691,-0.163544,0.870499
350,1437501415034,-6.7178,0.121796,1.55013
351,1437501415053,-7.37302,-0.622391,1.33696
352,1437501415073,-8.77933,-3.11101,0.417435
353,1437501415113,-11.489,-6.56955,-2.16483
354,1437501415132,-13.1129,-10.1386,-4.18077
355,1437501415152,-11.1211,-12.4436,-3.45078
356,1437501415172,-9.64232,-13.2275,-2.10303
357,1437501415192,-8.20512,-13.3086,-0.42807
358,1437501415212,-6.63545,-13.0178,0.347717
359,1437501415232,-5.69362,-12.8318,-0.131699
360,1437501415251,-5.07758,-12.3894,-0.549622
361,1437501415272,-4.18741,-11.8577,-0.525314
362,1437501415291,-3.12311,-10.8802,-0.205841
363,1437501415310,-2.21053,-9.77814,0.414719
364,1437501415331,-1.52737,-8.533,0.863281
365,1437501415349,-0.826523,-7.64117,1.26405
366,1437501415370,-0.11203,-7.43633,1.17171
367,1437501415390,0.462128,-7.80818,0.63562
368,1437501415410,0.841599,-8.5312,0.0550232
369,1437501415430,0.899872,-9.18732,-0.2202
370,1437501415447,0.541061,-9.52866,-0.770874
371,1437501415469,0.0197601,-10.2969,-1.68912
372,1437501415488,-0.85257,-12.2742,-2.31949
373,1437501415508,-2.91354,-13.9027,-3.35413
374,1437501415528,-5.64832,-14.8223,-4.16711
375,1437501415548,-7.28456,-14.6774,-4.45161
376,1437501415568,-7.30812,-14.2769,-4.49689
377,1437501415588,-6.84799,-13.9038,-4.2231
378,1437501415607,-7.41219,-12.8137,-4.18376
379,1437501415627,-7.82205,-10.9753,-3.66478
380,1437501415646,-7.69624,-9.13696,-2.57384
381,1437501415666,-7.06494,-7.75995,-1.80489
382,1437501415687,-6.41345,-6.5453,-1.20357
383,1437501415705,-6.22951,-5.51386,-0.666428
384,1437501415726,-6.30312,-4.47827,-0.354919
385,1437501415745,-6.1344,-3.78703,-0.0532989
386,1437501415764,-6.04211,-3.65063,0.336441
387,1437501415786,-6.27589,-3.75278,0.483368
388,1437501415804,-6.76022,-3.6777,0.458557
389,1437501415825,-7.10176,-3.48445,0.35173
390,1437501415844,-7.48231,-3.46178,0.274826
391,1437501415865,-7.9032,-3.75801,-0.285828
392,1437501415884,-8.23434,-4.64377,-1.04276
393,1437501415904,-9.07445,-6.76025,-2.17329
394,1437501415924,-10.2141,-9.90915,-3.49866
395,1437501415941,-9.9234,-12.6475,-3.83189
396,1437501415964,-8.45689,-13.909,-2.97029
397,1437501415982,-7.44014,-14.2561,-1.93051
398,1437501416003,-6.37926,-13.9331,-1.37505
399,1437501416022,-4.94676,-13.3152,-1.32275
400,1437501416042,-3.50838,-12.2982,-1.40414
401,1437501416062,-2.27644,-11.0226,-1.38551
402,1437501416081,-1.31805,-9.85928,-1.1653
403,1437501416102,-0.663986,-9.15306,-0.696274
404,1437501416122,-0.154739,-8.95694,-0.360199
405,1437501416141,0.253098,-8.94684,0.0589905
406,1437501416161,0.633896,-8.58404,0.524567
407,1437501416201,1.01102,-7.99303,0.685913
408,1437501416221,1.36432,-7.78821,0.366211
409,1437501416240,1.53181,-8.33641,0.124176
410,1437501416259,1.37201,-9.15939,-0.419739
411,1437501416279,0.932571,-10.3297,-1.63722
412,1437501416299,0.40657,-12.3757,-2.72371
413,1437501416319,-0.814453,-14.2881,-3.60738
414,1437501416339,-2.73592,-15.065,-3.98524
415,1437501416358,-4.47348,-15.4135,-4.10985
416,1437501416378,-5.14362,-15.5112,-4.4055
417,1437501416399,-5.08783,-15.1695,-4.7908
418,1437501416418,-5.43439,-14.3536,-5.06583
419,1437501416437,-6.25302,-13.185,-4.98614
420,1437501416458,-6.91939,-11.4493,-4.22656
421,1437501416477,-6.92029,-9.36174,-3.14114
422,1437501416497,-6.56581,-7.36998,-2.03981
423,1437501416517,-6.10996,-5.82997,-1.11084
424,1437501416537,-5.7352,-4.96669,-0.492676
425,1437501416557,-5.54663,-4.66235,-0.16304
426,1437501416575,-5.57901,-4.37157,0.0345154
427,1437501416596,-5.83707,-4.02219,0.210037
428,1437501416615,-6.2523,-3.43278,0.132217
429,1437501416635,-6.97591,-2.90434,0.0888825
430,1437501416655,-7.75975,-2.7076,0.0828095
431,1437501416675,-8.17052,-3.09796,-0.383514
432,1437501416694,-7.85994,-4.52396,-1.52945
433,1437501416715,-8.5807,-7.09911,-2.68629
434,1437501416734,-10.6558,-10.7672,-4.15034
435,1437501416754,-10.3079,-13.1806,-4.50439
436,1437501416773,-8.07767,-13.7193,-3.18997
437,1437501416793,-6.70737,-13.8635,-1.92955
438,1437501416814,-5.54205,-13.955,-1.54614
439,1437501416834,-4.1635,-13.5513,-1.85381
440,1437501416853,-2.92958,-12.7406,-1.78401
441,1437501416872,-1.91231,-11.8188,-1.45467
442,1437501416891,-0.940125,-10.7499,-0.769577
443,1437501416912,-0.245438,-10.0753,-0.233658
444,1437501416931,0.334885,-9.40099,-0.022934
445,1437501416952,0.89621,-8.5186,0.230438
